,PPG_Raw,PPG_Clean,PPG_Rate,PPG_Peaks
0,-1.491937393385437,0.05102153759793232,79.45205479452055,0.0
1,-1.494865613468203,0.04818874036980364,79.45205479452055,0.0
2,-1.4944909659739778,0.048367098773228076,79.45205479452055,0.0
3,-1.4879565539126602,0.05405778664846153,79.45205479452055,0.0
4,-1.473216862078731,0.06687400698896968,79.45205479452055,0.0
5,-1.4494081406940647,0.08726900752122976,79.45205479452055,0.0
6,-1.4170992969704632,0.1144463124775899,79.45205479452055,0.0
7,-1.3783374793984953,0.14647102318597566,79.45205479452055,0.0
8,-1.3364248944981059,0.1805690564307813,79.45205479452055,0.0
9,-1.295421725398885,0.21356856249488454,79.45205479452055,0.0
10,-1.2594470118713672,0.2424104782784274,79.45205479452055,0.0
11,-1.2319173821141975,0.2646393656352566,79.45205479452055,0.0
12,-1.2148965492339074,0.2787859565202144,79.45205479452055,0.0
13,-1.2087126753157955,0.2845706414181537,79.45205479452055,0.0
14,-1.2119394223083482,0.2828899680703367,79.45205479452055,0.0
15,-1.2217480661734297,0.27558977484981073,79.45205479452055,0.0
16,-1.234548282349105,0.26507016366077724,79.45205479452055,0.0
17,-1.246768677333265,0.2538001025522026,79.45205479452055,0.0
18,-1.255601123914989,0.2438359546291299,79.45205479452055,0.0
19,-1.2595496740387775,0.2364352636440581,79.45205479452055,0.0
20,-1.2586775079521118,0.23183576500412803,79.45205479452055,0.0
21,-1.254518201859446,0.22923500529468763,79.45205479452055,0.0
22,-1.2496924534592293,0.22696602295093563,79.45205479452055,0.0
23,-1.2473321894570015,0.22282786833167006,79.45205479452055,0.0
24,-1.2504480915753953,0.21450360400539803,79.45205479452055,0.0
25,-1.2613761723116792,0.19998721359060023,79.45205479452055,0.0
26,-1.281404347482875,0.1779453242905249,79.45205479452055,0.0
27,-1.31062240602526,0.14795719269663973,79.45205479452055,0.0
28,-1.3479788640222181,0.11060206302930758,79.45205479452055,0.0
29,-1.3914869388552862,0.067390986747961,79.45205479452055,0.0
30,-1.4385106329085473,0.020565287999158147,79.45205479452055,0.0
31,-1.4860770824836973,-0.027197581715059274,79.45205479452055,0.0
32,-1.5311872967503317,-0.07311983486859669,79.45205479452055,0.0
33,-1.5711156632116319,-0.11464815488868307,79.45205479452055,0.0
34,-1.6036879040161172,-0.1497209475669159,79.45205479452055,0.0
35,-1.6275098024772734,-0.17694382237877038,79.45205479452055,0.0
36,-1.6420998031430423,-0.19565589214510665,79.45205479452055,0.0
37,-1.6478766283252926,-0.20588838369751758,79.45205479452055,0.0
38,-1.6459797912846035,-0.20823514985455424,79.45205479452055,0.0
39,-1.6379511481249356,-0.20366870950769783,79.45205479452055,0.0
40,-1.6253580944088921,-0.19334245067444147,79.45205479452055,0.0
41,-1.6094673152522307,-0.17841784485615284,79.45205479452055,0.0
42,-1.5910656224054494,-0.15994519350694136,79.45205479452055,0.0
43,-1.5704735459310235,-0.13881012134300566,79.45205479452055,0.0
44,-1.5477278206383487,-0.11574011547200887,79.45205479452055,0.0
45,-1.5228494919746545,-0.09135083375681223,79.45205479452055,0.0
46,-1.4960898460955407,-0.0662046534907266,79.45205479452055,0.0
47,-1.4680652144508293,-0.040855718746213056,79.45205479452055,0.0
48,-1.4397417762218376,-0.015865462911700906,79.45205479452055,0.0
49,-1.4122880733123844,0.008213314013045798,79.45205479452055,0.0
50,-1.3868539029924924,0.030872052179864655,79.45205479452055,0.0
51,-1.3643504044819963,0.05168123278372319,79.45205479452055,0.0
52,-1.3453002108555254,0.07030298099304258,79.45205479452055,0.0
53,-1.3298049386512234,0.08646739269852353,79.45205479452055,0.0
54,-1.3176449920544564,0.09991186440655586,79.45205479452055,0.0
55,-1.308488629620813,0.1102980176805585,79.45205479452055,0.0
56,-1.302151755248,0.1171332378368369,79.45205479452055,0.0
57,-1.2988277894484144,0.11972918117332469,79.45205479452055,0.0
58,-1.2992069261541088,0.11722549090829498,79.45205479452055,0.0
59,-1.3044282577119237,0.10869364324743189,79.45205479452055,0.0
60,-1.3158512916351408,0.09331620753265499,79.45205479452055,0.0
61,-1.3346841954025894,0.07061568217373289,79.45205479452055,0.0
62,-1.3615509677704274,0.04068998135608519,79.45205479452055,0.0
63,-1.3961057721480048,0.004403311812509185,79.45205479452055,0.0
64,-1.4368011728017627,-0.03651579911331977,79.45205479452055,0.0
65,-1.480885990053241,-0.07950342325946577,79.45205479452055,0.0
66,-1.5246539841138702,-0.12132797266196083,79.45205479452055,0.0
67,-1.5639005229620548,-0.1583833017486265,79.45205479452055,0.0
68,-1.5944901818188644,-0.1870708096220764,79.45205479452055,0.0
69,-1.6129129905941928,-0.20421831967478873,79.45205479452055,0.0
70,-1.61672118523127,-0.20747724351681207,79.45205479452055,0.0
71,-1.6047861962937038,-0.19564296343582666,79.45205479452055,0.0
72,-1.5773754475847097,-0.16885457904752782,79.45205479452055,0.0
73,-1.536092416843778,-0.12864623299727737,79.45205479452055,0.0
74,-1.4837327598065841,-0.07784033206225033,79.45205479452055,0.0
75,-1.4240857428538165,-0.020291116836605262,79.45205479452055,0.0
76,-1.3616741717380798,0.03949590032041461,79.45205479452055,0.0
77,-1.3014042203921707,0.09682785233349259,79.45205479452055,0.0
78,-1.2481070557733063,0.14731865714495704,79.45205479452055,0.0
79,-1.2059964934300216,0.18735265235094573,79.45205479452055,0.0
80,-1.1781219915375252,0.21445655252811482,79.45205479452055,0.0
81,-1.165935296864576,0.2275273102960081,79.45205479452055,1.0
82,-1.1690881238792796,0.22688196244173925,80.63707034452781,0.0
83,-1.185531499670384,0.21412196887976956,81.85308432451077,0.0
84,-1.2119106259733596,0.1918345999258778,83.1001545525733,0.0
85,-1.2441714045445746,0.16318162143783677,84.37825944833222,0.0
86,-1.2782437141235627,0.1314447412369686,85.6872874096177,0.0
87,-1.310656273351057,0.09960344357858837,87.02702532021212,0.0
88,-1.3389663524254385,0.07001225372466864,88.397146164316,0.0
89,-1.3619411520986284,0.04422282527439268,89.79719573297227,0.0
90,-1.3794885133721815,0.022966176245384003,91.22657841984429,0.0
91,-1.3923864036401845,0.006278368604141285,92.68454211891186,0.0
92,-1.4018925901345467,-0.006274337045975631,94.17016225521724,0.0
93,-1.409325488352689,-0.015331775745810107,95.68232500215238,0.0
94,-1.4156994897819917,-0.02150194735005788,97.21970976531304,0.0
95,-1.4214812304337108,-0.025202633113679165,98.7807710439843,0.0
96,-1.4265119019461816,-0.026614260898119343,100.36371981714636,0.0
97,-1.430113483554521,-0.025746911521913274,101.96650464165629,0.0
98,-1.4313608297831746,-0.022595053932524034,103.58679269599598,0.0
99,-1.4294600490113762,-0.01733033165385916,105.2219510535035,0.0
100,-1.4241383533920995,-0.010471014796263015,106.86902852388864,0.0
101,-1.415936225286732,-0.0029698275227366747,108.52473846033821,0.0
102,-1.4063076879377379,0.0038201790646033053,110.18544299051001,0.0
103,-1.3974760758721252,0.008312640089154208,111.84713919163067,0.0
104,-1.3920500976233072,0.008964293727983061,113.50544779068125,0.0
105,-1.3924650174926883,0.0046060412580840385,115.15560502764897,0.0
106,-1.4003646481872656,-0.005246204317123318,116.7924583698555,0.0
107,-1.4160709301191974,-0.02017870621912353,118.41046680466995,0.0
108,-1.4382889811080886,-0.038826670165615036,120.00370646220242,0.0
109,-1.4641588658879976,-0.05900919814577117,121.56588232414404,0.0
110,-1.4896906031345978,-0.07803859253544213,123.09034675482077,0.0
111,-1.51051829129067,-0.09314842632668763,124.5701255407943,0.0
112,-1.5228088748384294,-0.10195455196229206,125.99795204131289,0.0
113,-1.5240957543290337,-0.10285293052436503,127.36630992962347,0.0
114,-1.5138078219772473,-0.09527134171383494,128.66748484179408,0.0
115,-1.4933414360590216,-0.07972592104673379,129.89362504410468,0.0
116,-1.4656571697708287,-0.05767947815822466,131.03681098325183,0.0
117,-1.4345290090946317,-0.031244547747372547,132.08913329921077,0.0
118,-1.4036765906979911,-0.0028079147687456747,133.04277856525948,0.0
119,-1.37603279269812,0.025333742924453645,133.8901216832479,0.0
120,-1.3533350913802416,0.05124809802668113,134.62382351779036,0.0
121,-1.3361096146479292,0.07350253440522583,135.23693201665844,0.0
122,-1.3239902577712945,0.09115250198445923,135.7229847545876,0.0
123,-1.3162258755873475,0.10361435349582249,136.0761105736526,0.0
124,-1.312199270435033,0.11048233188890784,136.29112779511883,0.0
125,-1.3118089586068613,0.11135953121634741,136.36363636363637,1.0
126,-1.315626020493065,0.10576337236858,136.34248420565896,0.0
127,-1.3248064577982654,0.09314105196941874,136.28009099983097,0.0
128,-1.3407954696321271,0.07299681416426168,136.1781034818986,0.0
129,-1.364898102726091,0.045099594978065774,136.03822984100867,0.0
130,-1.3978132022741023,0.00971482157009565,135.86223027625044,0.0
131,-1.439236523753201,-0.03220625837261759,135.65190777411067,0.0
132,-1.487631870697036,-0.07894008699321746,135.40909917667594,0.0
133,-1.5402421862198694,-0.1280461744628567,135.1356666019393,0.0
134,-1.5933655564919047,-0.1765719568025475,134.83348926890866,0.0
135,-1.6428611201569612,-0.22138055912817545,134.50445577155543,0.0
136,-1.6847905544245272,-0.25954587935462403,134.1504568371406,0.0
137,-1.716059196130198,-0.2887423210454988,133.77337859624942,0.0
138,-1.7349122843318865,-0.3075552918986013,133.37509638407116,0.0
139,-1.7411732290647228,-0.3156534404693823,132.95746908517432,0.0
140,-1.7361755077032217,-0.31379094498365323,132.52233402731812,0.0
141,-1.7224177972832597,-0.30364158743900055,132.07150242376386,0.0
142,-1.703037633361943,-0.2874982889105591,131.60675535813616,0.0
143,-1.681231955794005,-0.2678954594963451,131.12984030114816,0.0
144,-1.6597466380878754,-0.24722249987837236,130.64246814445028,0.0
145,-1.640519886290485,-0.227393851609771,130.1463107334696,0.0
146,-1.6245146100058085,-0.20962602410876713,129.64299887836128,0.0
147,-1.6117316029319866,-0.19434919987748156,129.13412082005036,0.0
148,-1.601369230659787,-0.18125553118192156,128.62122112677395,0.0
149,-1.5920847693840448,-0.16946306057143584,128.10579999548648,0.0
150,-1.5823088927691764,-0.15775712954214471,127.589312931922,0.0
151,-1.5705620897496637,-0.14486232852051018,127.07317078296705,0.0
152,-1.5557222417344807,-0.12969788608898836,126.55874009523659,0.0
153,-1.537202419322208,-0.11157677837379097,126.04734377431512,0.0
154,-1.5150184636883042,-0.09032156274466155,125.54026201998046,0.0
155,-1.4897500202944207,-0.06628527560115281,125.03873351382461,0.0
156,-1.4624168203495231,-0.04028099058138984,124.54395683698388,0.0
157,-1.4343002507060814,-0.013436626472678834,124.05709209715374,0.0
158,-1.406741630477732,0.012999075627130013,123.57926274565827,0.0
159,-1.3809470339438874,0.037868386746535074,123.11155756704214,0.0
160,-1.3578237584687123,0.06030224237546036,122.65503282542944,0.0
161,-1.3378635699480925,0.0798743678089308,122.21071455372817,0.0
162,-1.3210748965228793,0.09668819809844498,121.77960097363336,0.0
163,-1.3069582404512647,0.11138108874531064,121.36266503628723,0.0
164,-1.294523682626575,0.1250406016860906,120.96085707537618,0.0
165,-1.2823645412944493,0.13903957947394702,120.57510756638193,0.0
166,-1.26881357306545,0.15480939427355767,120.20632998765207,0.0
167,-1.252200779268114,0.17358256510129058,119.8554237809173,0.0
168,-1.2311981355284023,0.19614454234907813,119.52327741086019,0.0
169,-1.205187847555897,0.22263726667022354,119.21077152534517,0.0
170,-1.1745524205207858,0.2524521392297653,118.91878221995844,0.0
171,-1.1407816075311976,0.2842369136589479,118.64818441259514,0.0
172,-1.1063323800976075,0.31602159037771405,118.39985533598781,0.0
173,-1.0742514951570967,0.34544662381300273,118.17467815831239,0.0
174,-1.0476483226925069,0.37005773190471863,117.97354574436407,0.0
175,-1.0291568550534342,0.3876199825587884,117.79736457228948,0.0
176,-1.020528006027068,0.39640229341798594,117.6470588235294,1.0
177,-1.0224436861250885,0.3953917869269088,117.5104207488009,0.0
178,-1.0345629653669492,0.38441258740002887,117.3746653086044,0.0
179,-1.0557337531319357,0.364141006257778,117.23986606551051,0.0
180,-1.084264566737479,0.3360241042799176,117.10609591300255,0.0
181,-1.118163130171386,0.3021184738603161,116.97342709017728,0.0
182,-1.1552976711576595,0.2648703261659598,116.84193119725475,0.0
183,-1.1934926905643617,0.2268583556039275,116.7116792118766,0.0
184,-1.2306067784148966,0.1905201908852684,116.58274150617574,0.0
185,-1.264645097371172,0.15788390818855796,116.45518786459871,0.0
186,-1.293938324808451,0.13032885380616396,116.32908750246476,0.0
187,-1.3173845855145352,0.10840364029473554,116.2045090852461,0.0
188,-1.334712267532508,0.0917307970097472,116.081520748554,0.0
189,-1.346689712118239,0.07902390477516939,115.96019011881866,0.0
190,-1.3551937580273479,0.0682318868566557,115.84058433464868,0.0
191,-1.3630635273779939,0.05680649068423279,115.72277006886061,0.0
192,-1.3737122778164204,0.042065719480046254,115.60681355116682,0.0
193,-1.3905394938916422,0.021603310683307578,115.49278059151374,0.0
194,-1.416256166714819,-0.0063213764461337585,115.38073660406194,0.0
195,-1.4522820514261785,-0.04248205178014969,115.27074663180183,0.0
196,-1.4983740941992738,-0.08653001173977504,115.16287537179917,0.0
197,-1.5525945905782605,-0.13701614616654892,115.05718720106594,0.0
198,-1.6116389887262372,-0.19158788843963026,114.95374620305441,0.0
199,-1.6714445996661325,-0.2473236773819501,114.85261619477153,0.0
200,-1.727925565389264,-0.3011404339163243,114.75386075451433,0.0
201,-1.7776510066796105,-0.350196924142002,114.65754325022625,0.0
202,-1.818309845653047,-0.39222052500229404,114.56372686847726,0.0
203,-1.8488758272996988,-0.42570514900021916,114.47247464407116,0.0
204,-1.8694745747348613,-0.4499583295661166,114.38384949028497,0.0
205,-1.8810322096089969,-0.46500794499319176,114.29791422974711,0.0
206,-1.8848299917859697,-0.471406060708127,114.21473162596169,0.0
207,-1.882092956737347,-0.469983308087945,114.13436441548883,0.0
208,-1.87370808346213,-0.46160986512481744,114.05687534079186,0.0
209,-1.860113982319003,-0.44700974231138824,113.98232718376299,0.0
210,-1.841347962310613,-0.4266576379965321,113.91078279994275,0.0
211,-1.8171951597425848,-0.400767215582328,113.84230515344765,0.0
212,-1.787370282713921,-0.36936099724101024,113.77695735262407,0.0
213,-1.7516770170585647,-0.332398389329707,113.7148026864472,0.0
214,-1.710121975329837,-0.2899309607018092,113.65590466168561,0.0
215,-1.6629901697094112,-0.24225266734166648,113.60032704085442,0.0
216,-1.6109015387557757,-0.19001603074598006,113.54813388098117,0.0
217,-1.5548595554903735,-0.13429195829892057,113.49938957321092,0.0
218,-1.4962823909344842,-0.0765598658146671,113.45415888327912,0.0
219,-1.4369887850426095,-0.01862526213069124,113.41250699288238,0.0
220,-1.3791065535131528,0.03752677999542328,113.37449954197972,0.0
221,-1.3248870012891136,0.08992294180515875,113.34020267205965,0.0
222,-1.2764407977683918,0.13680953278467842,113.30968307040918,0.0
223,-1.2354482277517225,0.17684366033014995,113.28300801542514,0.0
224,-1.2029202694253713,0.20923486490675997,113.26024542300898,0.0
225,-1.1790800686722844,0.2338109205979345,113.24146389408997,0.0
226,-1.1633956208976597,0.25099343343830444,113.22673276332408,0.0
227,-1.154742574832333,0.26168422751311243,113.21612214901778,0.0
228,-1.1516395146151879,0.2670795188595419,113.20970300433049,0.0
229,-1.1524952342325399,0.26844265396134187,113.20754716981132,1.0
230,-1.1558333142566062,0.26687530289397016,113.25876737887948,0.0
231,-1.1604893557149625,0.2631297461822801,113.40922300506087,0.0
232,-1.1657851727198305,0.25750034329782423,113.65445848090161,0.0
233,-1.1716644862273484,0.24982027564833623,113.99042480431643,0.0
234,-1.1787421298703467,0.2395710866962205,114.41340782122904,0.0
235,-1.188202356911336,0.22608966715319437,114.91996303407855,0.0
236,-1.2015042000859022,0.2088340879052998,115.50685551235412,0.0
237,-1.2199145230674624,0.18765138439104817,116.17100371747213,0.0
238,-1.2439703819569998,0.16298266523225857,116.90942624872356,0.0
239,-1.273035429861037,0.13594793386718795,117.71919068056408,0.0
240,-1.3051255931125068,0.10827565231517403,118.59736380297271,0.0
241,-1.3371197491283888,0.08207674551907632,119.54096270321963,0.0
242,-1.3653529612525435,0.05950157976254242,120.54690624527151,0.0
243,-1.3864534025846427,0.04235113195691999,121.61196661751517,0.0
244,-1.3981843156449658,0.03173033250263497,122.73272073511785,0.0
245,-1.4000332384682896,0.027826423426549906,123.90550140426235,0.0
246,-1.3933631324154194,0.029868173944327003,125.12634828528024,0.0
247,-1.3810762911526562,0.03627941550696623,126.39095883341145,0.0
248,-1.3668905282873371,0.04499378165746742,127.69463955195143,0.0
249,-1.3544373302915194,0.05385934794205511,129.03225806451613,0.0
250,-1.3464322362263685,0.06104226192946654,130.39819670160477,0.0
251,-1.344132879691919,0.06534223648960166,131.786308500766,0.0
252,-1.347205707157801,0.06635807468372049,133.18987673693124,0.0
253,-1.3539993010855889,0.06448043088787617,134.6015793251974,0.0
254,-1.3621088816898788,0.06073064449872819,136.01345966527936,0.0
255,-1.3690475955030215,0.056497583793413485,137.41690571482556,0.0
256,-1.372833706195871,0.05324108558898363,138.80263927435138,0.0
257,-1.3723534129558221,0.05222807435381631,140.16071762287422,0.0
258,-1.3674423905339377,0.05434865906979276,141.48054974036108,0.0
259,-1.358714716936345,0.06003155853074317,142.75092936802974,0.0
260,-1.3472313529291036,0.06925004731940493,143.960087065861,0.0
261,-1.3341296631549515,0.0815892940842751,145.09576320371445,0.0
262,-1.3203297352630121,0.09633838843484611,146.14530344560387,0.0
263,-1.3063986661609912,0.11257612166261852,147.09577773827982,0.0
264,-1.2926003020495114,0.1292351243482978,147.93412308581335,0.0
265,-1.2790971502233803,0.14514783510403148,148.64730948369834,0.0
266,-1.2662178712187038,0.15909276625587315,149.22252731666032,0.0
267,-1.2546743578342974,0.16986491774706397,149.64739332946746,0.0
268,-1.2456209115093693,0.176387539827368,149.91017101471226,0.0
269,-1.240498042960761,0.1778654497130403,150.0,1.0
270,-1.2406816277501869,0.17395814724538505,149.94481532829153,0.0
271,-1.2470359765307137,0.16493151851619134,149.7817108579217,0.0
272,-1.2595150991092947,0.1517372239223146,149.51468739188743,0.0
273,-1.2769513914992587,0.13597370200105413,149.14813756412087,0.0
274,-1.2971191941996403,0.11970279134582809,148.68679013625078,0.0
275,-1.31708499650456,0.1051275642761253,148.13565360859934,0.0
276,-1.3337837892057764,0.09417282344251177,147.49996016685307,0.0
277,-1.3447099562320584,0.08804086930766475,146.78511088976057,0.0
278,-1.3485852186174698,0.08683315680910882,145.99662303025582,0.0
279,-1.345862125247753,0.08932748728388995,145.14008005847614,0.0
280,-1.3389375586299157,0.0929787045533421,144.2210850258452,0.0
281,-1.3319896381319793,0.09417151131606087,143.2452176798118,0.0
282,-1.3304163617596911,0.08870440593358694,142.21799563336506,0.0
283,-1.339940514287664,0.07243427957657071,141.14483977567144,0.0
284,-1.3655353477516463,0.04197313085642222,140.0310440028439,0.0
285,-1.4103919683810344,-0.004688960522670427,138.88174925286978,0.0
286,-1.475164772583883,-0.06775190365330516,137.70192174721993,0.0
287,-1.5576810548143687,-0.14544835142267384,136.4963352740801,0.0
288,-1.653193208798045,-0.23419281273572584,135.26955729433672,0.0
289,-1.7551178615679657,-0.329009886117999,134.02593861079308,0.0
290,-1.8560882001317118,-0.4241617060979471,132.76960631261494,0.0
291,-1.9490794914858995,-0.5138598997829932,131.50445968948029,0.0
292,-2.028368887965322,-0.5929376102050755,130.23416880196905,0.0
293,-2.090151523764754,-0.6573734617693203,128.96217539493867,0.0
294,-2.132732057461823,-0.704596551806943,127.69169584756114,0.0
295,-2.1563151696398384,-0.7335499157021206,126.42572586597998,0.0
296,-2.1625044583070454,-0.7445378268651431,125.16704664090669,0.0
297,-2.1536693151423605,-0.738919268300862,123.91823221177462,0.0
298,-2.132345910519106,-0.7187290426167788,122.68165780029344,0.0
299,-2.1008031387847064,-0.6863072915973745,121.45950889854267,0.0
300,-2.06083903749864,-0.6440005891824694,120.25379091938731,0.0
301,-2.0137986851177176,-0.5939697811815396,119.06633923941547,0.0
302,-1.9607451149813808,-0.5381094392176303,117.89882948633098,0.0
303,-1.9026874500534257,-0.4780585517815058,116.75278794344115,0.0
304,-1.840777118162354,-0.4152668154093402,115.62960196332233,0.0
305,-1.776411943557571,-0.3510772168068075,114.5305303007614,0.0
306,-1.7112242229759769,-0.28679193592839425,113.45671329157686,0.0
307,-1.6469635179733115,-0.22370115882240074,112.40918281888612,0.0
308,-1.5853140235290293,-0.16306856573021522,111.38887202182465,0.0
309,-1.5277047325231616,-0.1060790535654273,110.39662471368896,0.0
310,-1.4751698177942514,-0.05376129806189461,109.43320448704357,0.0
311,-1.428292952139251,-0.006899740413836786,108.4993034926055,0.0
312,-1.3872316987331235,0.03405106727987853,107.59555088679973,0.0
313,-1.351785645616761,0.06903976046275034,106.72252094988549,0.0
314,-1.3214609913908824,0.09847116272299353,105.88074088260561,0.0
315,-1.2954979846397365,0.12323113801745361,105.0706982945257,0.0
316,-1.2728562216675143,0.14467397775244742,104.29284840172764,0.0
317,-1.2521818038488934,0.16456165533941416,103.5476209554135,0.0
318,-1.2317981718798774,0.18494525236232093,102.83542692637351,0.0
319,-1.209763558931473,0.2079839467321008,102.15666497327975,0.0
320,-1.184023031597587,0.23570671159410145,101.51172772548588,0.0
321,-1.1526575807136223,0.26973519846153926,100.90100791354065,0.0
322,-1.114204805385758,0.3110004867933634,100.32490438305216,0.0
323,-1.06800254407087,0.3594977849850747,99.7838280299636,0.0
324,-1.014491977693363,0.4141279660250615,99.27820769781013,0.0
325,-0.9554109783369774,0.4726701247025382,98.80849608021244,0.0
326,-0.8938126337677129,0.5319140777648848,98.37517567482413,0.0
327,-0.8338610741426921,0.5879572219359862,97.97876483828,0.0
328,-0.780390844732343,0.6366402376765755,97.61982399550841,0.0
329,-0.7382667023425915,0.6740665732321994,97.29896206118367,0.0
330,-0.7116384150240882,0.6971281113195592,97.01684313623858,0.0
331,-0.7032317202434359,0.7039498640331795,96.7741935483871,1.0
332,-0.7138320914560371,0.6941736049528261,96.55563062516265,0.0
333,-0.7420906395462707,0.6690241445725481,96.34504575569635,0.0
334,-0.7847144546056677,0.6311386687926033,96.14213345791019,0.0
335,-0.8370145738748689,0.5841820853685333,95.94659587312623,0.0
336,-0.8936993346147645,0.5323108553764665,95.75814231891047,0.0
337,-0.9497443569028317,0.47957594129721803,95.5764888673754,0.0
338,-1.0011590754409123,0.4293663630554959,95.40135794746848,0.0
339,-1.0455051707912475,0.3839863542566999,95.23247796989078,0.0
340,-1.0820905223146797,0.34443339110696425,95.06958297339598,0.0
341,-1.1118395560656906,0.31040704122668306,94.91241229131933,0.0
342,-1.1369034403000702,0.2805372363704011,94.76071023727677,0.0
343,-1.1601079512858448,0.25278298625844553,94.61422580905726,0.0
344,-1.1843437334885136,0.2249251194113038,94.4727124098095,0.0
345,-1.2119940197559138,0.19506338336074938,94.33592758569388,0.0
346,-1.2444800663235482,0.16203045482313838,94.20363277923715,0.0
347,-1.2819883017386133,0.1256518487328544,94.07559309768689,0.0
348,-1.3234212288116238,0.08680809057777164,93.95157709571849,0.0
349,-1.3665818295141425,0.047289184807640106,93.83135657189905,0.0
350,-1.4085615489844987,0.009466089520137472,93.7147063783596,0.0
351,-1.4462655990099544,-0.02416560799545797,93.60140424317017,0.0
352,-1.47698724421184,-0.0514927845601614,93.49123060495299,0.0
353,-1.4989386902863544,-0.07125559709447751,93.38396845930511,0.0
354,-1.5116566549126118,-0.08339831885121904,93.27940321663567,0.0
355,-1.5162202106420801,-0.08923296883895887,93.17732257105429,0.0
356,-1.5152434605721166,-0.0913761637472624,93.07751637997431,0.0
357,-1.512633374976943,-0.09345496042485274,92.97977655412097,0.0
358,-1.5131302065191543,-0.09961570569499359,92.88389695765784,0.0
359,-1.5216719477638845,-0.11390541017895936,92.78967331816496,0.0
360,-1.5426473353956067,-0.13962192529692413,92.6969031462221,0.0
361,-1.5791287869409585,-0.17874170235714826,92.60538566436631,0.0
362,-1.6322072454016332,-0.23152813275307504,92.51492174520874,0.0
363,-1.7005731191889348,-0.29639808588371785,92.4253138585072,0.0
364,-1.7804797479637662,-0.3700816786511135,92.33636602700413,0.0
365,-1.8661700168126343,-0.4480570868277034,92.24788379084686,0.0
366,-1.9507435507909519,-0.5251884556954887,92.15967418041696,0.0
367,-2.027317039436828,-0.596452506822096,92.0715456973998,0.0
368,-2.0902264738356,-0.6576189670554939,91.9833083039316,0.0
369,-2.1359794864206254,-0.7057579316465591,91.89477341966371,0.0
370,-2.1637116127425373,-0.7394835827394703,91.805753926586,0.0
371,-2.1750257465163148,-0.7589008854168446,91.71606418145109,0.0
372,-2.173264161925696,-0.7652866885454911,91.62552003564159,0.0
373,-2.1624239813504094,-0.7605932738833853,91.53393886231856,0.0
374,-2.146026045632178,-0.7468968553148725,91.44113959068818,0.0
375,-2.12624910233407,-0.7259176573236303,91.34694274721704,0.0
376,-2.1035455326772525,-0.6987119465517537,91.25117050362279,0.0
377,-2.076797252878294,-0.6655877331648958,91.1536467314587,0.0
378,-2.0439083728575436,-0.6262383411049222,91.05419706310443,0.0
379,-2.002618706125016,-0.5800367497354901,90.95264895896574,0.0
380,-1.951288597259182,-0.5264009023926514,90.84883178067709,0.0
381,-1.8894486778894595,-0.4651325460680862,90.7425768700907,0.0
382,-1.8180022887633633,-0.3966489934351505,90.63371763382521,0.0
383,-1.739077553505255,-0.3220616561066967,90.5220896331344,0.0
384,-1.655616959835156,-0.24309675468110878,90.40753067884617,0.0
385,-1.5708428093401503,-0.1618912299281869,90.28988093110723,0.0
386,-1.4877416263927539,-0.08072192081035207,90.16898300365835,0.0
387,-1.4086794510416332,-0.0017341537753411684,90.04468207234943,0.0
388,-1.3352101291798815,0.07327264391849198,89.9168259875918,0.0
389,-1.2680855561343716,0.1429655333721827,89.78526539043126,0.0
390,-1.2074299651956504,0.20649461423798154,89.64985383191069,0.0
391,-1.1530066264479892,0.2634205309623548,89.51044789537916,0.0
392,-1.104491848280572,0.3135862271885817,89.36690732138973,0.0
393,-1.0616827470046155,0.3569744134552796,89.21909513481609,0.0
394,-1.0245982743725826,0.3935898682799905,89.06687777380456,0.0
395,-0.9934736300820854,0.4233948149187178,88.91012522016705,0.0
396,-0.968678739795235,0.44630965788319715,88.74871113080786,0.0
397,-0.9506007883307207,0.46227418996273667,88.58251296976788,0.0
398,-0.9395205757530025,0.4713494173445142,88.41141214045803,0.0
399,-0.93549511851357,0.4738299231418484,88.23529411764706,1.0
400,-0.9382489770106658,0.4703327355259564,88.04629691032233,0.0
401,-0.9470819216837378,0.4618316265257164,87.83708143126887,0.0
402,-0.9608173285030353,0.44961543456469155,87.60833475952319,0.0
403,-0.97783163898376,0.43516421906824837,87.36076060917893,0.0
404,-0.9962052594464882,0.4199555310369394,87.09507663521921,0.0
405,-1.0140097010342057,0.4052313860247511,86.81201179847223,0.0
406,-1.029696890240683,0.39177047059452974,86.51230380292354,0.0
407,-1.0425011215793967,0.37971566310653904,86.19669661722321,0.0
408,-1.0527283541808834,0.36850144953997666,85.86593809079933,0.0
409,-1.0618151803966556,0.35690913566707966,85.52077767356025,0.0
410,-1.0720977618660403,0.34325282948125396,85.1619642467486,0.0
411,-1.086322025135621,0.32567153989034897,84.7902440711229,0.0
412,-1.107014543597278,0.30247914600255427,84.40635885729738,0.0
413,-1.1358816662789692,0.2725103755962099,84.01104396178584,0.0
414,-1.1733931976615615,0.23540059918901768,83.6050267110756,0.0
415,-1.2186434693683128,0.1917498859526288,83.18902485491776,0.0
416,-1.2694948143452793,0.14314368577634567,82.76374514896192,0.0
417,-1.3229299612555376,0.09202797057676004,82.32988206589502,0.0
418,-1.375496642658987,0.04145983968847411,81.88811663336674,0.0
419,-1.423730678142256,-0.005228761594144704,81.43911539620004,0.0
420,-1.4644867259265444,-0.04480812083369404,80.98352949969406,0.0
421,-1.495166779985487,-0.07452155781320235,80.52199389022803,0.0
422,-1.5138847759302567,-0.09240715817633795,80.05512662886377,0.0
423,-1.5196167494522985,-0.09753495963961288,79.58352831322215,0.0
424,-1.5123560537831575,-0.09013309778269415,79.10778160256386,0.0
425,-1.4932425950076438,-0.07158695100844242,78.6284508407424,0.0
426,-1.4645960109534353,-0.04430788884226523,78.14608177150083,0.0
427,-1.429779646424062,-0.011482930672400832,77.66120134045767,0.0
428,-1.3928596330490652,0.02326767900770442,77.17431757805983,0.0
429,-1.3580869827596702,0.05628387667921383,76.68591955776648,0.0
430,-1.3292958858469865,0.08425998881481937,76.19647742376519,0.0
431,-1.3093529997711062,0.10458848829415912,75.70644248259856,0.0
432,-1.2997915588635083,0.11561017206657499,75.21624735319656,0.0
433,-1.3007155566686752,0.11674360939939381,74.72630616995754,0.0
434,-1.3109772854769153,0.10848676563329054,74.23701483369489,0.0
435,-1.3285474395373353,0.09230282111524246,73.74875130546437,0.0
436,-1.3509460650578622,0.0704158378601444,73.26187593850116,0.0
437,-1.3756061953092404,0.04554764359167436,72.77673184372395,0.0
438,-1.4000959564126871,0.020625607078474217,72.29364528450225,0.0
439,-1.422202167995456,-0.001515035889756003,71.81292609662789,0.0
440,-1.439943145798023,-0.018416700213337897,71.33486812968025,0.0
441,-1.451603206585887,-0.028257727968074298,70.8597497062241,0.0
442,-1.455858682860422,-0.030066061005690647,70.38783409552842,0.0
443,-1.4520082127717453,-0.023865553161110928,69.91936999873802,0.0
444,-1.4402545581083976,-0.010727697473529876,69.45459204267098,0.0
445,-1.4219376301077662,0.007297204343956518,68.9937212796481,0.0
446,-1.3996054957965716,0.02738491529236936,68.5369656909862,0.0
447,-1.3768355589248584,0.0462734120424909,68.08452069200526,0.0
448,-1.3577756998384591,0.06069873815740335,67.63656963660613,0.0
449,-1.3464531606180827,0.0678720712163407,67.19328431967564,0.0
450,-1.345980088418778,0.06592043007052857,66.75482547576198,0.0
451,-1.357844227420026,0.05420923270065076,66.32134327264225,0.0
452,-1.3814834427225686,0.03347926169986317,65.8929777985704,0.0
453,-1.414286413473027,0.005762267025571359,65.46985954215064,0.0
454,-1.452047881370616,-0.02591787847330458,65.05210986392714,0.0
455,-1.4897733419634052,-0.05800776133054977,64.63984145891727,0.0
456,-1.5226265174554108,-0.08696590993862603,64.23315880944124,0.0
457,-1.5467822923426184,-0.10978242673881791,63.83215862771739,0.0
458,-1.5599949729171252,-0.12438221992485934,63.436930287799825,0.0
459,-1.5617908118049537,-0.12984386957437127,63.04755624653294,0.0
460,-1.5533022403612506,-0.12640648965146822,62.6641124532874,0.0
461,-1.5368417539024357,-0.11528147793613862,62.28666874832428,0.0
462,-1.5153478563251261,-0.09832490751749756,61.91528924970763,0.0
463,-1.4918273814303904,-0.07765157395375094,61.550032728754005,0.0
464,-1.4688858143104366,-0.055278825091406816,61.190952974067045,0.0
465,-1.448401446796481,-0.032876573254091226,60.838099144260795,0.0
466,-1.4313748100464392,-0.011672173024062642,60.49151610952297,0.0
467,-1.4179725605490505,0.007479213353578113,60.15124478221411,0.0
468,-1.4077725828894985,0.02388903532860502,59.81732243673603,0.0
469,-1.4001887199224665,0.036760212776784186,59.489783018938155,0.0
470,-1.3950034848265676,0.044930003038443696,59.16865744535973,0.0
471,-1.3928783243989573,0.0467208103147182,58.85397389263254,0.0
472,-1.3956721314888845,0.039969093299074575,58.545758077392456,0.0
473,-1.4064098094946527,0.022262820966339452,58.24403352706724,0.0
474,-1.428817762365855,-0.00863424822403222,57.94882184192675,0.0
475,-1.466469176276098,-0.05424609197552038,57.66014294879603,0.0
476,-1.5217202310089084,-0.11485046681325423,57.37801534684539,0.0
477,-1.5947183090678017,-0.189077605322566,57.10245634588297,0.0
478,-1.682782638940313,-0.27375592922986214,56.83348229758514,0.0
479,-1.7803811562334635,-0.36407338069119827,56.571108820108705,0.0
480,-1.879773756048643,-0.4540566050757254,56.31535101653697,0.0
481,-1.972208702749886,-0.5372987451801186,56.06622368761812,0.0
482,-2.0494037062752137,-0.6078076991814256,55.82374153926114,0.0
483,-2.104964075764298,-0.6608154032454808,55.58791938526048,0.0
484,-2.135409246515478,-0.6933932931794251,55.35877234572597,0.0
485,-2.140585702107441,-0.7047587756605099,55.136316041701285,0.0
486,-2.1234031376667524,-0.6962226701946163,54.92056678645958,0.0
487,-2.0889946917535758,-0.6708023689566565,54.711541773971405,0.0
488,-2.043528271847925,-0.6325921692039552,54.50925926504755,0.0
489,-1.9929563275538937,-0.5860257719541396,54.313738771666706,0.0
490,-1.9419778824601002,-0.5351775311785772,54.12500124000651,0.0
491,-1.8934109556819585,-0.48322805086652243,53.94306923270656,0.0
492,-1.8480612057622396,-0.4321733450632276,53.76796711090254,0.0
493,-1.8050532273944018,-0.38279771263888734,53.59972121658318,0.0
494,-1.7624893942755975,-0.3348734741377226,53.43836005583576,0.0
495,-1.7182354985908381,-0.2875087612552585,53.28391448356167,0.0
496,-1.6706161688942556,-0.2395457841411801,53.136417890260915,0.0
497,-1.6188444234423327,-0.18991805793711566,52.995906391505436,0.0
498,-1.5631033886557566,-0.13790119225390274,52.86241902074196,0.0
499,-1.5043166266550207,-0.08322872906254628,52.735997926092296,0.0
500,-1.44374211887688,-0.026081273545198375,52.616688571844996,0.0
501,-1.3825641883309718,0.03301546116768686,52.5045399453653,0.0
502,-1.3216262923120465,0.09333529788858533,52.39960477018397,0.0
503,-1.2613680859716556,0.15409260865031743,52.30193972606535,0.0
504,-1.201942456481144,0.21454635632621766,52.2116056768972,0.0
505,-1.143427410458215,0.2740515235645714,52.1286679072934,0.0
506,-1.0860306027580962,0.33205869056344733,52.05319636885272,0.0
507,-1.0302086695495167,0.38807366397262066,51.985265937076086,0.0
508,-0.9766732661181489,0.44159384994784356,51.92495668000905,0.0
509,-0.9263077854338266,0.49203792152704207,51.87235413974784,0.0
510,-0.8800518318873978,0.5386829425622116,51.82754962802663,0.0
511,-0.8388137798810562,0.5806209437583904,51.790640537190896,0.0
512,-0.8034484360521454,0.6167461038200454,51.7617306679583,0.0
513,-0.7748002080366532,0.6457835266630235,51.740930575475254,0.0
514,-0.7537774179385359,0.6663691859367481,51.72835793529513,0.0
515,-0.7414019412043147,0.677185747491078,51.724137931034484,1.0
516,-0.7387767491100002,0.6771494646489606,51.7346722881938,0.0
517,-0.7469339193847139,0.6656298360173237,51.76591526018316,0.0
518,-0.7665633055334038,0.6426690207115834,51.817361999029636,0.0
519,-0.7976674968871353,0.6091565094750995,51.888551458536575,0.0
520,-0.8392287284013049,0.5669109951069703,51.97906259309395,0.0
521,-0.8889952297647419,0.5186292837382546,52.08851085702213,0.0
522,-0.9434886540826587,0.46768226154129355,52.216544964613846,0.0
523,-0.9982964298123284,0.41776767083363564,52.36284387538811,0.0
524,-1.0486464579251895,0.3724626599461929,52.52711397278763,0.0
525,-1.0901796570578732,0.33474751020293525,52.70908640773102,0.0
526,-1.119760902507362,0.30658734176429014,52.90851458115304,0.0
527,-1.1361277585866068,0.2886551296120027,53.12517174199731,0.0
528,-1.140191163225556,0.2802557098088125,53.358848679124186,0.0
529,-1.1348793139843154,0.2794707815333843,53.609351487309816,0.0
530,-1.1245384679628958,0.28349820336430037,53.8764993889852,0.0
531,-1.114033561518832,0.2891167625621197,54.16012259463155,0.0
532,-1.1077809550075368,0.29318110205660564,54.46006018584463,0.0
533,-1.108961521739097,0.29304783570733783,54.7761580060352,0.0
534,-1.1190999781803335,0.28685423471348,55.10826654457103,0.0
535,-1.1380814856342594,0.2736098876630424,55.456238800915315,0.0
536,-1.16455156108628,0.2531090458399081,55.819928115997,0.0
537,-1.1965497602201682,0.2257144635643597,56.199185958686236,0.0
538,-1.232184171862081,0.19209125691895543,56.59385965586277,0.0
539,-1.2701652428747308,0.15297475497322457,57.003790055180055,0.0
540,-1.3100713850542676,0.10903862583545332,57.42880911026474,0.0
541,-1.3522951721944296,0.06089392570051008,57.868737378773794,0.0
542,-1.39769786878072,0.009205979610181797,58.32338142448322,0.0
543,-1.447067949458833,-0.04512389301593775,58.792531115428,0.0
544,-1.5005296918180386,-0.10078976977387094,59.27595681108002,0.0
545,-1.5570754033009557,-0.15600623104802858,59.77340643266525,0.0
546,-1.6143879565785302,-0.20858630989065702,60.28460241201323,0.0
547,-1.6690645824286277,-0.2561904586734521,60.80923851583196,0.0
548,-1.7172462081529538,-0.29671442254694835,61.34697654403895,0.0
549,-1.755524139498466,-0.3287376574491823,61.89744290278925,0.0
550,-1.781886358550493,-0.35192481941841525,62.46022505515417,0.0
551,-1.7964272260995537,-0.3672700990493688,63.03486785505385,0.0
552,-1.8015965652393438,-0.37710031931373766,63.620869773063845,0.0
553,-1.8018880675862166,-0.38480261772080887,64.21767902612899,0.0
554,-1.8030180349249587,-0.39430454760250205,64.82468962705414,0.0
555,-1.8107763471751919,-0.40939343065478584,65.4412373739201,0.0
556,-1.8298096324751427,-0.4330031545594096,66.06659580430929,0.0
557,-1.8626088103535965,-0.4666100173908082,66.69997214442346,0.0
558,-1.908922392162805,-0.5098612217462135,67.34050328882824,0.0
559,-1.9657175266026148,-0.5605143418268774,67.98725185264468,0.0
560,-2.027685960923659,-0.6147040038779874,68.63920234448803,0.0
561,-2.0881711355609576,-0.6674872133845515,69.29525751526701,0.0
562,-2.1403053738650986,-0.7135654107088213,69.95423494501958,0.0
563,-2.1781144692318763,-0.7480503922564303,70.61486393716022,0.0
564,-2.197376654417182,-0.7671380915488858,71.27578279670543,0.0
565,-2.1961003550581584,-0.768577894920098,71.93553657605008,0.0
566,-2.1745823162506706,-0.7518690843538656,72.59257537847381,0.0
567,-2.1350941872914686,-0.7181699475466683,73.24525331550984,0.0
568,-2.0813013227582324,-0.6699577938252737,73.89182821932131,0.0
569,-2.0175392699505474,-0.6105196326427359,74.53046221497335,0.0
570,-1.948071841491212,-0.5433767905177789,75.15922325960986,0.0
571,-1.876443618514827,-0.4717494456919853,75.77608775565479,0.0
572,-1.8050250886141521,-0.3981501890890901,76.37894434286676,0.0
573,-1.7348247941909245,-0.32416398241259087,76.96559896897817,0.0
574,-1.6655998375833174,-0.2504323934893794,77.53378133036368,0.0
575,-1.5962326160432994,-0.17682087740328112,78.08115276235391,0.0
576,-1.5252738809763806,-0.10271670816044454,78.60531564314674,0.0
577,-1.4515084328304317,-0.0273874123920477,79.10382435555843,0.0
578,-1.3744026009840382,0.04967258144805892,79.57419782700084,0.0
579,-1.2943419949823232,0.1284673368763909,80.01393364011116,0.0
580,-1.2126397085256686,0.20833545422615185,80.42052367460043,0.0
581,-1.131357531585662,0.2879103441152363,80.79147120552652,0.0
582,-1.0530165591197573,0.3651960313463633,81.12430934493958,0.0
583,-0.9802789503331446,0.43773465123891986,81.41662067351908,0.0
584,-0.9156697407829028,0.5028354237329605,81.66605786746332,0.0
585,-0.8613841070229558,0.5578360385110367,81.87036508475202,0.0
586,-0.81919276107175,0.6003726970221475,82.02739983540806,0.0
587,-0.7904188325808433,0.6286404044419908,82.13515502409287,0.0
588,-0.7759257127016728,0.6416271517209654,82.19178082191782,1.0
589,-0.7760467217181948,0.6393031524990075,82.2216542520356,0.0
590,-0.790418644458943,0.6227408062736317,82.25032020561045,0.0
591,-0.8177462760408323,0.5941363917260505,82.27781163924189,0.0
592,-0.855594589716503,0.5567054564412203,82.30416170541605,0.0
593,-0.900340294493073,0.514434259019297,82.32940374308906,0.0
594,-0.9473910405025937,0.47169038697767757,82.35357126849969,0.0
595,-0.9917034015746641,0.43272395749583786,82.37669796621728,0.0
596,-1.0285306382747408,0.4011203098025952,82.39881768043041,0.0
597,-1.0542467319163702,0.3792877496558711,82.41996440648181,0.0
598,-1.0670534633740831,0.36807228077821086,82.44017228265454,0.0
599,-1.06739388289538,0.3665809034020794,82.45947558221397,0.0
600,-1.0579618872156742,0.3722659866986531,82.47790870571082,0.0
601,-1.043292406459962,0.3812800981040304,82.49550617354866,0.0
602,-1.0290099084454936,0.3890617344747201,82.51230261882037,0.0
603,-1.0208774029547396,0.3910674808236315,82.52833278041733,0.0
604,-1.023812219304451,0.3835344170607633,82.54363149641458,0.0
605,-1.0410260090172787,0.3641447447467996,82.5582336977354,0.0
606,-1.0734210377722362,0.33247548624211787,82.57217440209853,0.0
607,-1.1193427267115656,0.29014839962856553,82.58548870825042,0.0
608,-1.174746886859772,0.24064374773336972,82.59821179048573,0.0
609,-1.233781940571945,0.18879804884719167,82.61037889345779,0.0
610,-1.2897128759060599,0.1400605578096712,82.6220253272821,0.0
611,-1.3360399170628772,0.09962615057024338,82.63318646293425,0.0
612,-1.3676139810794776,0.07158552951527625,82.64389772794442,0.0
613,-1.3815420073355944,0.058232694622635195,82.65419460239036,0.0
614,-1.377714070757905,0.05964435420566033,82.66411261519012,0.0
615,-1.3588612999721879,0.0736008543083024,82.67368734069616,0.0
616,-1.3301481770381671,0.09586144184988846,82.68295439559233,0.0
617,-1.2983901011193233,0.12074840746301033,82.69194943609439,0.0
618,-1.2710466983631132,0.14194501778491037,82.700708155456,0.0
619,-1.2551632528249062,0.1533793572656079,82.70926628178023,0.0
620,-1.2564193471616754,0.1500552024291283,82.71765957613832,0.0
621,-1.2784074806819081,0.12870294750566563,82.72592383099622,0.0
622,-1.3222203340982661,0.08815579747516533,82.73409486894947,0.0
623,-1.3863846651280012,0.029403334440108495,82.7422085417676,0.0
624,-1.4671449982622933,-0.044671533174691136,82.75030072974843,0.0
625,-1.5590655652345924,-0.12981402068912817,82.75840734138305,0.0
626,-1.6558768557159818,-0.2210772306202961,82.76656431333215,0.0
627,-1.7514434717513532,-0.3135360099057094,82.77480761071433,0.0
628,-1.8406851348748634,-0.4029091385723587,82.78317322770681,0.0
629,-1.920264189390392,-0.4859862291830358,82.79169718845982,0.0
630,-1.9888804693557494,-0.5607980549402742,82.80041554832447,0.0
631,-2.0470937313405315,-0.6265235228849539,82.80936439539568,0.0
632,-2.0967103922310057,-0.683181781517725,82.81857985237056,0.0
633,-2.1398924289937784,-0.7312016183902921,82.82809807872285,0.0
634,-2.1782319207699152,-0.7709820308775434,82.83795527319492,0.0
635,-2.212052414479336,-0.8025522637739047,82.8481876766078,0.0
636,-2.240136926146049,-0.8254080925726434,82.8588315749907,0.0
637,-2.259957830517179,-0.8385518683259254,82.86992330303114,0.0
638,-2.268333990796338,-0.8407098129798317,82.88149924784673,0.0
639,-2.2623120660951774,-0.8306555472783298,82.89359585308067,0.0
640,-2.240002834999445,-0.8075454018580333,82.90624962332193,0.0
641,-2.2011219086520377,-0.7711742182959588,82.91949712885251,0.0
642,-2.1470831116294775,-0.7220880202833441,82.93337501072295,0.0
643,-2.080639808299629,-0.6615332190009291,82.94791998615933,0.0
644,-2.0052129587334906,-0.5912679719027389,82.96316885430275,0.0
645,-1.924133211968143,-0.5132969204173037,82.97915850228496,0.0
646,-1.8400291857983628,-0.4296065036486692,82.99592591164219,0.0
647,-1.7545219960329919,-0.3419713045105942,83.0135081650706,0.0
648,-1.6682731689118753,-0.25187599896728696,83.03194245352643,0.0
649,-1.5813241459030545,-0.1605610869446913,83.05126608367397,0.0
650,-1.4935934984153103,-0.06916449468684471,83.07151648568599,0.0
651,-1.4053745331980658,0.02109487392532089,83.09273122139997,0.0
652,-1.3176958932032654,0.10875530250887289,83.11494799283481,0.0
653,-1.2324575607205837,0.19202793148571723,83.13820465107254,0.0
654,-1.1523186913073296,0.2688235374685077,83.16253920551056,0.0
655,-1.080375744565615,0.33689418028991375,83.18798983348914,0.0
656,-1.0197140808282525,0.394063918657466,83.21459489030049,0.0
657,-0.9729335874328209,0.43850074875967643,83.24239291958526,0.0
658,-0.9417396391559278,0.4689722421909784,83.27142266412328,0.0
659,-0.9266660333115809,0.48503167003602493,83.30172307702531,0.0
660,-0.926970483494795,0.4870979983470559,83.33333333333334,1.0
661,-0.9407220871365888,0.4764175943501388,83.38562886160483,0.0
662,-0.965078344216197,0.45492167906750564,83.47706096810948,0.0
663,-0.9967164855323996,0.4250150278155815,83.60635597743536,0.0
664,-1.0323386084049964,0.3893427620309934,83.77232798936464,0.0
665,-1.0691284492113657,0.3505803523790761,83.9738674386792,0.0
666,-1.1050275519601755,0.3112776846288936,84.20993045670492,0.0
667,-1.1387419658304583,0.27376546628935206,84.47952890409005,0.0
668,-1.1694845486830254,0.24010850153566607,84.78172096065265,0.0
669,-1.1965694061103773,0.21207349515427332,85.11560217216223,0.0
670,-1.2190531805653264,0.19107541740124317,85.48029686608425,0.0
671,-1.2356186817293473,0.17807827353674666,85.87494985897612,0.0
672,-1.2448064038354083,0.17345018554519237,86.29871838769834,0.0
673,-1.245548338843626,0.17680108416031293,86.75076420516332,0.0
674,-1.2378104651897115,0.18685389467116048,87.23024578922744,0.0
675,-1.223076292653106,0.2014081069333571,87.7363106207463,0.0
676,-1.20444463008584,0.21744386957585948,88.2680874939513,0.0
677,-1.1862560076255417,0.23138724089081025,88.82467882933571,0.0
678,-1.173339221566789,0.2395204187390465,89.40515296631972,0.0
679,-1.1701013558827855,0.2384848590849573,90.00853642023895,0.0
680,-1.179717310906467,0.22579960243479186,90.63380609580372,0.0
681,-1.2036065368411832,0.20030763343971392,91.2798814572261,0.0
682,-1.241260494659776,0.16247065226182061,91.94561666382015,0.0
683,-1.2903679791749658,0.11445409971905673,92.62979268913922,0.0
684,-1.3471260616492429,0.059974403416673344,93.33110945170095,0.0
685,-1.4066360530476005,0.003913939296925226,94.04817799612428,0.0
686,-1.4633434100992277,-0.048257901635515715,94.77951277509142,0.0
687,-1.5115424727894908,-0.09118970280662686,95.52352409495266,0.0
688,-1.5459877342775497,-0.12038772197912011,96.27851080097597,0.0
689,-1.5626139217426884,-0.13288452367578835,97.04265329212005,0.0
690,-1.5592833574190206,-0.1277293520805015,97.81400696964693,0.0
691,-1.5363940969540162,-0.10620840460293246,98.59049623868438,0.0
692,-1.4971450760504144,-0.0717369541083248,99.36990919673589,0.0
693,-1.4472951341724158,-0.029415173284787738,100.14989315776629,0.0
694,-1.3943681372774943,0.014701677087220463,100.92795117443791,0.0
695,-1.346410785669871,0.054511649622934734,101.70143973381178,0.0
696,-1.3105494634018389,0.08480502733351601,102.46756781275516,0.0
697,-1.291667576758547,0.10207102240104593,103.22339748771205,0.0
698,-1.2915082431022158,0.10502693346761248,103.96584629862153,0.0
699,-1.3084048205078722,0.09477223381334991,104.69169156776849,0.0
700,-1.3376881808314365,0.07453915022458715,105.39757687034009,0.0
701,-1.3726623765781323,0.04908724832088574,106.08002084354132,0.0
702,-1.4059215669602843,0.02385615775277867,106.73542850443002,0.0
703,-1.430725299489151,0.004033818289367552,107.3601052223704,0.0
704,-1.4421606896843793,-0.006291081156996239,107.95027345952619,0.0
705,-1.4378865545525141,-0.004745832441843054,108.50209235165917,0.0
706,-1.4183543825148597,0.00903747565545479,109.01168015148737,0.0
707,-1.3865097418181254,0.03349234850180073,109.4751394981453,0.0
708,-1.3470739472951436,0.06551075012047522,109.888585409445,0.0
709,-1.3055744000008611,0.10106501056277215,110.24817581969481,0.0
710,-1.2673244734411149,0.13593033787153366,110.5501444063363,0.0
711,-1.2365470752848493,0.16637144354469063,110.7908353656778,0.0
712,-1.2157923500217904,0.18967518410742445,110.96673971411631,0.0
713,-1.2057287309821823,0.20445023498272352,111.07453260949997,0.0
714,-1.2053045048269382,0.21066528273263496,111.1111111111111,1.0
715,-1.2122041967881467,0.20944824983350246,111.10172559479392,0.0
716,-1.2234758924845572,0.2027107339764132,111.07385537619166,0.0
717,-1.2361880338412359,0.19268703935521708,111.02794315292587,0.0
718,-1.2479851599151313,0.18148275997704585,110.96444807879045,0.0
719,-1.2574460914087389,0.17071490606309617,110.8838443283015,0.0
720,-1.2641984108025177,0.16129864634159158,110.78661966452458,0.0
721,-1.2687998089258394,0.15340168664686377,110.67327401673754,0.0
722,-1.2724462058702257,0.14655349514713928,110.54431807411443,0.0
723,-1.2765954515533098,0.1398693678705803,110.4002719012144,0.0
724,-1.2825980636372587,0.13233286193061553,110.24166358063769,0.0
725,-1.2914068257843878,0.12307585004396249,110.06902788777074,0.0
726,-1.3034055938756937,0.11160226926848893,109.88290500209234,0.0
727,-1.318365889271086,0.09791662911093908,109.6838392590564,0.0
728,-1.33551647371462,0.08253775344390966,109.47237794610838,0.0
729,-1.35369968109024,0.06639840192414909,109.24907014593813,0.0
730,-1.3715865646211196,0.05064944232468485,109.01446562962286,0.0
731,-1.3879246915070134,0.03640122382722863,108.7691138018773,0.0
732,-1.401792157561605,0.02444375653598671,108.51356270020385,0.0
733,-1.4128283947721552,0.014990912312134702,108.24835804932913,0.0
734,-1.4214104235571352,0.0074921682089196945,107.9740423719236,0.0
735,-1.4287461916701598,0.0005486355778985402,107.69115415623605,0.0
736,-1.436864272554339,-0.008041378861432871,107.40022708092776,0.0
737,-1.4484876796204316,-0.021097626037528974,107.10178929707199,0.0
738,-1.4667863787409745,-0.0417429387711646,106.79636276698686,0.0
739,-1.4950110120519484,-0.0729868875014828,106.4844626592994,0.0
740,-1.536025883614414,-0.11725566408228846,106.16659679939187,0.0
741,-1.5917859701764074,-0.1759303204616444,105.84326517416133,0.0
742,-1.662835060678926,-0.2489626508034849,105.51495948982725,0.0
743,-1.7479255979352935,-0.33463523579569465,105.1821627813512,0.0
744,-1.8438593922117554,-0.4295183049961628,104.8453490718845,0.0
745,-1.9456147315599435,-0.5286519580488628,104.50498308053535,0.0
746,-2.0467670618397813,-0.6259509022810118,104.16151997664338,0.0
747,-2.1401476865883664,-0.7147949129098549,103.81540517866777,0.0
748,-2.218640602112566,-0.7887372367590509,103.46707419573215,0.0
749,-2.276003726055293,-0.842240445881488,103.11695250982406,0.0
750,-2.3076121042996887,-0.8713389411869551,102.76545549662022,0.0
751,-2.311040319430139,-0.8741317493806067,102.41298838289528,0.0
752,-2.2864153414309425,-0.8510286861665785,102.05994623847484,0.0
753,-2.2364795070574544,-0.8047054205551939,101.70671400070786,0.0
754,-2.166318705473376,-0.7397643859473935,101.35366652946016,0.0
755,-2.0827468539167375,-0.6621428931364405,101.00116869066835,0.0
756,-1.9933979818858651,-0.578350007697459,100.6495754665388,0.0
757,-1.9056505121939615,-0.4946424043017842,100.29923209053129,0.0
758,-1.8255705918311391,-0.41626050515732244,99.95047420532754,0.0
759,-1.7570838167827605,-0.3468367030416366,99.6036280420527,0.0
760,-1.7015478664196209,-0.2880584175775222,99.25901061908898,0.0
761,-1.6578061236690718,-0.23962548129472278,98.9169299588979,0.0
762,-1.6226840584512994,-0.19949250128228335,98.57768532134588,0.0
763,-1.5917877232177646,-0.16434218566629205,98.24156745211135,0.0
764,-1.5604092486576566,-0.13020364936049383,97.90885884483397,0.0
765,-1.5243474688733296,-0.09311548098615952,97.57983401575258,0.0
766,-1.4805027903649157,-0.04973743761853222,97.2547597896642,0.0
767,-1.4271843197193816,0.002166558145274722,96.9338955961223,0.0
768,-1.364150701064147,0.06342415539891738,96.61749377487861,0.0
769,-1.2924693800574898,0.13335004555024754,96.30579988965857,0.0
770,-1.2143010596979544,0.209836575229023,95.99905304944436,0.0
771,-1.13268950314998,0.289615231010785,95.69748623652458,0.0
772,-1.0513754099843085,0.36865071506934927,95.40132664065045,0.0
773,-0.9745888254780128,0.44261920657620124,95.11079599872134,0.0
774,-0.9067433257892301,0.5074145883735476,94.8261109395009,0.0
775,-0.8519791736795376,0.5596210339765959,94.54748333294427,0.0
776,-0.813577641217597,0.5968896880099589,94.27512064379364,0.0
777,-0.7933628878552487,0.61816479820107,94.00922628917448,0.0
778,-0.7912735107366826,0.623723424825785,93.75,1.0
779,-0.8052821134834193,0.6150226962201509,93.49035548016334,0.0
780,-0.8317559076507244,0.5943851393314281,93.22337189730099,0.0
781,-0.8662104136865725,0.5645875626797996,92.94949130617103,0.0
782,-0.9042653975730781,0.5284421769108157,92.66915087125186,0.0
783,-0.9425250321719418,0.48846157344875546,92.38278233447568,0.0
784,-0.9791108698839657,0.4466782935846683,92.09081152759143,0.0
785,-1.0136802853008047,0.40464845564587104,91.79365792845111,0.0
786,-1.0469321112034005,0.36361743710157046,91.49173426034436,0.0
787,-1.0797762994909457,0.3247781592568285,91.18544613335673,0.0
788,-1.1124604841563968,0.28952312367905564,90.87519172659557,0.0
789,-1.1439585663193044,0.2595894122442729,90.56136151001391,0.0
790,-1.1718318323444867,0.2370231141079198,90.24433800446691,0.0
791,-1.192612556599962,0.22393945606394144,89.92449557855569,0.0
792,-1.2025975244211764,0.22211420374886956,89.60220028074873,0.0
793,-1.1988297231339928,0.23249488385675948,89.27780970522325,0.0
794,-1.1800142360427488,0.2547529103433648,88.95167288983157,0.0
795,-1.1471490413797651,0.2870009167974519,88.62413024457659,0.0
796,-1.1037246411807056,0.32577193854012926,88.29551350896847,0.0
797,-1.0554317683771242,0.36630440094001643,87.96614573663527,0.0
798,-1.0094012574659883,0.403110852710969,87.63634130556986,0.0
799,-0.9730840369441793,0.43074385892075057,87.306405952414,0.0
800,-0.9529612549661821,0.4446241136244671,86.97663682920764,0.0
801,-0.9533404648034802,0.44177493636638676,86.64732258106437,0.0
802,-0.9755142051140987,0.42131917559275733,86.31874344327439,0.0
803,-1.0175031172611955,0.3846370631645632,85.99117135638113,0.0
804,-1.0744722490966672,0.33514756780033705,85.66487009782699,0.0
805,-1.1397306311058275,0.2777471458337954,85.34009542881779,0.0
806,-1.2060642220400892,0.2180029496692654,85.01709525511123,0.0
807,-1.2670733824414224,0.16123959882183778,84.69610980049418,0.0
808,-1.31821703385,0.11167241905994243,84.37737179177408,0.0
809,-1.357387744998502,0.07172561606230424,84.06110665417216,0.0
810,-1.38499929184636,0.04163738162111488,83.74753271606936,0.0
811,-1.4036954389605434,0.019405158111996668,83.43686142211929,0.0
812,-1.417840805829689,0.0010731461670057674,83.12929755380617,0.0
813,-1.4329259222491013,-0.01868182906945423,82.82503945658902,0.0
814,-1.454942285899607,-0.045746647569742005,82.52427927283689,0.0
815,-1.4897129858694174,-0.08565695412427637,82.2272031798206,0.0
816,-1.542145555497791,-0.1426924467793823,81.93399163208922,0.0
817,-1.6154200347228636,-0.2191070117769091,81.64481960761779,0.0
818,-1.7102131961325435,-0.3146077515427946,81.35985685717291,0.0
819,-1.8241411683890911,-0.426170725258636,81.07926815639838,0.0
820,-1.9516272666968075,-0.5482391164287675,80.80321356017996,0.0
821,-2.0843411587927676,-0.6732949129126443,80.53184865890209,0.0
822,-2.212217520023001,-0.7927356847954932,80.26532483626168,0.0
823,-2.324892542211373,-0.8979346001679318,80.00378952835531,0.0
824,-2.4132613748399625,-0.9813259963745933,79.74738648380581,0.0
825,-2.4708156223962687,-1.0373494889762975,79.49625602474144,0.0
826,-2.494485603581629,-1.0631061171654057,79.25053530848861,0.0
827,-2.4848569099502433,-1.0586270841352972,79.01035858988274,0.0
828,-2.4457928487164486,-1.0267201290270007,78.775857484147,0.0
829,-2.383613164647432,-0.972427998931918,78.5471612303304,0.0
830,-2.306025705865148,-0.9021951810219557,78.32439695533918,0.0
831,-2.220992128955577,-0.8228827579467608,78.10768993863525,0.0
832,-2.135666932718343,-0.7407907212435988,77.89716387771628,0.0
833,-2.0555145060905424,-0.6608404410902902,77.69294115453057,0.0
834,-1.9836927732304415,-0.5860392858763093,77.49514310301913,0.0
835,-1.9207828745294513,-0.5172998241425906,77.3038902780158,0.0
836,-1.864922501233458,-0.4536252957881426,77.1193027257745,0.0
837,-1.8123537809011963,-0.3926105484407745,76.94150025643201,0.0
838,-1.7583259370750426,-0.33115369908765135,76.77060271875193,0.0
839,-1.6982105307757025,-0.26623820127075826,76.60673027753712,0.0
840,-1.6286141803381975,-0.19563524921250483,76.45000369413572,0.0
841,-1.5482384348683815,-0.11839571559994391,76.30054461050872,0.0
842,-1.4582656758857224,-0.03504649921857789,76.15847583736884,0.0
843,-1.362152714038211,0.05253045800335926,76.02392164694422,0.0
844,-1.2648685018801402,0.14149064580743498,75.89700807096686,0.0
845,-1.171769949042745,0.22858872203186276,75.77786320453367,0.0
846,-1.087414909122655,0.31077544631507037,75.66661751653808,0.0
847,-1.0146281179014474,0.3856960868702564,75.5634041674247,0.0
848,-0.9540608749313816,0.4519885798154434,75.46835933507543,0.0
849,-0.9043439045131233,0.5093346035419819,75.38162254969684,0.0
850,-0.862766194772075,0.5582796993754437,75.30333703864284,0.0
851,-0.8262655752211192,0.5998929120222517,75.23365008217708,0.0
852,-0.7924297421832838,0.6353682473980958,75.17271338125393,0.0
853,-0.7602073918215544,0.665672451126893,75.12068343847851,0.0
854,-0.7301240467739001,0.6913178557606557,75.07772195349318,0.0
855,-0.7039620422425795,0.7122950397456499,75.04399623413394,0.0
856,-0.6840461385520454,0.7281523282747895,75.01967962480262,0.0
857,-0.6724092229296249,0.7381723642939451,75.00495195361405,0.0
858,-0.6701437636557273,0.7415800574154284,75.0,1.0
859,-0.6771598359130608,0.7377234273102875,75.00018729999205,0.0
860,-0.6924029073604872,0.7261933938510092,75.00074730384007,0.0
861,-0.7144014171708368,0.7068791134834183,75.00167717555894,0.0
862,-0.7418880837562958,0.6799796489474468,75.00297408988159,0.0
863,-0.7742185676187913,0.6460018572393313,75.00463523198093,0.0
864,-0.8114037061066754,0.6057664563721438,75.00665779719421,0.0
865,-0.8537404295226564,0.5604245822278227,75.0090389907507,0.0
866,-0.9012041244160734,0.511465876031476,75.01177602750178,0.0
867,-0.9528776255246526,0.46068686970337847,75.01486613165407,0.0
868,-1.006688785273415,0.41009185963690575,75.01830653650516,0.0
869,-1.059607437791198,0.361717557506104,75.02209448418202,0.0
870,-1.108264566466191,0.3174007884908617,75.0262272253821,0.0
871,-1.1497838684957808,0.27853451297568066,75.03070201911707,0.0
872,-1.18253180984311,0.2458708754755122,75.03551613245907,0.0
873,-1.206525700027759,0.21942468284327082,75.04066684028955,0.0
874,-1.2233669634952002,0.19850738559028278,75.04615142505065,0.0
875,-1.2357323486632976,0.1818875755417831,75.051967176499,0.0
876,-1.246599000766148,0.1680403759252999,75.05811139146202,0.0
877,-1.2584562250592686,0.15542582972868085,75.06458137359654,0.0
878,-1.2727477513978374,0.14273234996960915,75.07137443314998,0.0
879,-1.2896996751965113,0.12903597886159113,75.07848788672376,0.0
880,-1.3085520962705912,0.11385379868217496,75.08591905703904,0.0
881,-1.3280751881470882,0.09710050230974157,75.09366527270478,0.0
882,-1.347162055418073,0.0789806152879674,75.10172386798816,0.0
883,-1.3652812736995847,0.059858139892173756,75.11009218258708,0.0
884,-1.3826407126288718,0.04013901489510119,75.11876756140506,0.0
885,-1.4000320640152928,0.020184131388869486,75.12774735432819,0.0
886,-1.4184482136273844,0.0002500490921068521,75.13702891600437,0.0
887,-1.4386498947429882,-0.01955996861447018,75.14660960562456,0.0
888,-1.4608750837126732,-0.03935421685442689,75.15648678670638,0.0
889,-1.484828571654703,-0.059528634211180514,75.16665782687953,0.0
890,-1.5099793142216815,-0.0808494398806216,75.17712009767358,0.0
891,-1.5360677075222586,-0.10451116192861507,75.18787097430759,0.0
892,-1.5636284570519747,-0.13212830610273382,75.19890783548185,0.0
893,-1.5943036729361764,-0.16562417581640848,75.21022806317178,0.0
894,-1.6307716418592144,-0.20700242902210797,75.22182904242361,0.0
895,-1.676238932947678,-0.25802041050538416,75.23370816115218,0.0
896,-1.7335997066978324,-0.319817797668003,75.24586280994069,0.0
897,-1.804500815008506,-0.39257781235155154,75.2582903818424,0.0
898,-1.888609578308747,-0.475301989670769,75.2709882721842,0.0
899,-1.9833326566631497,-0.5657601167290408,75.2839538783722,0.0
900,-2.084091316842641,-0.6606387672286017,75.29718459969924,0.0
901,-2.1850745497100967,-0.7558654266890746,75.31067783715407,0.0
902,-2.2802399049012565,-0.8470439511971545,75.32443099323271,0.0
903,-2.364270409387855,-0.9299129312695038,75.33844147175142,0.0
904,-2.4332404406943597,-1.0007380271356001,75.35270667766176,0.0
905,-2.484863938533515,-1.0565718736945207,75.36722401686714,0.0
906,-2.518338926373622,-1.0953534092094916,75.38199089604163,0.0
907,-2.533911360616633,-1.1158610501821635,75.39700472245022,0.0
908,-2.532332874800447,-1.117569112975164,75.41226290377105,0.0
909,-2.514382456578365,-1.100475272500434,75.42776284791941,0.0
910,-2.4805775666070002,-1.0649647747195212,75.44350196287353,0.0
911,-2.431133787422078,-1.0117564226392552,75.45947765650209,0.0
912,-2.3661601978578783,-0.9419426369331048,75.47568733639358,0.0
913,-2.28601630375715,-0.8571004825263651,75.49212840968734,0.0
914,-2.1917189744372174,-0.7594220311480984,75.5087982829064,0.0
915,-2.085279613384268,-0.6517983260225386,75.525694361792,0.0
916,-1.9698680836230453,-0.5377953620050436,75.54281405113997,0.0
917,-1.8497326190489485,-0.4214823016655851,75.56015475463866,0.0
918,-1.7298499393481328,-0.30710683467044836,75.57771387470872,0.0
919,-1.6153362428307794,-0.19865226753679793,75.59548881234464,0.0
920,-1.5107122173248955,-0.09934631842524033,75.61347696695782,0.0
921,-1.4191680061611986,-0.011214029104094414,75.63167573622152,0.0
922,-1.341995923739534,0.06522938231909359,75.65008251591746,0.0
923,-1.2783351293472685,0.13106755856633706,75.66869469978407,0.0
924,-1.2253060515351022,0.18881190554619054,75.68750967936654,0.0
925,-1.1785233379693218,0.24197625665074957,75.7065248438685,0.0
926,-1.132893007754391,0.29445346773275477,75.72573758000532,0.0
927,-1.0835462111803107,0.34979259064635376,75.74514527185933,0.0
928,-1.026748229057554,0.4105011536769603,75.7647453007365,0.0
929,-0.9606401995155155,0.4775005487489774,75.78453504502491,0.0
930,-0.8857051054969302,0.5498417805115087,75.80451188005492,0.0
931,-0.8048826751440296,0.6247463931444436,75.82467317796099,0.0
932,-0.7232865131792179,0.6979798532773264,75.84501630754521,0.0
933,-0.6475125774144911,0.7645019440659484,75.86553863414257,0.0
934,-0.5845880404253968,0.8192827509646932,75.8862375194878,0.0
935,-0.5406991103905328,0.8581356327049666,75.90711032158404,0.0
936,-0.5199360608123659,0.8784098087943091,75.92815439457313,0.0
937,-0.5233595829206232,0.8794093758856664,75.94936708860759,1.0
938,-0.5486745777365406,0.8624599334346026,75.97330894966409,0.0
939,-0.590669336276074,0.8306179087181791,76.00244654473052,0.0
940,-0.6423618454819825,0.7880942644885923,76.03663750453624,0.0
941,-0.6965628572383926,0.7395244851465328,76.07574097306144,0.0
942,-0.7474118007429557,0.689244703717246,76.11961741781842,0.0
943,-0.7914385297118929,0.6407219620551395,76.16812844656205,0.0
944,-0.8278630176621331,0.5962384216281583,76.22113663012126,0.0
945,-0.8581084560938936,0.5568588568227366,76.2785053310732,0.0
946,-0.8847673324191623,0.5226382510921506,76.34009853800987,0.0
947,-0.9104222930399772,0.4929720114280864,76.40578070517462,0.0
948,-0.9367274894180576,0.4669691193710066,76.47541659727113,0.0
949,-0.9640140940278702,0.4437420036392289,76.5488711392728,0.0
950,-0.9914664386090057,0.42254882951192646,76.6260092710832,0.0
951,-1.0177147009480991,0.4027793287612193,76.70669580692255,0.0
952,-1.041576748632241,0.38382685808438477,76.79079529933507,0.0
953,-1.0626786196435591,0.36492267422379754,76.87817190773495,0.0
954,-1.0817666842209266,0.3450158763427035,76.96868927142775,0.0
955,-1.100646652634124,0.3227645968113341,77.06221038706438,0.0
956,-1.121798560813085,0.2966681134700878,77.15859749050362,0.0
957,-1.1477934725811891,0.2653267036625466,77.25771194307737,0.0
958,-1.1806675983656771,0.22777768428228012,77.35941412227119,0.0
959,-1.22139779868003,0.18383105463956922,77.46356331684909,0.0
960,-1.2695816187810829,0.13432117370432145,77.57001762646935,0.0
961,-1.32337078968509,0.08120222625131757,77.67863386585331,0.0
962,-1.3796547847128635,0.027441537485518808,77.78926747358557,0.0
963,-1.4344519035728245,-0.02329944206600576,77.90177242563854,0.0
964,-1.4834447025015363,-0.06716775543526096,78.01600115372949,0.0
965,-1.5225932781804234,-0.10074045529532918,78.13180446863154,0.0
966,-1.5487670573034462,-0.12167252613857435,78.24903148857435,0.0
967,-1.5603416656772997,-0.12926343751672953,78.36752957288222,0.0
968,-1.5576999662556386,-0.1248350072801096,78.48714426101009,0.0
969,-1.5435523897138899,-0.11183129564527827,78.60771921714934,0.0
970,-1.5229663711879062,-0.0955866822837067,78.72909618058567,0.0
971,-1.5029983614667253,-0.08275802920995376,78.8511149220018,0.0
972,-1.4918804329244315,-0.08047443322776268,78.97361320592655,0.0
973,-1.4978246730480322,-0.09531396447686849,79.09642675954039,0.0
974,-1.5276344257478558,-0.13225977841544662,79.21938924805421,0.0
975,-1.5853970650989335,-0.19380768095008466,79.3423322568852,0.0
976,-1.671539160505806,-0.2793867695931745,79.46508528085835,0.0
977,-1.782450697571513,-0.3852130274635522,79.5874757206656,0.0
978,-1.9107641213442412,-0.5046281260903654,79.70932888681868,0.0
979,-2.0462498438647367,-0.6288934158384344,79.8304680113316,0.0
980,-2.1771907408617195,-0.7483270712276179,79.9507142673699,0.0
981,-2.2920296205808253,-0.8536063568553568,80.06988679710109,0.0
982,-2.381039795941637,-0.9370205210523919,80.18780274797913,0.0
983,-2.4377485581165064,-0.9934615545512948,80.3042773176892,0.0
984,-2.4598565232201492,-1.0209817908708696,80.41912380797397,0.0
985,-2.4494564971010573,-1.02082318774508,80.53215368755353,0.0
986,-2.4124686033326075,-0.9969199833149708,80.64317666434087,0.0
987,-2.357361133411663,-0.9549758656924453,80.75200076714306,0.0
988,-2.2933881739414073,-0.9012985469801411,80.85843243702335,0.0
989,-2.2287033376374645,-0.841620824216437,80.9622766284838,0.0
990,-2.1687616750927603,-0.7801366842471236,81.06333692060885,0.0
991,-2.1153728281566946,-0.7189325028115219,81.16141563829002,0.0
992,-2.066622112357153,-0.6579065695379194,81.25631398362927,0.0
993,-2.0176699551754465,-0.595164001325734,81.34783217759231,0.0
994,-1.9622297551642465,-0.5277726846637583,81.43576961195734,0.0
995,-1.8943619865410335,-0.4526926950871931,81.5199250115735,0.0
996,-1.8101438512786516,-0.3676636357678224,81.60009660691296,0.0
997,-1.7087978461315734,-0.2718574536733342,81.67608231686496,0.0
998,-1.5929930100484275,-0.16617165438890066,81.74767994168575,0.0
999,-1.4682507256943713,-0.05313131125200418,81.81468736597826,0.0
1000,-1.3416415653868414,0.06353685362353267,81.87690277153706,0.0
1001,-1.2201713644519017,0.1795233284704707,81.93412485985047,0.0
1002,-1.1093437523299086,0.29058167135504775,81.98615308400939,0.0
1003,-1.0123119946966173,0.3930508696200796,82.03278788972627,0.0
1004,-0.929818533354142,0.4841577833765889,82.07383096512133,0.0
1005,-0.8608468594289488,0.5620775340239256,82.10908549888572,0.0
1006,-0.8036802377600594,0.6258009603941851,82.13835644638178,0.0
1007,-0.7569560237145826,0.6749058171046819,82.16145080319241,0.0
1008,-0.7203500630112506,0.7093402256229066,82.17817788558071,0.0
1009,-0.6946910220477617,0.7293027991863628,82.18834961727158,0.0
1010,-0.6815181741956812,0.735254643110422,82.19178082191782,1.0
1011,-0.6822805470129312,0.7280417142958903,82.18655718763299,0.0
1012,-0.6974756014040543,0.70906033631984,82.17105735012167,0.0
1013,-0.7260229648294072,0.6803777434248728,82.14554340219958,0.0
1014,-0.7650775345332826,0.6447285973404584,82.11028425177768,0.0
1015,-0.8103430157107937,0.6053433966671974,82.06555498689688,0.0
1016,-0.8567977313888632,0.5656141824709859,82.01163624770861,0.0
1017,-0.8996324571865759,0.5286521505011429,81.94881360754991,0.0
1018,-0.9351538099196478,0.49682700335788227,81.87737696511746,0.0
1019,-0.9614333795319238,0.4713901450812324,81.79761994959689,0.0
1020,-0.9785672522808854,0.4522708084766316,81.70983934045104,0.0
1021,-0.9885216094555694,0.4381000785449331,81.614334503417,0.0
1022,-0.9946406997664269,0.42647134441215,81.51140684410647,0.0
1023,-1.0009538219772336,0.4143976903559876,81.40135928044998,0.0
1024,-1.0114272937304924,0.39888704490487004,81.28449573507275,0.0
1025,-1.029278395704298,0.377531757111369,81.16112064853967,0.0
1026,-1.0564282937425662,0.34900432145322213,81.03153851426138,0.0
1027,-1.0931438647701435,0.3133654164631564,80.89605343571151,0.0
1028,-1.1379098528992142,0.2721215504793044,80.75496870646863,0.0
1029,-1.1875696339089916,0.22801247440133038,80.60858641346708,0.0
1030,-1.2377555608874136,0.18455649434111787,80.45720706371593,0.0
1031,-1.2835874823229532,0.14542713449349376,80.30112923462985,0.0
1032,-1.3205553178507365,0.11376917408501747,80.14064924800535,0.0
1033,-1.3454367425619567,0.09157872147534908,79.97606086757406,0.0
1034,-1.357058585475507,0.0792659587517423,79.8076550199713,0.0
1035,-1.3567127796000984,0.07548972328524768,79.63571953887104,0.0
1036,-1.3480954261252547,0.07730429688573578,79.46053893196031,0.0
1037,-1.3367422486621616,0.08059944270191427,79.28239417035554,0.0
1038,-1.329056794676329,0.08075684556005586,79.1015625,0.0
1039,-1.331130872946712,0.07340225288584437,78.91831727452653,0.0
1040,-1.3476090341454743,0.05511291313824429,78.732927809021,0.0
1041,-1.380839114286148,0.023949388088170764,78.54565925408146,0.0
1042,-1.4304865307854344,-0.0202821191686208,78.35677248953311,0.0
1043,-1.493688504610382,-0.07607421358925634,78.16652403713195,0.0
1044,-1.5657061862576187,-0.14054357071541013,77.97516599156764,0.0
1045,-1.64092105809979,-0.2099556033803684,77.78294596906088,0.0
1046,-1.7139426995614093,-0.2803321441709486,77.5901070728397,0.0
1047,-1.78057008323397,-0.3480188409243516,77.39688787477397,0.0
1048,-1.8383874130448825,-0.4101106478860095,77.20352241244682,0.0
1049,-1.8868705926890352,-0.4646773169679099,77.01024020094509,0.0
1050,-1.9270099020593883,-0.5107838077089822,76.81726625865933,0.0
1051,-1.9605873371570204,-0.5483484361824816,76.62482114639457,0.0
1052,-1.9893474917355118,-0.5779116061677966,76.43312101910827,0.0
1053,-2.0143345414155647,-0.6003929315551891,76.24237768960957,0.0
1054,-2.035613913126678,-0.6168951208416581,76.05279870357393,0.0
1055,-2.0524619660392434,-0.6285775550094126,75.8645874252511,0.0
1056,-2.063930457144934,-0.6365846081806353,75.67794313326786,0.0
1057,-2.0695389136779765,-0.6419876944213386,75.49306112595521,0.0
1058,-2.069781685069448,-0.6456957794795748,75.31013283565704,0.0
1059,-2.0661934097209738,-0.6483086881017888,75.12934595150794,0.0
1060,-2.0608847395896164,-0.6499239084324396,74.95088455019825,0.0
1061,-2.05567874675188,-0.6499467755570503,74.77492923427684,0.0
1062,-2.051160401910987,-0.6469798398780404,74.60165727757519,0.0
1063,-2.0460197157908375,-0.6388675606674736,74.43124277736963,0.0
1064,-2.0369901410948232,-0.6229433462514892,74.26385681293303,0.0
1065,-2.0194831196631493,-0.5964738354553472,74.09966761016246,0.0
1066,-1.9887720625924685,-0.5572351360786751,73.93884071200365,0.0
1067,-1.9413792493010742,-0.5041061331455288,73.7815391544297,0.0
1068,-1.8762433830289038,-0.4375411136318505,73.62792364776632,0.0
1069,-1.7953193294201222,-0.3597962744033908,73.47815276319339,0.0
1070,-1.703448568303931,-0.2748303663156424,73.33238312428735,0.0
1071,-1.6075596562133925,-0.18786754765552838,73.19076960350759,0.0
1072,-1.5154300785436912,-0.10468354804922608,73.0534655235656,0.0
1073,-1.4343166319851044,-0.030736936152986477,72.92062286365362,0.0
1074,-1.369741262430456,0.02969785668023983,72.79239247054755,0.0
1075,-1.324637002432797,0.07423662535006056,72.66892427463674,0.0
1076,-1.2989562357666624,0.10280031712231691,72.55036751097245,0.0
1077,-1.289752415527049,0.11766138058604145,72.4368709454661,0.0
1078,-1.2916814768950666,0.12310980101760763,72.3285831064089,0.0
1079,-1.2978303479153737,0.12479318527613717,72.2256525215259,0.0
1080,-1.3007569998196027,0.12884041294981044,72.12822796081923,0.0
1081,-1.2936078549555858,0.140913792822968,72.03645868550008,0.0
1082,-1.2711609916131916,0.16534507573400836,71.95049470335279,0.0
1083,-1.2306365587239807,0.20449476805028255,71.87048703092253,0.0
1084,-1.1721337042870408,0.25843474218693907,71.79658796296596,0.0
1085,-1.0986042584099256,0.3249977484258479,71.72895134965576,0.0
1086,-1.015352351119805,0.40017372853478517,71.66773288208344,0.0
1087,-0.9291402170751292,0.4787730956141487,71.61309038666096,0.0
1088,-0.8470631693587001,0.555232382599698,71.56518412908162,0.0
1089,-0.775410537632047,0.6244164581303171,71.52417712856402,0.0
1090,-0.7187372968673775,0.6822781176956563,71.49023548316958,0.0
1091,-0.6793257672628067,0.7262690537706011,71.46352870705661,0.0
1092,-0.6571263674884231,0.7554492778838715,71.44423008061038,0.0
1093,-0.6501549510282534,0.7703040665975969,71.43251701447116,0.0
1094,-0.6552233905648408,0.7723355463818675,71.42857142857143,1.0
1095,-0.6688167314787858,0.7635380792242056,71.43653190249627,0.0
1096,-0.6879167794983776,0.7458840761751343,71.4601130800836,0.0
1097,-0.7106035059207836,0.7209364364867726,71.49887906540793,0.0
1098,-0.7363252058072367,0.6896680958412367,71.55241174028558,0.0
1099,-0.7657972290368888,0.6525161239315133,71.62030895740583,0.0
1100,-0.8005560663298072,0.6096391258538033,71.70218282966385,0.0
1101,-0.8422584873646465,0.561295478031532,71.79765810542209,0.0
1102,-0.8918739677285377,0.5082280574672989,71.9063706204529,0.0
1103,-0.9489644881655277,0.4519367131925133,72.02796581823993,0.0
1104,-1.0112601958988887,0.394745043504081,72.16209733115191,0.0
1105,-1.0747017932158363,0.33961841164068957,72.30842561576311,0.0
1106,-1.134022241853767,0.28975431857770517,72.46661663629108,0.0
1107,-1.1837947923043421,0.2480285336339066,72.6363405907616,0.0
1108,-1.2197181165211348,0.21642419724014184,72.8172706751051,0.0
1109,-1.2397947009991295,0.19558352126234113,73.00908188094246,0.0
1110,-1.2450374103606514,0.1845975074513978,73.21144982333905,0.0
1111,-1.2394402830901496,0.18109310861598904,73.42404959530153,0.0
1112,-1.2291591635285148,0.18160380225903686,73.64655464626411,0.0
1113,-1.2211032329940295,0.18213883785372828,73.8786356822685,0.0
1114,-1.2213469350869504,0.17881863239765206,74.1199595859865,0.0
1115,-1.2338468901651856,0.16843270384808545,74.37018835517007,0.0
1116,-1.2598502468530035,0.14880490483834524,74.6289780585457,0.0
1117,-1.2981387640516386,0.11890917182285168,74.89597780859918,0.0
1118,-1.3459580443871284,0.07874901780959001,75.17082875112753,0.0
1119,-1.4002504393611597,0.02907406795587497,75.45316307186792,0.0
1120,-1.4587340552359132,-0.028960268605893014,75.74260302095189,0.0
1121,-1.5204723894869592,-0.09408599823591005,76.03875995637786,0.0
1122,-1.585805306122432,-0.1650975365542071,76.34123340814646,0.0
1123,-1.6557590112020724,-0.2408875257833244,76.64961016516314,0.0
1124,-1.7312201440969892,-0.32037191047692914,76.96346338748039,0.0
1125,-1.812196441920196,-0.40236554316325146,77.28235174692735,0.0
1126,-1.8974070920719193,-0.4854770368672766,77.60581859965613,0.0
1127,-1.9843048703618194,-0.5680740370218804,77.9333911946221,0.0
1128,-2.0694880730240173,-0.6483361248002942,78.26457992250471,0.0
1129,-2.1493506232730772,-0.7243753930948106,78.59887761006622,0.0
1130,-2.2207601227673037,-0.7943775723788828,78.93575886543228,0.0
1131,-2.2815536130164835,-0.8567084700047954,79.2746794802571,0.0
1132,-2.3307020273638033,-0.9099437224473678,79.61507589520278,0.0
1133,-2.3681052023472735,-0.952809644725002,79.95636473560907,0.0
1134,-2.3941055685962875,-0.984059193386566,80.29794242465277,0.0
1135,-2.4089018317877637,-1.002337631526083,80.63918488168396,0.0
1136,-2.412067372768466,-1.0061070065168305,80.97944731377457,0.0
1137,-2.4023298748701913,-0.993691373561485,81.31806410881124,0.0
1138,-2.377680865837879,-0.9634764093042536,81.65434883870067,0.0
1139,-2.335797041487389,-0.9142542002953046,81.98759438142055,0.0
1140,-2.2746914689766853,-0.8456572751497273,82.31707317073172,0.0
1141,-2.1934698811527564,-0.7585876123664674,82.64203758235519,0.0
1142,-2.093035596162208,-0.6555272885890756,82.96172046530023,0.0
1143,-1.9765680926393943,-0.5406246325061217,83.27533582679307,0.0
1144,-1.8496112226654886,-0.41948449880550587,83.58207967889078,0.0
1145,-1.7196639033069112,-0.2986483798209158,83.88113105435694,0.0
1146,-1.59526916777229,-0.18481843726529948,84.17165319871704,0.0
1147,-1.4847253627227976,-0.08394417925383124,84.4527949445911,0.0
1148,-1.3946600788802925,-0.00033574952323434104,84.72369227341098,0.0
1149,-1.3287753922170842,0.0640189841228288,84.98347006846478,0.0
1150,-1.2870659248245335,0.1097813202772896,85.23124406186713,0.0
1151,-1.2657244714386369,0.14014113776788684,85.4661229765279,0.0
1152,-1.257803616077761,0.1602429122179095,85.68721086249315,0.0
1153,-1.2545337432552817,0.176245105033805,85.89360962515461,0.0
1154,-1.2470494081049799,0.19417917631969156,86.0844217407916,0.0
1155,-1.228179196611098,0.21882233340082097,86.25875315272357,0.0
1156,-1.1939272428394332,0.2528023476060861,86.41571633904127,0.0
1157,-1.144323648321635,0.29611083445375375,86.55443354046548,0.0
1158,-1.0834415155627988,0.34612124720636583,86.67404013438991,0.0
1159,-1.0185525116748255,0.3981064174009414,86.77368813862597,0.0
1160,-0.9585878133894379,0.44614999578474035,86.85254982582377,0.0
1161,-0.9122412360957817,0.48426890964558056,86.90982142703605,0.0
1162,-0.8861478393341086,0.5075269431346203,86.94472690046439,0.0
1163,-0.8835586756986753,0.512930157549216,86.95652173913044,1.0
1164,-0.9038041361178649,0.4999489966502108,86.95134156474535,0.0
1165,-0.9426265913013279,0.47059510273281224,86.93597693366273,0.0
1166,-0.9932324321804356,0.4290722418047953,86.91069677512519,0.0
1167,-1.0477385888620345,0.38109876801148906,86.87577631502273,0.0
1168,-1.09862300524756,0.33304733329588987,86.83149646692097,0.0
1169,-1.139844409253573,0.29105887230896976,86.7781432313615,0.0
1170,-1.1674430589973206,0.2602654809831811,86.71600710535087,0.0
1171,-1.1796136031711528,0.24421231338596294,86.64538250381821,0.0
1172,-1.176393349026451,0.24451777062863167,86.56656719468145,0.0
1173,-1.159189904459284,0.26076860641139543,86.4798617490208,0.0
1174,-1.130364193161644,0.29062113029784636,86.38556900771408,0.0
1175,-1.0930004365225834,0.3300727181738756,86.28399356574712,0.0
1176,-1.0508700485718778,0.37387345994920984,86.17544127526968,0.0
1177,-1.0084794159199917,0.416055973028884,86.06021876832887,0.0
1178,-0.971025921119884,0.45056233788088634,85.93863300007611,0.0
1179,-0.9440976849855263,0.4719351639378595,85.81099081311059,0.0
1180,-0.9330392888398048,0.47601606227195714,85.67759852349587,0.0
1181,-0.9420398284769187,0.4605670671598536,85.53876152886309,0.0
1182,-0.9731329493195733,0.42571079694260966,85.39478393889812,0.0
1183,-1.0253802169855712,0.37408540974057414,85.24596822839989,0.0
1184,-1.0945073327166712,0.31063830721527413,85.0926149129928,0.0
1185,-1.1731775700359817,0.24203794402831885,84.93502224748005,0.0
1186,-1.251946005325567,0.17575706075207054,84.77348594673373,0.0
1187,-1.3207784231172406,0.11895696194885308,84.60829892893562,0.0
1188,-1.370871612766103,0.07736150243547266,84.43975108090653,0.0
1189,-1.3964034729357837,0.054333420636829874,84.2681290451932,0.0
1190,-1.39580102669873,0.050343766867783385,84.09371602852094,0.0
1191,-1.372172289065198,0.06295740053950034,83.91679163116503,0.0
1192,-1.3327169678576816,0.08735582826677295,83.73763169674648,0.0
1193,-1.2871853672615836,0.1173049002120588,83.55650818191641,0.0
1194,-1.2457251212797187,0.14637580141899534,83.3736890453587,0.0
1195,-1.2166498476244487,0.16916803610402675,83.18943815551117,0.0
1196,-1.2047064985853984,0.18227849841208363,83.00401521638372,0.0
1197,-1.210283457941338,0.18481356719007042,82.81767571083319,0.0
1198,-1.2297289393156086,0.17833945215348457,82.63067086064326,0.0
1199,-1.256631821746795,0.16628671634380074,82.4432476027502,0.0
1200,-1.2836647753361863,0.15294029010718782,82.25564858095237,0.0
1201,-1.304484008087928,0.14223132819301285,82.06811215244262,0.0
1202,-1.3152405737337038,0.1365855481017469,81.88087240850916,0.0
1203,-1.3154376101898604,0.13606939283492364,81.6941592087575,0.0
1204,-1.308078977737758,0.13801661010217406,81.50819822822082,0.0
1205,-1.299213464685108,0.1372274521862598,81.32321101673931,0.0
1206,-1.297041002366221,0.12672794075237245,81.13941507000851,0.0
1207,-1.3107240560461588,0.09897463912569716,80.95702391171636,0.0
1208,-1.3489929832163172,0.04730611748765273,80.77624718621215,0.0
1209,-1.4186154922828267,-0.03261196886779044,80.59729076117452,0.0
1210,-1.5228580903173772,-0.14161617695181933,80.42035683977285,0.0
1211,-1.6601871527151235,-0.2763867832695891,80.24564408184425,0.0
1212,-1.8235673736749813,-0.42946393063508914,80.07334773363723,0.0
1213,-2.0007204711602835,-0.5899878806582091,79.90365976570514,0.0
1214,-2.1755447978961624,-0.7450792536880119,79.73676901856244,0.0
1215,-2.330585695598113,-0.8816459080444276,79.57286135575109,0.0
1216,-2.450092513164943,-0.9883066801421332,79.41211982399695,0.0
1217,-2.522947812918963,-1.0570833164128013,79.25472482017052,0.0
1218,-2.5447228655497156,-1.0845440164512024,79.1008542648014,0.0
1219,-2.518327823193945,-1.0721820217944296,78.95068378193108,0.0
1220,-2.4531108338120498,-1.0259605117368114,78.80438688512491,0.0
1221,-2.362679122963661,-0.9551181791297335,78.66213516950089,0.0
1222,-2.2620258800461617,-0.8704718306968456,78.52409850966934,0.0
1223,-2.164662606153956,-0.7825424834568255,78.39044526351664,0.0
1224,-2.0803689414740973,-0.6998523704964552,78.26134248180253,0.0
1225,-2.0139397567666557,-0.627691499457961,78.1369561235816,0.0
1226,-1.965025141360589,-0.5675488349009695,78.01745127749768,0.0
1227,-1.9289126603424112,-0.5172699242947055,77.90299238904093,0.0
1228,-1.897952061761384,-0.4718681839189662,77.79374349389884,0.0
1229,-1.8632844290627002,-0.4248060905191622,77.68986845757445,0.0
1230,-1.816581119976039,-0.36949239953540775,77.5915312214892,0.0
1231,-1.7515704090887354,-0.30071996174305177,77.49889605583182,0.0
1232,-1.6651883600672124,-0.21579459283315308,77.41212781946214,0.0
1233,-1.5582248589348984,-0.11517067756749239,77.33139222722583,0.0
1234,-1.4353674305127286,-0.0025009944766009595,77.25685612508683,0.0
1235,-1.3046037607775967,0.11588878745419168,77.18868777353609,0.0
1236,-1.1760396918633376,0.23199266088687442,77.12705713979034,0.0
1237,-1.0603056429296878,0.3373983235386221,77.07213619935153,0.0
1238,-0.9668248471273114,0.42461297048108737,77.0240992475591,0.0
1239,-0.9022647132179079,0.48820759778140577,76.98312322183072,0.0
1240,-0.8694674290178868,0.525584699499319,76.94938803535558,0.0
1241,-0.8670624346201022,0.5372474536331512,76.92307692307692,1.0
1242,-0.8898289351599131,0.5265434636863782,76.9009209603068,0.0
1243,-0.9297359478056078,0.49895483139795005,76.87951372172657,0.0
1244,-0.9774653074932432,0.4610894079713536,76.85883496185895,0.0
1245,-1.0241298683795443,0.4195786811789857,76.83886451893939,0.0
1246,-1.0628427439297956,0.38009533784473293,76.81958231117383,0.0
1247,-1.0897935312128824,0.34666649560316853,76.80096833311312,0.0
1248,-1.1045713971982,0.32138526290095254,76.78300265214175,0.0
1249,-1.1096518654878067,0.30453064656333645,76.76566540508014,0.0
1250,-1.109198718297162,0.2950158690296667,76.7489367948985,0.0
1251,-1.10754487727488,0.2910194748131187,76.73279708754113,0.0
1252,-1.1078174079657719,0.2906275866077518,76.71722660886005,0.0
1253,-1.1111125358253824,0.29233406594337585,76.70220574165661,0.0
1254,-1.1164266101632978,0.2953007825396244,76.68771492282988,0.0
1255,-1.121288121103051,0.29935542527202297,76.67373464063094,0.0
1256,-1.1228138424115017,0.3047773746923144,76.66024543202191,0.0
1257,-1.1188036146206437,0.31197316631570793,76.64722788013891,0.0
1258,-1.1085170277367093,0.3211598425320802,76.63466261185803,0.0
1259,-1.0929148376837436,0.3321557201786375,76.6225302954633,0.0
1260,-1.0743402152228403,0.3443329031733291,76.61081163841625,0.0
1261,-1.0557936771906116,0.356730162538517,76.5994873852259,0.0
1262,-1.0400667204629426,0.36827593924426283,76.58853831541873,0.0
1263,-1.0290150388313108,0.37804267605525965,76.57794524160823,0.0
1264,-1.0231779507545677,0.38545146173162603,76.56768900766266,0.0
1265,-1.0218206772474685,0.39036766315899746,76.55775048697153,0.0
1266,-1.0233395471123692,0.3930646980121033,76.54811058080922,0.0
1267,-1.0258715633678466,0.394072040855433,76.5387502167961,0.0
1268,-1.0279134979404116,0.3939534995922457,76.52965034745608,0.0
1269,-1.028781597772018,0.39307542638625936,76.52079194887075,0.0
1270,-1.0288121738511926,0.391420266949823,76.51215601942896,0.0
1271,-1.0292887478950576,0.3884825684090203,76.5037235786725,0.0
1272,-1.0321570451390505,0.3832596704689013,76.49547566623639,0.0
1273,-1.0396360525062343,0.37432606431092913,76.48739334088444,0.0
1274,-1.0538434450159795,0.35996533530297814,76.4794576796392,0.0
1275,-1.0765299678030784,0.3383297041559833,76.47164977700632,0.0
1276,-1.1089705517253705,0.3076034018975094,76.46395074429284,0.0
1277,-1.1520034854212367,0.2661581333525303,76.45634170901943,0.0
1278,-1.206157047101318,0.21270081131646182,76.44880381442601,0.0
1279,-1.2717708883733976,0.14642022207649297,76.44131821907101,0.0
1280,-1.3490207588267493,0.06713733184581527,76.43386609652346,0.0
1281,-1.4377938212766066,-0.02454601352549496,76.42642863514834,0.0
1282,-1.5374256457974276,-0.12711948714269317,76.41898703798442,0.0
1283,-1.6463741391709459,-0.238090000806984,76.41152252271489,0.0
1284,-1.7619453852246607,-0.35399824879304664,76.40401632173021,0.0
1285,-1.8801886544364759,-0.4705573742170569,76.39644968228328,0.0
1286,-1.9960439058438593,-0.5829267350161017,76.38880386673638,0.0
1287,-2.103765259332056,-0.6861065494446031,76.3810601529003,0.0
1288,-2.197572427295803,-0.7754095451224484,76.37319983446459,0.0
1289,-2.2724156766203323,-0.8469415327184038,76.36520422151959,0.0
1290,-2.324696865958896,-0.8980112878366855,76.35705464116946,0.0
1291,-2.3527851212048967,-0.9273956710688254,76.34873243823608,0.0
1292,-2.3572064779060797,-0.9354087714058269,76.34021897605389,0.0
1293,-2.340462625557203,-0.9237597635966515,76.33149563735483,0.0
1294,-2.3065210439616837,-0.8952253067240945,76.32254382524371,0.0
1295,-2.2600894347543754,-0.8531991919231541,76.31334496426332,0.0
1296,-2.2058231068892327,-0.8012057606429737,76.3038805015491,0.0
1297,-2.14761449992333,-0.7424684118392882,76.294131908073,0.0
1298,-2.0880920236543106,-0.6796087178647002,76.28408067997624,0.0
1299,-2.028421606929757,-0.6145185889091618,76.27370833999048,0.0
1300,-1.9684568548573427,-0.5484052198158545,76.26299643894691,0.0
1301,-1.9072137904439688,-0.48196665912733677,76.25192655737327,0.0
1302,-1.8435565270528085,-0.4156256198851036,76.24048030717752,0.0
1303,-1.776897221875639,-0.34973911022791854,76.2286393334185,0.0
1304,-1.7076789128622696,-0.2847151641427004,76.21638531616243,0.0
1305,-1.6374553099893319,-0.22100243072909959,76.2036999724249,0.0
1306,-1.5685065292909093,-0.15896426645379774,76.19056505819785,0.0
1307,-1.5030956615779665,-0.09869268221991229,76.1769623705605,0.0
1308,-1.4426168897211866,-0.03984507198288592,76.16287374987405,0.0
1309,-1.3869527938806925,0.01841179006359292,76.14828108205892,0.0
1310,-1.3343129062929662,0.07729272434760995,76.13316630095396,0.0
1311,-1.2816735971144675,0.13811072506092864,76.11751139075704,0.0
1312,-1.2257291184382326,0.2018659290910121,76.10129838854554,0.0
1313,-1.1640717152605948,0.26880066059546703,76.08450938687636,0.0
1314,-1.0962213183869605,0.3380371427476477,76.0671265364643,0.0
1315,-1.0241644247325554,0.40740566346067075,76.04913204893766,0.0
1316,-0.9522238009942948,0.4735322172253317,76.03050819967021,0.0
1317,-0.8863007723476767,0.5321964180708378,76.01123733068803,0.0
1318,-0.8327228924703035,0.5789084890743514,75.99130185365064,0.0
1319,-0.7970219353855827,0.6096042855247109,75.97068425290439,0.0
1320,-0.7829387485556789,0.6213310852854367,75.94936708860759,1.0
1321,-0.7918349079237861,0.6127986277202826,75.92429383157456,0.0
1322,-0.8225504214066279,0.5846966550375978,75.89253432819748,0.0
1323,-0.8716409138996647,0.5397237900126954,75.85426300296447,0.0
1324,-0.933882225347857,0.4823225816647491,75.80965703413563,0.0
1325,-1.0029335528843675,0.4181623204594155,75.75889606284939,0.0
1326,-1.072072574604104,0.35344773460622503,75.70216190747448,0.0
1327,-1.1349337868513776,0.2941540848222059,75.63963828385128,0.0
1328,-1.1861884387191073,0.2452964005328527,75.57151053201721,0.0
1329,-1.2221073744442794,0.21033346846387235,75.49796534996021,0.0
1330,-1.240953805662073,0.1907875981828408,75.41919053489535,0.0
1331,-1.2431624547244797,0.18613165693733394,75.33537473250952,0.0
1332,-1.2312723758127082,0.19395842304161098,75.24670719457013,0.0
1333,-1.2095944481716312,0.21040769813617494,75.153377545246,0.0
1334,-1.1836182592080597,0.2307884932715844,75.05557555644063,0.0
1335,-1.1592041601768863,0.2503024283653742,74.9534909323931,0.0
1336,-1.1416625307781667,0.26475594589117346,74.8473131037566,0.0
1337,-1.1348767896516567,0.2711477970470612,74.73723103132217,0.0
1338,-1.1406527021719475,0.268036876428611,74.623433019514,0.0
1339,-1.1584520069072428,0.25563252378397683,74.50610653974374,0.0
1340,-1.1855909188359042,0.23559927643598702,74.38543806367349,0.0
1341,-1.2178750611252498,0.2106214671170546,74.26161290640293,0.0
1342,-1.2505362387946797,0.1838188728263058,74.1348150795622,0.0
1343,-1.2792634194670864,0.15813244148019454,74.00522715426193,0.0
1344,-1.3010961975322668,0.13580205996209382,73.87303013382314,0.0
1345,-1.3149770650650716,0.1180350275068042,73.73840333618315,0.0
1346,-1.3218348360160264,0.10491927226341537,73.60152428584989,0.0
1347,-1.324183660042364,0.09557966591558464,73.46256861525464,0.0
1348,-1.325346202324364,0.0885222873333554,73.32170997533379,0.0
1349,-1.3285111957461044,0.08207303094417678,73.17911995515236,0.0
1350,-1.3358811321615185,0.07480264309747639,73.03496801036654,0.0
1351,-1.3481374598671958,0.06584290085187167,72.88942140030889,0.0
1352,-1.3643546071245471,0.055033888095061115,72.74264513346805,0.0
1353,-1.3823599257018833,0.04288987273012687,72.59480192112537,0.0
1354,-1.3994074714987967,0.030417784400666587,72.44605213890267,0.0
1355,-1.4129510572298971,0.018855130673565423,72.29655379596902,0.0
1356,-1.4212899860113897,0.009405119252204025,72.14646251164984,0.0
1357,-1.4239164348652462,0.0030341735688812627,71.9959314991787,0.0
1358,-1.4214919182633499,0.0003663164928204843,71.84511155632998,0.0
1359,-1.4154896096062883,0.0016706968327871302,71.69415106267101,0.0
1360,-1.4076327886609477,0.006905529487025844,71.54319598317235,0.0
1361,-1.399318712945698,0.015764815173113345,71.39238987791776,0.0
1362,-1.3912279882006455,0.027679174171630003,71.24187391765822,0.0
1363,-1.383273036968585,0.04174768247013818,71.09178690495847,0.0
1364,-1.3749382333097027,0.0566154704859546,70.94226530069005,0.0
1365,-1.3659304372054235,0.07034899676278594,70.79344325563056,0.0
1366,-1.3569317066979882,0.08038340077866132,70.64545264693555,0.0
1367,-1.3501718100182023,0.08361383514886479,70.49842311925707,0.0
1368,-1.3495522203044408,0.07667225320188976,70.35248213029092,0.0
1369,-1.3601658120267028,0.056379057923631196,70.20775500054324,0.0
1370,-1.387244477800751,0.020299720525994304,70.06436496711632,0.0
1371,-1.4347752198770147,-0.03271137903937385,69.92243324132309,0.0
1372,-1.5041800981136917,-0.10211687679635881,69.78207906994966,0.0
1373,-1.5934901772409287,-0.18556990022957318,69.64341979999581,0.0
1374,-1.697329548315281,-0.2791167333185512,69.50657094673393,0.0
1375,-1.8077903105878939,-0.37771057646046774,69.37164626493761,0.0
1376,-1.9160005172861938,-0.475936841277809,69.2387578231429,0.0
1377,-2.0139610577948774,-0.5687911629016388,69.10801608081591,0.0
1378,-2.096132071218346,-0.6523328182377102,68.97952996831235,0.0
1379,-2.160317076688093,-0.7240656037578872,68.85340696952665,0.0
1380,-2.2076027453078506,-0.7829684701312042,68.72975320713947,0.0
1381,-2.2413989207232983,-0.8291900678422562,68.60867353038532,0.0
1382,-2.265897054837328,-0.8635089710318272,68.49027160527324,0.0
1383,-2.2844372788312897,-0.8867200670463836,68.37465000720672,0.0
1384,-2.2982872528005975,-0.8991213896489384,68.26191031596065,0.0
1385,-2.306185558299923,-0.9002417528634462,68.15215321298608,0.0
1386,-2.304743063205073,-0.8888788290813588,68.0454785810264,0.0
1387,-2.2895215209329334,-0.8634306576551178,67.9419856060407,0.0
1388,-2.2564161857525225,-0.8224251435006193,67.8417728814438,0.0
1389,-2.2029176430829533,-0.7651022439866079,67.7449385146854,0.0
1390,-2.1289170389674075,-0.6918933197649719,67.65158023620383,0.0
1391,-2.036895365736943,-0.6046712033012858,67.56179551080413,0.0
1392,-1.9315262490044192,-0.5067025661280663,67.47568165152376,0.0
1393,-1.818860835793351,-0.4023047938489061,67.39333593606314,0.0
1394,-1.7053247202199517,-0.29627546919829495,67.31485572587387,0.0
1395,-1.596745761053738,-0.193209747937924,67.24033858801084,0.0
1396,-1.497574322880783,-0.09684140264373925,67.16988241987164,0.0
1397,-1.4103861152246548,-0.009535682761985464,67.10358557696097,0.0
1398,-1.3356983809083982,0.06796950809118618,67.04154700383539,0.0
1399,-1.2720935303307273,0.13652556792139137,66.98386636840038,0.0
1400,-1.2166239437056827,0.1982446410882336,66.93064419974955,0.0
1401,-1.165451796835972,0.2559393861974708,66.88198202975434,0.0
1402,-1.1146477171335274,0.31243164668498197,66.8379825386324,0.0
1403,-1.0610357422307994,0.36985514908765155,66.79874970474309,0.0
1404,-1.0029447877199011,0.42908069389290604,66.76438895887976,0.0
1405,-0.940723776940842,0.4893734503579307,66.73500734335182,0.0
1406,-0.8769047060504168,0.5483533378757798,66.71071367617307,0.0
1407,-0.8159518617653087,0.6022769000392825,66.69161872069873,0.0
1408,-0.7636081587537062,0.6466012093773408,66.67783536108024,0.0
1409,-0.7259304720598617,0.6767374243414149,66.66947878393594,0.0
1410,-0.7081798157546864,0.6888637015486652,66.66666666666667,1.0
1411,-0.7137796285736745,0.6806520727411479,66.77237411375631,0.0
1412,-0.743558175530233,0.6517754310013384,67.08296732555652,0.0
1413,-0.7954419337802606,0.6040976157133859,67.59117861515814,0.0
1414,-0.8646747477831874,0.5415052813232974,68.29270552911903,0.0
1415,-0.944525199915927,0.46940435781849016,69.1858145375173,0.0
1416,-1.0273407847729277,0.3939642231216642,70.27104340985483,0.0
1417,-1.1057382630127708,0.321237762910106,71.55097503313219,0.0
1418,-1.1737013328802273,0.25630703806695126,73.03006129193692,0.0
1419,-1.2273912235044895,0.2025988480289043,74.7144790668674,0.0
1420,-1.2655495534598218,0.16148382591425375,76.61200197520597,0.0
1421,-1.2894619829329512,0.1322230754519225,78.73187147779173,0.0
1422,-1.3025303580173206,0.11226692233703403,81.08464953540955,0.0
1423,-1.309552518280949,0.09785127310273554,83.68203212381692,0.0
1424,-1.3158290667015342,0.08478779428003609,86.53659854040312,0.0
1425,-1.3262155331249068,0.06931210859216116,89.66146546217719,0.0
1426,-1.3442333585352686,0.04884422617240207,93.06980709121333,0.0
1427,-1.3713553259339903,0.02252921685460832,96.77419354838707,0.0
1428,-1.4065867761578363,-0.008537829684562584,100.78568937575645,0.0
1429,-1.4464547478829741,-0.041445093859198326,105.11264361258299,0.0
1430,-1.4854716577111986,-0.07193543133415482,109.75909446326841,0.0
1431,-1.5170506939372868,-0.09513448644824293,114.72270869819029,0.0
1432,-1.5347338325915556,-0.10640589523534263,119.99218451067708,0.0
1433,-1.53348881282119,-0.10217913107947757,125.5440754337697,0.0
1434,-1.5107817507509163,-0.0806004325201389,131.33905418771886,0.0
1435,-1.4671646025839689,-0.04189204761837001,137.31774351329946,0.0
1436,-1.4062295002611287,0.011636985875443456,143.39640998200124,0.0
1437,-1.3339436754317715,0.0759166430261558,149.46305253871188,0.0
1438,-1.2575393864425366,0.14570246892455788,155.37470614899692,0.0
1439,-1.1842420768725783,0.21530215096100006,160.9570715619573,0.0
1440,-1.1201432446733295,0.2793049173205498,166.00777158303765,0.0
1441,-1.0694581996433714,0.3331906433529278,170.30446588479973,0.0
1442,-1.0342796329548645,0.37373447082032135,173.61855512233038,0.0
1443,-1.0147914081059122,0.3991749966006096,175.73416317916792,0.0
1444,-1.0097901239492042,0.4091657429398611,176.47058823529412,1.0
1445,-1.0173072277675226,0.40456829037546804,176.38293950878315,0.0
1446,-1.0351410324716128,0.387163481536828,176.12319947859143,0.0
1447,-1.0611807038733463,0.3593531451889339,175.69689300617227,0.0
1448,-1.0934994581286104,0.3239034570832351,175.11041890655792,0.0
1449,-1.1302736303774616,0.28375095100825454,174.3709428702886,0.0
1450,-1.169623151458428,0.2418631161995201,173.48628470292195,0.0
1451,-1.2094671296785238,0.2011257255326711,172.4648026999555,0.0
1452,-1.24746483758491,0.16422330739698626,171.31527782130297,0.0
1453,-1.2810872378886853,0.13348796260129156,170.0468000955001,0.0
1454,-1.3078415300547608,0.11071144502942841,168.6686593887401,0.0
1455,-1.3256405998419403,0.09693955598631043,167.1902423376593,0.0
1456,-1.3332617998158869,0.09228871207371109,165.62093688697004,0.0
1457,-1.330784018807275,0.09583506619907639,163.97004551140276,0.0
1458,-1.3198560687054133,0.10562250073550905,162.24670785132935,0.0
1459,-1.303663188685791,0.11881693499055057,160.45983316530715,0.0
1460,-1.286532930873256,0.13200486785358978,158.61804270983234,0.0
1461,-1.2732362066765424,0.14160152733937387,156.72962190293552,0.0
1462,-1.2681474770358758,0.14430732926040857,154.80248191710606,0.0
1463,-1.2744807731685313,0.137538031511185,152.84413017910438,0.0
1464,-1.2937910052191854,0.11975768903629014,150.861649128171,0.0
1465,-1.325837566261635,0.09066303023250889,148.86168249705622,0.0
1466,-1.3687936897052044,0.05119756004067208,146.85042832817118,0.0
1467,-1.4196968809475927,0.003405476671552915,144.83363791533532,0.0
1468,-1.474997883577211,-0.04983854020956088,142.8166198651139,0.0
1469,-1.53107603302018,-0.1051728730775752,140.80424849565185,0.0
1470,-1.5846302893459985,-0.15911317088127477,138.8009758305201,0.0
1471,-1.6329093969229749,-0.2083933914205673,136.8108464960803,0.0
1472,-1.6737972710021156,-0.2502546706180137,134.83751488944705,0.0
1473,-1.7058087488215925,-0.28266821156556937,132.8842640470201,0.0
1474,-1.7280656413657862,-0.3044894377985422,130.95402570807693,0.0
1475,-1.7403088993778566,-0.31554534771463083,129.04940113189818,0.0
1476,-1.7429656421808044,-0.31665590732664534,127.17268228868826,0.0
1477,-1.7372453380580521,-0.3095862589443201,125.32587310292598,0.0
1478,-1.725205832234048,-0.29692337882534037,123.51071048191007,0.0
1479,-1.7097205614502233,-0.2818720102503184,121.7286849116382,0.0
1480,-1.6942972379949608,-0.26797194032338334,119.98106044652496,0.0
1481,-1.682739403707907,-0.25875134818250856,118.26889395878635,0.0
1482,-1.6786909518382065,-0.25734622211776403,116.5930535477106,0.0
1483,-1.6851415855659344,-0.26612958866402003,114.95423603872787,0.0
1484,-1.7039839394004532,-0.2864022667116457,113.35298352749744,0.0
1485,-1.735698764087241,-0.31819586387207666,111.78969894550552,0.0
1486,-1.7792152936717578,-0.36022746992239796,110.26466064130055,0.0
1487,-1.8319669984665192,-0.4100249008468448,108.77803598587191,0.0
1488,-1.8901466776022442,-0.46421444566687237,107.32989402219282,0.0
1489,-1.9491516921073209,-0.5189345517079649,105.92021718796528,0.0
1490,-2.004184901632013,-0.570314346705938,104.54891214747175,0.0
1491,-2.0509337719837,-0.6149408527878855,103.21581977347313,0.0
1492,-2.0862033791998233,-0.6502374296097477,101.92072432358476,0.0
1493,-2.108356763295519,-0.6746901083091456,100.6633618577718,0.0
1494,-2.11744137867731,-0.687886350025495,99.44342794476063,0.0
1495,-2.1149541566921988,-0.690367150735275,98.26058470546674,0.0
1496,-2.10329630557397,-0.6833304641525624,97.11446724116499,0.0
1497,-2.08505732969988,-0.6682530199709593,96.00468949322773,0.0
1498,-2.062316310125107,-0.6465117510020492,94.9308495799551,0.0
1499,-2.036142585169898,-0.6190818286333885,93.89253465443159,0.0
1500,-2.0064186453803043,-0.5863670837530112,92.88932532555229,0.0
1501,-1.9720112122969846,-0.5481861122703708,91.92079968244701,0.0
1502,-1.931212198037066,-0.5039021364272731,90.98653696055325,0.0
1503,-1.8822968382337961,-0.4526554862004571,90.08612088560236,0.0
1504,-1.8240296845497885,-0.39364090655488587,89.21914272982342,0.0
1505,-1.7559924763123096,-0.3263703656673232,88.38520411277565,0.0
1506,-1.6786860342227907,-0.25087389848518177,87.58391957741568,0.0
1507,-1.5934350429749882,-0.16781121037560667,86.81491897031027,0.0
1508,-1.5021732095990015,-0.07848881474304192,86.07784965333894,0.0
1509,-1.4071987276484457,0.015204413567703912,85.37237857280392,0.0
1510,-1.3109721811135087,0.11091978308785905,84.69819421058838,0.0
1511,-1.2159925001652332,0.20600354670361837,84.05500844088806,0.0
1512,-1.1247447134174149,0.2976620242268745,83.44255831509243,0.0
1513,-1.0396807407149782,0.3831224877059478,82.86060779661551,0.0
1514,-0.9631838673402934,0.4597824083027986,82.30894946688466,0.0
1515,-0.8974822720375913,0.5253445090623408,81.78740622328861,0.0
1516,-0.8445078307685482,0.5779367767378105,81.29583298968056,0.0
1517,-0.8057265496038549,0.6162157563072815,80.83411846003062,0.0
1518,-0.7819822671453259,0.6394494672523684,80.40218689604208,0.0
1519,-0.7733915829781305,0.6475745666113957,80.0,1.0
1520,-0.7793109358212609,0.641221842643658,79.61386225549688,0.0
1521,-0.7983763708238993,0.621704931933973,79.23014161192658,0.0
1522,-0.8286014670748246,0.5909689236865607,78.84892135435001,0.0
1523,-0.8675130557161956,0.5514976649768792,78.47028103278679,0.0
1524,-0.9123063611770347,0.5061807097111988,78.09429657159538,0.0
1525,-0.960006732304018,0.45814296115496267,77.72104037840391,0.0
1526,-1.007630863353937,0.4105425221223796,77.35058145242301,0.0
1527,-1.0523460438901033,0.3663456125173792,76.98298549198503,0.0
1528,-1.0916321061529703,0.3280919519989399,76.61831500116897,0.0
1529,-1.1234547004676056,0.297669481503145,76.25662939538188,0.0
1530,-1.1464539096128343,0.27612268573185883,75.89798510578055,0.0
1531,-1.1601345723454264,0.2635223488070967,75.54243568242909,0.0
1532,-1.1650190007089511,0.25892428440732457,75.19003189609812,0.0
1533,-1.1627042041185078,0.26043873355460445,74.84082183862351,0.0
1534,-1.1557701573405894,0.26542009257147503,74.49485102175032,0.0
1535,-1.1475166626066482,0.27076938057303435,74.15216247439932,0.0
1536,-1.1415507197256656,0.2733219969006778,73.81279683830036,0.0
1537,-1.141283321467631,0.2702746859457905,73.4767924619466,0.0
1538,-1.1494115342675422,0.2595924359108477,73.14418549283047,0.0
1539,-1.1674614893823954,0.24033191238421642,72.81500996793038,0.0
1540,-1.1954621749012249,0.21282511449651717,72.48929790242332,0.0
1541,-1.2318151393850594,0.17868528529536246,72.16707937660559,0.0
1542,-1.2734146888950366,0.14062437416387774,71.84838262100939,0.0
1543,-1.3160425043638004,0.10210298345847421,71.53323409970895,0.0
1544,-1.3550025469731664,0.06686364330655149,71.2216585918146,0.0
1545,-1.3858888239061598,0.038420040692842786,70.91367927115876,0.0
1546,-1.4053209032102003,0.019583337818450175,70.60931778418131,0.0
1547,-1.4114735029549605,0.01209958794404245,70.30859432602682,0.0
1548,-1.4042810080077737,0.01645081578732352,70.01152771486912,0.0
1549,-1.385296924334694,0.03184142391461295,69.71813546448298,0.0
1550,-1.3572885754261368,0.056358313741273286,69.42843385508502,0.0
1551,-1.3237050348344537,0.08726480732008682,69.1424380024695,0.0
1552,-1.2881532449323363,0.12137068855720314,68.86016192546745,0.0
1553,-1.253969895665486,0.15541592816783306,68.58161861175897,0.0
1554,-1.2239215795786627,0.18641306306501176,68.30682008207232,0.0
1555,-1.2000329894365667,0.21190931094553994,68.03577745280404,0.0
1556,-1.183536247263222,0.23014951765454905,67.76850099709701,0.0
1557,-1.1749338990579021,0.24014013591282496,67.5050002044145,0.0
1558,-1.174152221205195,0.24162882045654263,67.24528383865028,0.0
1559,-1.1807303329149008,0.23502180779962933,66.98935999481535,0.0
1560,-1.1939689644146383,0.22126196541851262,66.73723615434402,0.0
1561,-1.2129791156906298,0.2016860991934419,66.4889192390623,0.0
1562,-1.2366297936464834,0.17787394203843673,66.24441566386292,0.0
1563,-1.2634659527437992,0.15149650854832591,66.00373138813208,0.0
1564,-1.2917063643821458,0.12417029705018906,65.76687196597364,0.0
1565,-1.319405377289548,0.09732606648828132,65.53384259527728,0.0
1566,-1.3447792395010671,0.07210425020658764,65.30464816567759,0.0
1567,-1.3665989718263036,0.04928991870141278,65.07929330545157,0.0
1568,-1.3844910303072004,0.029295650209323842,64.85778242740278,0.0
1569,-1.399000027084686,0.01219027828116892,64.64011977378011,0.0
1570,-1.411355691320225,-0.0022418540673656284,64.42630946028044,0.0
1571,-1.4230147826912207,-0.014437338278114525,64.21635551918378,0.0
1572,-1.4351614694212542,-0.025014562249749697,64.01026194167086,0.0
1573,-1.4483906561393558,-0.03477853690082214,63.80803271937232,0.0
1574,-1.4627377034605002,-0.04476956843771751,63.60967188519989,0.0
1575,-1.478069933526418,-0.05633159808697698,63.41518355350968,0.0
1576,-1.4946811934813666,-0.07115671672216717,63.22457195964823,0.0
1577,-1.5138131515699946,-0.09125649810545569,63.03784149893199,0.0
1578,-1.537829183906115,-0.11882295466616208,62.85499676511176,0.0
1579,-1.5698966307727502,-0.1559702464957141,62.67604258837317,0.0
1580,-1.613235214666763,-0.20438468906436458,62.5009840729254,0.0
1581,-1.67017102873283,-0.26494356212572473,62.3298266342303,0.0
1582,-1.7413149122868632,-0.33738190893793063,62.16257603592471,0.0
1583,-1.825131001691289,-0.42008475732733896,61.99923842648887,0.0
1584,-1.9180087637517875,-0.510060478264843,61.83982037571529,0.0
1585,-2.0147743578779433,-0.6031158905991673,61.684328911031635,0.0
1586,-2.1094506924321013,-0.6942151206481709,61.53277155373338,0.0
1587,-2.1960422545092144,-0.777971742192407,61.385156355181465,0.0
1588,-2.2691756213434138,-0.8492037080804166,61.24149193302175,0.0
1589,-2.324527755570114,-0.9034748683563194,61.1017875074836,0.0
1590,-2.359068073854632,-0.937553386210264,60.96605293781625,0.0
1591,-2.3711865210992618,-0.9497320381925393,60.83429875892225,0.0
1592,-2.3607673779742693,-0.9399742188988426,60.70653621824876,0.0
1593,-2.3292170229125393,-0.909869861349094,60.582777312998765,0.0
1594,-2.2794008516640187,-0.8624063617447608,60.46303482772581,0.0
1595,-2.2154237264097842,-0.8015805635431668,60.3473223723768,0.0
1596,-2.1422122872758,-0.7318979967887923,60.235654420850096,0.0
1597,-2.0649150971487584,-0.657822674364221,60.12804635013686,0.0
1598,-1.988203536912089,-0.5832514113261135,60.0245144801167,0.0
1599,-1.9156073619944076,-0.5110872454084538,59.92507611407978,0.0
1600,-1.8490343779432545,-0.442974747812946,59.829749580050695,0.0
1601,-1.7885937135270153,-0.3792360531179082,59.73855427299153,0.0
1602,-1.732771182974521,-0.3190136900614722,59.65151069796412,0.0
1603,-1.6789152676419463,-0.26059083431538715,59.568640514334994,0.0
1604,-1.6239155154047078,-0.20182877311996822,59.48996658110919,0.0
1605,-1.5649174059834987,-0.14064186214455932,59.41551300348228,0.0
1606,-1.4999250923880239,-0.07542631747012674,59.34530518070477,0.0
1607,-1.4281837767680283,-0.005371526525238979,59.27936985535531,0.0
1608,-1.3502890357232857,0.06939177621378978,59.21773516412493,0.0
1609,-1.2680282415179704,0.14781893680099734,59.16043069021805,0.0
1610,-1.1840116489128534,0.22813333535960623,59.10748751748128,0.0
1611,-1.1011901571505318,0.308114718725501,59.058938286376545,0.0
1612,-1.0223740760159021,0.3854301740916035,59.01481725191991,0.0
1613,-0.9498560826551986,0.45794209402488983,58.97516034371447,0.0
1614,-0.8852039116065844,0.5239384141016966,58.940005228211604,0.0
1615,-0.8292358598076087,0.58225080444907,58.90939137334187,0.0
1616,-0.782142722321045,0.6322515094147747,58.883360115664615,0.0
1617,-0.7436904599674723,0.6737440731043488,58.86195473019314,0.0
1618,-0.7134375817267191,0.7067830252797256,58.84522050306092,0.0
1619,-0.6909251073002645,0.7314699359423784,58.833204807203884,0.0
1620,-0.6758277582948657,0.7477767750194675,58.82595718124326,0.0
1621,-0.6680721082690588,0.7554421114142,58.8235294117647,1.0
1622,-0.6679198278182661,0.7539720516531747,58.82524564673498,0.0
1623,-0.6759887630135959,0.742757369840384,58.8303639754837,0.0
1624,-0.6931633009681848,0.7212933754203418,58.83883969525847,0.0
1625,-0.7203521164943123,0.6894633328142787,58.85062921067447,0.0
1626,-0.7580957705928361,0.6478246231246705,58.86568998343745,0.0
1627,-0.8060959717808228,0.597824939289622,58.883980483588346,0.0
1628,-0.8628019384209311,0.5418785682208456,58.90546014218642,0.0
1629,-0.9252140035181126,0.48325272653554463,58.930089305351146,0.0
1630,-0.9890314382514618,0.42574950402635614,58.95782918958715,0.0
1631,-1.0491850413350254,0.37321421408747213,58.988641838320724,0.0
1632,-1.100681942708034,0.32894610605788815,59.022490079579576,0.0
1633,-1.1395883877926385,0.29512113677719315,59.05933748475063,0.0
1634,-1.163920490930335,0.2723488796346162,59.099148328354545,0.0
1635,-1.1742201433664476,0.25947099312169963,59.14188754877793,0.0
1636,-1.1736573845986866,0.2536675375867138,59.18752070990731,0.0
1637,-1.167598958029349,0.2508770437221219,59.23601396361187,0.0
1638,-1.16269091928249,0.24646921396918442,59.28733401302393,0.0
1639,-1.1656054326112986,0.2360507696272123,59.34144807656922,0.0
1640,-1.1816888619303825,0.21624964967951107,59.39832385270075,0.0
1641,-1.2138043969970636,0.18532041629461662,59.45792948529273,0.0
1642,-1.2616604811674075,0.14344685611929772,59.52023352965276,0.0
1643,-1.3218304726751282,0.09268028238726658,59.58520491911257,0.0
1644,-1.3885003285149002,0.036530089204341254,59.652812932159804,0.0
1645,-1.4547730533308174,-0.02070179374003081,59.72302716007471,0.0
1646,-1.5141856905026867,-0.07469712115298932,59.795817475037715,0.0
1647,-1.5620276041380916,-0.12184353843284337,59.87115399867533,0.0
1648,-1.5961182053512586,-0.15975755166514086,59.94900707101391,0.0
1649,-1.616882204411746,-0.1875152659026267,60.02934721981143,0.0
1650,-1.6267813583722666,-0.2055685955798692,60.11214513024017,0.0
1651,-1.6293423866163697,-0.2153955333793754,60.19737161489371,0.0
1652,-1.6281023295689072,-0.21898713964717928,60.28499758409359,0.0
1653,-1.6257596847150206,-0.21829999615638418,60.37499401647213,0.0
1654,-1.623702192667533,-0.2147979073089654,60.46733192980951,0.0
1655,-1.6219386652241914,-0.20917540540451562,60.561982352104266,0.0
1656,-1.6193510511351668,-0.20130825771520042,60.65891629285795,0.0
1657,-1.6141356154630166,-0.19042471183332046,60.75810471455572,0.0
1658,-1.6043133634593918,-0.17544640752699708,60.85951850432612,0.0
1659,-1.588228436978313,-0.15541720702062722,60.96312844576443,0.0
1660,-1.5649853353329057,-0.12992524515353043,61.06890519090532,0.0
1661,-1.5347849603326582,-0.0994284203457986,61.17681923233147,0.0
1662,-1.4991118471552312,-0.06541390814725428,61.286840875406675,0.0
1663,-1.4607204375194427,-0.03035390550988097,61.39894021062245,0.0
1664,-1.423385315983923,0.0025426245102051076,61.51308708604873,0.0
1665,-1.391423566754044,0.029744951968347894,61.62925107988076,0.0
1666,-1.3690542947875546,0.04791376826418551,61.747401473074774,0.0
1667,-1.359708576448615,0.05442429407990716,61.86750722206715,0.0
1668,-1.3654237641527556,0.04780663044459726,61.98953693157216,0.0
1669,-1.3864434880029533,0.028022768993095748,62.11345882745548,0.0
1670,-1.4211062500219271,-0.0034735125821358376,62.239240729681164,0.0
1671,-1.4660536207894583,-0.04391071704136901,62.36685002533163,0.0
1672,-1.516733449523075,-0.08958409663723993,62.49625364170126,0.0
1673,-1.5681196725857425,-0.13639049385013596,62.62741801946545,0.0
1674,-1.6155236690748411,-0.18042769653474594,62.76030908592868,0.0
1675,-1.6553426877627575,-0.2185618758490183,62.89489222835594,0.0
1676,-1.685592806177463,-0.24887286902177122,63.031132267393936,0.0
1677,-1.7061177347273548,-0.27090815959539893,63.168993430589225,0.0
1678,-1.718446459815133,-0.28570768875092806,63.308439326012504,0.0
1679,-1.725367622303615,-0.2955968765479453,63.449432915999196,0.0
1680,-1.730358131242322,-0.303778395583172,63.591936491018366,0.0
1681,-1.7370144250072643,-0.31377993811427296,63.73591164368325,0.0
1682,-1.74858076989576,-0.3288334002015928,63.88131924291855,0.0
1683,-1.7675810105233332,-0.35127043722269535,64.02811940830081,0.0
1684,-1.7954934438695809,-0.3820207547328243,64.17627148459003,0.0
1685,-1.8324094888874907,-0.42029264810457273,64.32573401647262,0.0
1686,-1.8766907945218199,-0.46349885027122145,64.47646472353651,0.0
1687,-1.9247423305817717,-0.5074629347157142,64.62842047550217,0.0
1688,-1.9710823232926564,-0.5469020977721157,64.781557267734,0.0
1689,-2.0088618219082592,-0.5761344458907818,64.93583019705883,0.0
1690,-2.0308622174307858,-0.5899108668737314,65.09119343791966,0.0
1691,-2.0308225300944227,-0.5842346848264673,65.2476002188951,0.0
1692,-2.0047918143927688,-0.5570186207236597,65.40500279961621,0.0
1693,-1.9521339980070214,-0.5084464492880302,65.56335244811447,0.0
1694,-1.8758695374333967,-0.4409570519306899,65.72259941863665,0.0
1695,-1.7822093526607348,-0.3588430222101694,65.88269292996381,0.0
1696,-1.6793651457737602,-0.2675383177877427,66.04358114427403,0.0
1697,-1.5759270631603672,-0.17273943965904703,66.20521114658956,0.0
1698,-1.4792162756437368,-0.07954368145315377,66.36752892485207,0.0
1699,-1.3940160597763311,0.008215334473420932,66.53047935067015,0.0
1700,-1.321973728844164,0.08830112512174337,66.69400616078656,0.0
1701,-1.2617889734059389,0.16002234229586915,66.85805193931309,0.0
1702,-1.210110165504182,0.22383360522975293,67.02255810078408,0.0
1703,-1.162890798510959,0.2807108394733802,67.18746487408042,0.0
1704,-1.1168468463714014,0.33147584338531505,67.35271128727797,0.0
1705,-1.0706281882641748,0.37625414976066274,67.51823515347645,0.0
1706,-1.0253867879614365,0.41421344307203406,67.68397305766578,0.0
1707,-0.9845822316017718,0.4436560106910876,67.84986034468919,0.0
1708,-0.9530740246387985,0.4624464290727601,68.01583110836339,0.0
1709,-0.9357496648967168,0.46866795150926605,68.18181818181819,1.0
1710,-0.9360652363789245,0.4613395584757215,68.35407285332724,0.0
1711,-0.954891000023565,0.4410052156404178,68.53872917140556,0.0
1712,-0.9899579378951145,0.4100320481594235,68.73554709323736,0.0
1713,-1.0360313415078848,0.3725182805622975,68.94429094294641,0.0
1714,-1.0857535879397173,0.33379935041688064,69.1647283311646,0.0
1715,-1.1309534439377358,0.29963126168899723,69.39662909297789,0.0
1716,-1.1641416222060055,0.2752038855995186,69.63976424056995,0.0
1717,-1.179901972330231,0.2641780499879303,69.8939049272329,0.0
1718,-1.175927846945823,0.2679409383956659,70.15882141975,0.0
1719,-1.1535246666879624,0.2852351994958781,70.4342820764788,0.0
1720,-1.1174892670382868,0.31224677470275936,70.72005232878129,0.0
1721,-1.0753764827063579,0.3431491175076157,71.01589366376126,0.0
1722,-1.0362656551437297,0.3710144250339951,71.32156260658434,0.0
1723,-1.0092311528339089,0.38893260649501954,71.63680970097356,0.0
1724,-1.001783390535264,0.3911394098127777,71.9613784867993,0.0
1725,-1.0185631453737591,0.3739539145620214,72.29500447401504,0.0
1726,-1.0605340029162733,0.3363625604884952,72.63741411253886,0.0
1727,-1.1248299795205032,0.28015455329626715,72.98832375804005,0.0
1728,-1.2052928574689288,0.20959820642811533,73.34743863397013,0.0
1729,-1.2935981382701494,0.13073234233959274,73.71445179057434,0.0
1730,-1.380745496144935,0.05041412119659067,74.08904306203877,0.0
1731,-1.4586073656512013,-0.024698809974505576,74.47087802337022,0.0
1732,-1.5212130942718074,-0.08905470093567566,74.85960694907135,0.0
1733,-1.565508372514119,-0.13886157883975983,75.25486377616451,0.0
1734,-1.591460790819019,-0.17240909329546325,75.65626507463473,0.0
1735,-1.6015492518248482,-0.19005011625328821,76.06340902890369,0.0
1736,-1.5998300672777226,-0.1938978740902122,76.47587443451471,0.0
1737,-1.5908696676474385,-0.18733683978852797,76.8932197147999,0.0
1738,-1.5788432149483083,-0.17445904368355863,77.31498196291449,0.0
1739,-1.5670161828315945,-0.15952293336800485,77.74067601525715,0.0
1740,-1.5576766343667643,-0.14649829317968782,78.16979356294445,0.0
1741,-1.5524180776109686,-0.13872153810263288,78.60180230866959,0.0
1742,-1.5525466911733004,-0.13865448547018228,79.03614517694282,0.0
1743,-1.5593531989708556,-0.1477255298945174,79.47223958637875,0.0
1744,-1.574066643910774,-0.16623661731682055,79.90947679335433,0.0
1745,-1.5974669342885597,-0.19333649146775111,80.34722131700374,0.0
1746,-1.6293095340400114,-0.22707928277790954,80.7848104561289,0.0
1747,-1.667832336578617,-0.26459600641170933,81.22155390917958,0.0
1748,-1.7096178625614158,-0.3023975115384058,81.65673350897687,0.0
1749,-1.7499673958796653,-0.3368007881604939,82.08960308430771,0.0
1750,-1.783752930506031,-0.3644338452287324,82.51938846088716,0.0
1751,-1.8065253187872286,-0.3827401869971304,82.94528761445504,0.0
1752,-1.815548527169233,-0.3903852360361473,83.36647098892334,0.0
1753,-1.810442222191259,-0.38747257321779677,83.78208199250402,0.0
1754,-1.7932399073455711,-0.3755088104921675,84.19123768460251,0.0
1755,-1.7678554948115068,-0.35710556529073534,84.59302966594188,0.0
1756,-1.7391256031235733,-0.335462957463892,84.98652518386542,0.0
1757,-1.7116973743538693,-0.3137271867795072,85.37076846403447,0.0
1758,-1.6890373176570601,-0.294343458189277,85.74478227877434,0.0
1759,-1.6727624219850121,-0.27852869386628615,86.1075697611095,0.0
1760,-1.6623840690031182,-0.2659664990196239,86.45811647205753,0.0
1761,-1.65545298918435,-0.25478565666261355,86.79539272700686,0.0
1762,-1.648026254438938,-0.24183222197115517,87.118356184985,0.0
1763,-1.63534887590379,-0.2231940013460434,87.42595470232453,0.0
1764,-1.6126414234173843,-0.19489342952960864,87.71712944966461,0.0
1765,-1.5758950457823708,-0.15363669044258382,87.99081828839049,0.0
1766,-1.5225839522834437,-0.09749663840540822,88.2459593995355,0.0
1767,-1.452209341639916,-0.0264153541589897,88.48149515486897,0.0
1768,-1.366594461191369,0.05756248128590924,88.69637621640751,0.0
1769,-1.2698691071592532,0.15037513239101227,88.8895658469511,0.0
1770,-1.1681189633203857,0.24635014325118076,89.06004441051383,0.0
1771,-1.0687240340538922,0.3388829532525524,89.20681403774387,0.0
1772,-0.979457096267006,0.4212935848684367,89.32890342767533,0.0
1773,-0.9074487538462014,0.48773351884349425,89.42537275349488,0.0
1774,-0.8581525981748753,0.5339997307927821,89.49531863651424,0.0
1775,-0.8344671339070473,0.5581206837467219,89.53787914929647,0.0
1776,-0.8361843478637435,0.5606109363631531,89.55223880597015,1.0
1777,-0.8599178193923718,0.5443436828304682,89.54232843686226,0.0
1778,-0.8995955638508502,0.5140560948662045,89.51292361585715,0.0
1779,-0.9474836783290984,0.47556904711501125,89.46453192319571,0.0
1780,-0.9955654635184495,0.4348571405519115,89.3976834263476,0.0
1781,-1.0369869907929086,0.3971346160030367,89.31292852966038,0.0
1782,-1.067241210014705,0.36612003180069336,89.21083582569648,0.0
1783,-1.084819015167391,0.34360674300165517,89.09198996096055,0.0
1784,-1.0911910432211518,0.3294043074685623,88.95698952792934,0.0
1785,-1.0901546397435506,0.3216413663076617,88.80644499443639,0.0
1786,-1.086734824863508,0.31734982619646235,88.64097668054907,0.0
1787,-1.0859250709117612,0.31319876225654064,88.46121279212396,0.0
1788,-1.091572072804775,0.3062248623950464,88.26778751924745,0.0
1789,-1.1056488691751598,0.29441753518208824,88.06133920678188,0.0
1790,-1.1280422134622254,0.27705630287749605,87.84250860324966,0.0
1791,-1.1568373315143607,0.2547550304047797,87.61193719331513,0.0
1792,-1.188958148543072,0.22922826553872333,87.37026561817447,0.0
1793,-1.2209518449642123,0.2028466401433387,87.1181321872459,0.0
1794,-1.2497125778732832,0.17808184451692038,86.8561714836769,0.0
1795,-1.2730097181276314,0.15695336365514168,86.58501306535477,0.0
1796,-1.2897822222061825,0.1405802362414501,86.30528026232963,0.0
1797,-1.3002346688379844,0.12891631255513344,86.01758907083706,0.0
1798,-1.305791347675733,0.12071297218905971,85.72254714344602,0.0
1799,-1.3089367233244407,0.11371483647243186,85.42075287425561,0.0
1800,-1.3129280515886554,0.10505646054441631,85.11279457752444,0.0
1801,-1.3213499782717983,0.09179526165784947,84.79924975763835,0.0
1802,-1.3375128539549308,0.0714917098813474,84.4806844679049,0.0
1803,-1.3637654738672274,0.04273574256262723,84.15765275530408,0.0
1804,-1.4008638873621764,0.005521641815519951,83.83069618802446,0.0
1805,-1.4475714356699916,-0.03860622469048111,83.50034346236669,0.0
1806,-1.5006375364744362,-0.0866787177156376,83.1671100854016,0.0
1807,-1.5552165652450252,-0.13469394387626785,82.8314981296233,0.0
1808,-1.605671060795765,-0.17822282211317494,82.49399605573586,0.0
1809,-1.6465962244167003,-0.2131332692007027,82.1550785996516,0.0
1810,-1.673842379398676,-0.2363120747437433,81.81520671975565,0.0
1811,-1.685316912251358,-0.24625899668042273,81.47482760050303,0.0
1812,-1.68141005807826,-0.24344572105122922,81.13437470845517,0.0
