,PPG_Raw,PPG_Clean,PPG_Rate,PPG_Peaks
0,-4.406515408024047,0.6689165237177216,85.55657773689052,0.0
1,-4.354494643762272,0.7260409400390271,85.55657773689052,0.0
2,-4.300751951174825,0.7843311373370344,85.55657773689052,0.0
3,-4.244017811803488,0.8445209416428635,85.55657773689052,0.0
4,-4.183811691394162,0.9067890291043673,85.55657773689052,0.0
5,-4.120642134664674,0.9706056525783046,85.55657773689052,0.0
6,-4.0560091022600355,1.0347297180972266,85.55657773689052,0.0
7,-3.9921873673444472,1.0973632193919352,85.55657773689052,0.0
8,-3.931816694157772,1.1564408000453175,85.55657773689052,0.0
9,-3.8773764898570433,1.2100072295662088,85.55657773689052,0.0
10,-3.8306606465179094,1.2566189784979238,85.55657773689052,0.0
11,-3.7923742710786246,1.2957001309561196,85.55657773689052,0.0
12,-3.761941414667817,1.3277876609226609,85.55657773689052,0.0
13,-3.737552629953867,1.354614806793777,85.55657773689052,0.0
14,-3.7164179550322665,1.3790010566759627,85.55657773689052,0.0
15,-3.6951513139150536,1.4045402984515818,85.55657773689052,0.0
16,-3.6702108442651182,1.4351030455362581,85.55657773689052,0.0
17,-3.6383513180715705,1.4741933676546433,85.55657773689052,0.0
18,-3.5970878812717304,1.5242256236439684,85.55657773689052,0.0
19,-3.545196865350019,1.585808893122004,85.55657773689052,0.0
20,-3.4832682063757248,1.6571448905290185,85.55657773689052,0.0
21,-3.414271082828538,1.733652831709235,85.55657773689052,0.0
22,-3.3440173798666013,1.8079259119550701,85.55657773689052,0.0
23,-3.281341212147205,1.8700936390583347,85.55657773689052,0.0
24,-3.2377957768169168,1.9086110612633067,85.55657773689052,0.0
25,-3.2267274844114016,1.9114248889371623,85.55657773689052,0.0
26,-3.2617221752585293,1.8673893322671908,85.55657773689052,0.0
27,-3.3545998723700245,1.7677379623295373,85.55657773689052,0.0
28,-3.5133096852419485,1.6073800803698384,85.55657773689052,0.0
29,-3.7401832443456597,1.3857950584711953,85.55657773689052,0.0
30,-4.030993883874418,1.1073511702281655,85.55657773689052,0.0
31,-4.375123180399839,0.7809700457380226,85.55657773689052,0.0
32,-4.75688433306431,0.4191760053047262,85.55657773689052,0.0
33,-5.157761019615428,0.036685349145241575,85.55657773689052,0.0
34,-5.559078041613281,-0.3512228479787787,85.55657773689052,0.0
35,-5.944504495712947,-0.730276703636394,85.55657773689052,0.0
36,-6.301843257436993,-1.0884674475365228,85.55657773689052,0.0
37,-6.623769320606801,-1.416812546171306,85.55657773689052,0.0
38,-6.907476114169101,-1.709557267535641,85.55657773689052,0.0
39,-7.153476108250881,-1.9638627449089197,85.55657773689052,0.0
40,-7.363992075366609,-2.1791248168802793,85.55657773689052,0.0
41,-7.541419149286667,-2.3561230305886034,85.55657773689052,0.0
42,-7.687239080271379,-2.4962045531102146,85.55657773689052,0.0
43,-7.8015788630528045,-2.6006677743535898,85.55657773689052,0.0
44,-7.883397664720363,-2.6704400792589,85.55657773689052,0.0
45,-7.931119560996011,-2.7060639763246304,85.55657773689052,0.0
46,-7.943444431252183,-2.707935254285119,85.55657773689052,0.0
47,-7.9200783742903536,-2.6766902953141156,85.55657773689052,0.0
48,-7.862207937097341,-2.61362306623074,85.55657773689052,0.0
49,-7.772653298632845,-2.5210234105587643,85.55657773689052,0.0
50,-7.655728760841346,-2.4023589149464177,85.55657773689052,0.0
51,-7.516893463421396,-2.262262143165932,85.55657773689052,0.0
52,-7.3622948419286285,-2.1063235544922785,85.55657773689052,0.0
53,-7.198301427232951,-1.9407212153501026,85.55657773689052,0.0
54,-7.0310929035224605,-1.7717387083403384,85.55657773689052,0.0
55,-6.866327606262078,-1.6052330644395136,85.55657773689052,0.0
56,-6.708858647375606,-1.446117549125796,85.55657773689052,0.0
57,-6.562448265189988,-1.2979221710092679,85.55657773689052,0.0
58,-6.429454646910874,-1.1624889107673613,85.55657773689052,0.0
59,-6.310527399590856,-1.0398481900658898,85.55657773689052,0.0
60,-6.204412533232331,-0.9283063556227744,85.55657773689052,0.0
61,-6.107995439765911,-0.8247499086783797,85.55657773689052,0.0
62,-6.016678231096391,-0.7251420588482526,85.55657773689052,0.0
63,-5.925101587375894,-0.625155129665188,85.55657773689052,0.0
64,-5.828111305620349,-0.5208550589752403,85.55657773689052,0.0
65,-5.721777034531892,-0.40933902230626373,85.55657773689052,0.0
66,-5.604230215065252,-0.28922951601115365,85.55657773689052,0.0
67,-5.476116846018442,-0.16094949199740904,85.55657773689052,0.0
68,-5.3405528096372405,-0.026739729511754406,85.55657773689052,0.0
69,-5.202599538575745,0.1095764066225321,85.55657773689052,0.0
70,-5.068406361569984,0.24303445711438043,85.55657773689052,0.0
71,-4.944249572542464,0.3681010121934444,85.55657773689052,0.0
72,-4.835704771626266,0.47928920422453647,85.55657773689052,0.0
73,-4.747113771380086,0.5717363599469278,85.55657773689052,0.0
74,-4.681381607041608,0.641681903129867,85.55657773689052,0.0
75,-4.640018738648652,0.6868084379644815,85.55657773689052,0.0
76,-4.623280547425041,0.7064317267352043,85.55657773689052,1.0
77,-4.6302718158381815,0.7015410625478435,86.33792306835706,0.0
78,-4.658960078730831,0.6746994586409938,87.12589766930179,0.0
79,-4.706135672631491,0.6298159510632255,87.92013749796502,0.0
80,-4.767423246505539,0.5718047846968728,88.72024934711601,0.0
81,-4.837460568637805,0.5061523068633709,89.52580963925458,0.0
82,-4.910311128373607,0.4384233280199864,90.33636323212255,0.0
83,-4.980087922197284,0.3737523959634877,91.15142224206153,0.0
84,-5.041675365211664,0.316377086915822,91.97046489352967,0.0
85,-5.091384048854608,0.2692745272043096,92.79293440389144,0.0
86,-5.127380237278565,0.23395491301040017,93.61823791341654,0.0
87,-5.149791661327275,0.2104459703678246,94.44574547125708,0.0
88,-5.160475626954166,0.19747298201975647,95.27478908901121,0.0
89,-5.162513616889882,0.19280606418799584,96.1046618743124,0.0
90,-5.15954788055988,0.19371699870745585,96.93461725769914,0.0
91,-5.155093279172196,0.1974687026590764,97.76386832680247,0.0
92,-5.151945380088144,0.20175569544642682,98.59158728262743,0.0
93,-5.151773021117166,0.20502486463452285,99.41690503338117,0.0
94,-5.154942587270436,0.20663028322364957,100.23891094189433,0.0
95,-5.160582540659093,0.2068088929448268,101.05665274317991,0.0
96,-5.1668641174529775,0.20649893643713704,101.86913664904752,0.0
97,-5.171444521404892,0.20705305636391685,102.67532765692165,0.0
98,-5.171989365911858,0.20991681365743425,103.47415008007773,0.0
99,-5.166666555738077,0.21634691089649263,104.26448831638224,0.0
100,-5.154497551616173,0.22723054421648786,105.04518787228194,0.0
101,-5.135476139877361,0.2430404300632163,105.81505665820636,0.0
102,-5.110419505690173,0.2639248303979816,106.57286657070459,0.0
103,-5.080587166485604,0.2898963160674048,107.31735537551025,0.0
104,-5.047168459020863,0.3210556972279349,108.04722890429804,0.0
105,-5.010779568983379,0.35777575916482524,108.761163576144,0.0
106,-4.971115510535043,0.40077711693357515,109.45780925261836,0.0
107,-4.926869301606979,0.45105501476667376,110.13579243301335,0.0
108,-4.875966886772348,0.5096558083995733,110.79371979344111,0.0
109,-4.816086518496391,0.5773458826675508,111.43018207042701,0.0
110,-4.7453537506186,0.6542527096807105,112.0437582861851,0.0
111,-4.663045873408253,0.7395772481699067,112.63302030901761,0.0
112,-4.570116848330772,0.8314719724896577,113.19653773824811,0.0
113,-4.469375205749599,0.9271480744265668,113.73288309882618,0.0
114,-4.365216029347939,1.0232238057708933,114.24063732626777,0.0
115,-4.262915816593861,1.1162643426691323,114.71839551798075,0.0
116,-4.167621752433178,1.2034064429272475,115.1647729223325,0.0
117,-4.083268365713018,1.282923409132702,115.57841113212082,0.0
118,-4.011699220916445,1.3545790414457675,115.95798444449187,0.0
119,-3.9522414467806897,1.419648495428779,116.30220634489764,0.0
120,-3.9018845638529247,1.4805461718478385,116.6098360684949,0.0
121,-3.8560803175765868,1.5400847963486946,116.87968518855348,0.0
122,-3.81004112765988,1.6004785080336676,117.11062417806134,0.0
123,-3.760299680786492,1.66227637316672,117.30158888788475,0.0
124,-3.7062196589673992,1.7234533064072113,117.4515868826518,0.0
125,-3.6511276928318424,1.778880739410793,117.55970357406777,0.0
126,-3.6027736479011496,1.8203462104320158,117.6251080907072,0.0
127,-3.572920734768921,1.8371963402211293,117.6470588235294,1.0
128,-3.5760148245267427,1.8175580711315922,117.63188357798357,0.0
129,-3.627070328109001,1.749972159222228,117.58682601254884,0.0
130,-3.7391067722911675,1.6251766213501413,117.51262096240912,0.0
131,-3.920624518648596,1.4377286966586498,117.4100438118789,0.0
132,-4.173662064825872,1.187165554778431,117.27990684135781,0.0
133,-4.492892978877724,0.878477326893983,117.12305554644529,0.0
134,-4.866003716679036,0.5217879981013348,116.9403649547473,0.0
135,-5.275299972561023,0.13128568731979062,116.73273596456345,0.0
136,-5.700205492783429,-0.2764168174647741,116.50109172811338,0.0
137,-6.120126876739385,-0.6842072479191257,116.24637410028234,0.0
138,-6.517108337071063,-1.07635518083438,115.96954017206915,0.0
139,-6.877789240322908,-1.4400402682623987,115.67155890603887,0.0
140,-7.194362701539864,-1.7662981163846654,115.35340788914914,0.0
141,-7.464459710158879,-2.0502752346714073,115.0160702163631,0.0
142,-7.690101078920489,-2.2908191887027307,114.66053151650917,0.0
143,-7.876031224921634,-2.489550758304377,114.28777712992638,0.0
144,-8.02784305503777,-2.649648238122112,113.89878944556243,0.0
145,-8.150302198869005,-2.7746061730366507,113.49454540339285,0.0
146,-8.246185466456417,-2.8672095718507897,113.0760141663169,0.0
147,-8.315797098683603,-2.928898821745824,112.64415496407453,0.0
148,-8.357166923816747,-2.959607103445549,112.19991511022903,0.0
149,-8.366805088760401,-2.9580518456025264,111.74422819187944,0.0
150,-8.340802090469765,-2.9223745906260503,111.27801243051088,0.0
151,-8.276020404239265,-2.850964820890595,110.80216921126225,0.0
152,-8.171127892961076,-2.7432809709063513,110.31758177689134,0.0
153,-8.02727724528538,-2.6004964073269874,109.8251140818434,0.0
154,-7.848328934168489,-2.4258431186868585,109.32560980108146,0.0
155,-7.6406168228508875,-2.2245900101281193,108.81989148770778,0.0
156,-7.412333007693267,-2.003662811732974,108.3087598728918,0.0
157,-7.1726501659314215,-1.7709760626337347,107.79299330121474,0.0
158,-6.930716835288722,-1.5345944513013752,107.27334729423721,0.0
159,-6.694668171454689,-1.3018648174477592,106.75055423488503,0.0
160,-6.470792272837202,-1.0786593642746305,106.22532316512522,0.0
161,-6.262970316651792,-0.8688469990443353,105.6983396893566,0.0
162,-6.072464192824649,-0.6740683303702404,105.17026597596359,0.0
163,-5.898069233209617,-0.4938380725339906,104.64174084956596,0.0
164,-5.7365984347829295,-0.3259449602007223,104.11337996663761,0.0
165,-5.583625792941462,-0.16707227269769065,103.58577606735255,0.0
166,-5.434385767482295,-0.013529089371426828,103.05949929674205,0.0
167,-5.284697817873629,0.1380313175155441,102.5350975885054,0.0
168,-5.1317637693015286,0.2900217748872461,102.01309710510203,0.0
169,-4.9746868381323575,0.4435481395721642,101.49400272805869,0.0
170,-4.814599722261706,0.5982979841490883,100.97829859274813,0.0
171,-4.654366868131935,0.7526866399615819,100.46644866222827,0.0
172,-4.497925522639138,0.9042100351079188,99.95889733507207,0.0
173,-4.349421622696484,1.0499205802533838,99.4560700824612,0.0
174,-4.212350265348871,1.1869289915628252,98.95837411016036,0.0
175,-4.088907539469262,1.3128434983358654,98.46619904133013,0.0
176,-3.979698188866843,1.4260848883352566,97.97991761647144,0.0
177,-3.8838372939519124,1.526052958382258,97.4998864071236,0.0
178,-3.7993661374159275,1.6131561795330809,97.0264465402572,0.0
179,-3.7238135752671195,1.6887413050505253,96.55992443061305,0.0
180,-3.6547074704245515,1.7549665295663595,96.10063251853626,0.0
181,-3.5898839345673834,1.8146498727135283,95.64887001114232,0.0
182,-3.5275341714537474,1.8710993182289946,95.20492362492548,0.0
183,-3.4660330195815896,1.9279033424858314,94.76906832818241,0.0
184,-3.4036773537544547,1.9886419787646556,94.34156808187342,0.0
185,-3.3385078039859026,2.0564795148756994,93.92267657778066,0.0
186,-3.2683853549589688,2.1336247355253093,93.51263797304757,0.0
187,-3.1914401053315293,2.2206900264242213,93.11168762039748,0.0
188,-3.1069030778229676,2.316035680836003,92.72005279353087,0.0
189,-3.016189692611883,2.4152340043416363,92.33795340739282,0.0
190,-2.9239634508638166,2.5108117271388997,91.96560273318335,0.0
191,-2.838821813164059,2.592415251366088,91.60320810815671,0.0
192,-2.7732575525832956,2.6474866237050967,91.25097164041885,0.0
193,-2.7426761252733423,2.6624456891121673,90.9090909090909,1.0
194,-2.7634748685529082,2.624263842998006,90.569016177804,0.0
195,-2.8504593216111513,2.52221294875258,90.22238348645216,0.0
196,-3.014105913528315,2.3495062465600647,89.8696603172241,0.0
197,-3.2582949636653202,2.1045369900683153,89.51130603525192,0.0
198,-3.579078085191532,1.791472955445665,89.14777142401721,0.0
199,-3.9648119214004076,1.4200729575110216,88.7794982724127,0.0
200,-4.397652633479294,1.00473274778113,88.40691901185546,0.0
201,-4.8560710472407616,0.5629109343749527,88.0304564017059,0.0
202,-5.317822510775417,0.11319883480653714,87.65052326112786,0.0
203,-5.762748612400393,-0.3266431353337047,87.26752224542979,0.0
204,-6.174895376940746,-0.741367039563329,86.8818456648505,0.0
205,-6.543647097696214,-1.11939014420031,86.49387534369849,0.0
206,-6.863819903256185,-1.4532846013661158,86.10398251771647,0.0
207,-7.134870645524044,-1.739600635822244,85.71252776752185,0.0
208,-7.359517753784024,-1.9781410747029828,85.31986098596987,0.0
209,-7.5421282774637985,-2.170893800851039,84.92632137729424,0.0
210,-7.687204043922316,-2.3208704857826805,84.53223748590271,0.0
211,-7.798220504035794,-2.431090869823309,84.1379272527373,0.0
212,-7.876967849062244,-2.503897959242069,83.74369809715145,0.0
213,-7.923446617877537,-2.5407044894098276,83.34984702230827,0.0
214,-7.936290428428159,-2.5421729375606117,82.9566607421623,0.0
215,-7.913616676031073,-2.508739317487961,82.56441582815197,0.0
216,-7.854131816876402,-2.441321880276522,82.1733788737999,0.0
217,-7.758251874193636,-2.342021893187498,81.78380667549324,0.0
218,-7.628970063189646,-2.2146304522996454,81.39594642779177,0.0
219,-7.472236166890815,-2.0648007182047388,81.01003593169284,0.0
220,-7.296707625764381,-1.8998194593241269,80.6263038143631,0.0
221,-7.112869885342921,-1.727999829882329,80.24496975892812,0.0
222,-6.931673384670889,-1.5578003937592764,79.86624474299514,0.0
223,-6.762962795242638,-1.3968358692584617,79.49033128466498,0.0
224,-6.614043684895594,-1.2509700177745242,79.11742369487105,0.0
225,-6.4887116828294324,-1.1236654335279328,78.74770833496392,0.0
226,-6.386954556417562,-1.0157126802298841,78.38136387853763,0.0
227,-6.3053628327857405,-0.9253843512063515,78.01856157657176,0.0
228,-6.238111975628419,-0.8489754301276538,77.65946552503706,0.0
229,-6.1782663380118565,-0.7816179803181685,77.30423293418528,0.0
230,-6.119125833329352,-0.7182106158329528,76.95301439881305,0.0
231,-6.055374917990436,-0.6542899632420875,76.60595416885766,0.0
232,-5.983864741932124,-0.5866932377667381,76.26319041974635,0.0
233,-5.903934657457827,-0.5139116788887279,75.92485552198218,0.0
234,-5.817250430701579,-0.43610203491051025,75.59107630950989,0.0
235,-5.727209063324285,-0.35479290576868305,75.261974346459,0.0
236,-5.638036620549076,-0.27238009293096554,74.93766619191692,0.0
237,-5.553773992995541,-0.19153871993471622,74.61826366243376,0.0
238,-5.477382708706756,-0.11468364536287934,74.30387409200969,0.0
239,-5.410186648969507,-0.04358414306164904,73.99460058935969,0.0
240,-5.35178752260782,0.02080875945794447,73.69054229229509,0.0
241,-5.300464339970119,0.07832106539507189,73.39179461909985,0.0
242,-5.253922873209266,0.12935160216761665,73.09844951681909,0.0
243,-5.210147637534098,0.17458969140454972,72.81059570641264,0.0
244,-5.168072449425391,0.21474757224659102,72.52831892476058,0.0
245,-5.127848629935462,0.25038213950847804,72.25170216353956,0.0
246,-5.090634719810102,0.2818431529889147,71.98082590501899,0.0
247,-5.058003544981369,0.3093411180718804,71.71576835485489,0.0
248,-5.031194778283541,0.3330913608970571,71.45660567198622,0.0
249,-5.0104857104384655,0.353472117512011,71.20341219576406,0.0
250,-4.9948986820180865,0.37113795736660193,70.95626067046852,0.0
251,-4.982335167449192,0.3870522572979899,70.71522246739238,0.0
252,-4.9700712113329235,0.4024343860503548,70.48036780469164,0.0
253,-4.955421779531686,0.4186468744701164,70.25176596522651,0.0
254,-4.93632935895014,0.4370649531834751,70.02948551263582,0.0
255,-4.911675500370534,0.4589703969935143,69.81359450590995,0.0
256,-4.881234404199317,0.4854951913602712,69.60416071274659,0.0
257,-4.845331676099951,0.5176153713920951,69.40125182199445,0.0
258,-4.804376439325216,0.5561715104206758,69.2049356555095,0.0
259,-4.758462058460758,0.6018789057802689,69.01528037976948,0.0
260,-4.7071815584094105,0.655292683927643,68.83235471761176,0.0
261,-4.649712132906794,0.7167104596084068,68.6562281604818,0.0
262,-4.585130049112868,0.7860223249262042,68.48697118160003,0.0
263,-4.512850734732384,0.8625461025939742,68.32465545047842,0.0
264,-4.433058450399816,0.9449057702429496,68.16935404924062,0.0
265,-4.346993418545728,1.0310156653487927,68.02114169122447,0.0
266,-4.256995610449068,1.1182193934342641,67.8800949423718,0.0
267,-4.166257371384533,1.203601866356015,67.74629244593788,0.0
268,-4.0783042846417095,1.2844514668217812,67.61981515108238,0.0
269,-3.996293998727464,1.3588057931879114,67.50074654593487,0.0
270,-3.9222799052760045,1.425978638236456,67.38917289576261,0.0
271,-3.8566118248399164,1.486946627388521,67.28518348690345,0.0
272,-3.7976265293066787,1.544477341694729,67.18887087716719,0.0
273,-3.7417209750478944,1.6029089333926407,67.10033115345068,0.0
274,-3.6838240772718125,1.6675420765118756,67.01966419735831,0.0
275,-3.6182196228639505,1.7436724216209831,66.94697395966936,0.0
276,-3.539640356234628,1.8353660073590885,66.8823687445486,0.0
277,-3.4445409849399264,1.9441492867346726,66.82596150445548,0.0
278,-3.3324365085526195,2.0678361507886933,66.77787014677217,0.0
279,-3.20713911892355,2.1997334549343543,66.73821785324128,0.0
280,-3.0776492584216713,2.328443649879935,66.70713341338123,0.0
281,-2.9583953173428976,2.4384135449772755,66.68475157313148,0.0
282,-2.8685278507895333,2.511266182748093,66.6712134000726,0.0
283,-2.8300992087101915,2.5278131457296293,66.66666666666667,1.0
284,-2.8651991724007337,2.4705021913615166,66.66891823347916,0.0
285,-2.992422044705941,2.325940749778635,66.67564082008028,0.0
286,-3.223318656062591,2.0870794034022584,66.6867875756046,0.0
287,-3.5596306938199866,1.754661604067304,66.70231335862104,0.0
288,-3.9920333013800073,1.3376507136638571,66.72217467604088,0.0
289,-4.5008101451168026,0.8525171951861137,66.74632962423503,0.0
290,-5.058424019649287,0.32147373279016234,66.77473783224117,0.0
291,-5.63346520182867,-0.23005989392426351,66.80736040694761,0.0
292,-6.1951160731061465,-0.7763406295113233,66.84415988014572,0.0
293,-6.717174044503501,-1.2940589457616185,66.8851001573488,0.0
294,-7.180844229019485,-1.7645351348320535,66.93014646827947,0.0
295,-7.575874982389992,-2.175048016509235,66.97926531893265,0.0
296,-7.900037634803362,-2.519168287316707,67.03242444512541,0.0
297,-8.157322064758864,-2.796159302120531,67.08959276744905,0.0
298,-8.355445821306915,-3.0096689218036095,67.15074034754244,0.0
299,-8.50332014049426,-3.1660366866607133,67.21583834560946,0.0
300,-8.608995693275846,-3.2725670823220034,67.28485897910646,0.0
301,-8.678384329511829,-3.3360759162493214,67.35777548252895,0.0
302,-8.714808331182834,-3.361921038103859,67.43456206822965,0.0
303,-8.719244828192766,-3.3536070382679646,67.51519388820283,0.0
304,-8.691044084461884,-3.3129332791404624,67.59964699677238,0.0
305,-8.62888912841216,-3.2405578656160117,67.68789831412337,0.0
306,-8.531791200937727,-3.1367908246416407,67.77992559061971,0.0
307,-8.399953519701313,-3.0024125618234567,67.8757073718518,0.0
308,-8.235378677245402,-2.8393353211416157,67.97522296436085,0.0
309,-8.042142116666989,-2.650976856944312,68.07845240198795,0.0
310,-7.826299564255405,-2.4422845377857674,68.18537641279809,0.0
311,-7.595436006111292,-2.2194213201160125,68.29597638653055,0.0
312,-7.357905814275032,-1.989189914487108,68.41023434252945,0.0
313,-7.121869682296147,-1.7583176711117114,68.52813289810837,0.0
314,-6.89429832549928,-1.5327452694525823,68.64965523730609,0.0
315,-6.6801548281222205,-1.3170546211530891,68.77478507999028,0.0
316,-6.481951490237969,-1.1141379017852386,68.90350665126776,0.0
317,-6.299792013488923,-0.925157607300992,69.03580465116156,0.0
318,-6.131881080084963,-0.7497879680772883,69.17166422451518,0.0
319,-5.975358005683022,-0.5866733813921851,69.31107093108618,0.0
320,-5.827233115092747,-0.43400081711121896,69.4540107157919,0.0
321,-5.685197490107554,-0.29006754676627444,69.60046987907099,0.0
322,-5.548135288846809,-0.15373469870283818,69.75043504732545,0.0
323,-5.416267660687663,-0.024687198563310808,69.9038931434085,0.0
324,-5.290961163250128,0.0965363216922307,70.06083135712437,0.0
325,-5.174306149109646,0.20873376461079007,70.22123711570728,0.0
326,-5.068592724824465,0.3103995296761406,70.3850980542466,0.0
327,-4.975789074132163,0.4001755518260016,70.55240198602695,0.0
328,-4.897085231346432,0.47730225344403654,70.72313687275191,0.0
329,-4.8325353079053945,0.5419817855642242,70.89729079462073,0.0
330,-4.780828202117052,0.5955835886054077,71.07485192022843,0.0
331,-4.739231430803137,0.6406505996583202,71.25580847625946,0.0
332,-4.70375808674069,0.6806988747869,71.44014871694664,0.0
333,-4.669580014881669,0.71983876518343,71.62786089326666,0.0
334,-4.631650743009302,0.762276519233173,71.81893322184479,0.0
335,-4.585433719779945,0.8117760451945901,72.01335385354137,0.0
336,-4.5275878368251385,0.87116766636595,72.21111084169357,0.0
337,-4.456463909693968,0.9419825147218941,72.41219210998614,0.0
338,-4.372311455179732,1.0242692315196231,72.61658541992587,0.0
339,-4.277165576063627,1.1166182531906068,72.8242783378944,0.0
340,-4.174454111114257,1.2163844865656708,73.03525820175527,0.0
341,-4.068415717449671,1.3200683971347231,73.24951208699093,0.0
342,-3.9634415873685565,1.4237940637205502,73.46702677234684,0.0
343,-3.8634499123751977,1.5238137868654544,73.68778870495987,0.0
344,-3.771382915583186,1.616972554374774,73.91178396494897,0.0
345,-3.688890758516997,1.7010793967545488,74.1389982294467,0.0
346,-3.616237670861649,1.7751517308213427,74.36941673605153,0.0
347,-3.552429692752606,1.8395178054865136,74.6030242456805,0.0
348,-3.4955188580866823,1.8957767264346117,74.83980500480361,0.0
349,-3.4429956731054796,1.9466228045119365,75.07974270704167,0.0
350,-3.392162763622849,1.9955417738348735,75.32282045411056,0.0
351,-3.340408292772317,2.046384517843765,75.56902071609525,0.0
352,-3.2853680334313515,2.1028251621310616,75.81832529103879,0.0
353,-3.2250512294024474,2.167720541978973,76.07071526383177,0.0
354,-3.1580629119003842,2.242410215749192,76.32617096438953,0.0
355,-3.0840469640660437,2.326028429001421,76.58467192510518,0.0
356,-3.0043891198650847,2.4149338692211115,76.84619683756813,0.0
357,-2.9230784814450153,2.5023871630201486,77.11072350853911,0.0
358,-2.847477937232299,2.578606157473568,77.37822881517414,0.0
359,-2.7886598363311825,2.631295075862168,77.64868865949157,0.0
360,-2.7609788885144613,2.646673987651905,77.92207792207792,1.0
361,-2.780703318946875,2.6109391056615436,78.22189137514091,0.0
362,-2.863780916053108,2.511982103567263,78.57093400893994,0.0
363,-3.0231031934978483,2.341113949536262,78.96823401190862,0.0
364,-3.2658505520449603,2.094500715542571,79.41292445887619,0.0
365,-3.591571132966886,1.7740416784686046,79.90422722227542,0.0
366,-3.9915276985538357,1.387505209174245,80.44143758031414,0.0
367,-4.449559573156469,0.9478701055065685,81.023909291017,0.0
368,-4.944324131530711,0.4719700982438648,81.65103992207713,0.0
369,-5.452415825947398,-0.02132807855493457,82.32225624382842,0.0
370,-5.951628193478641,-0.5130992421150755,83.03699950724759,0.0
371,-6.42360892999034,-0.9861582782393841,83.79471044151713,0.0
372,-6.855370956533025,-1.4264091082803496,84.59481381706851,0.0
373,-7.239488429939343,-1.823579295950688,85.43670243089372,0.0
374,-7.573189625251341,-2.1713087639867905,86.31972038197605,0.0
375,-7.856820119007585,-2.4666862293980953,87.24314551667544,0.0
376,-8.092213700964827,-2.7094167158556135,88.2061709375728,0.0
377,-8.281391850887639,-2.9008427348074437,89.20788548544192,0.0
378,-8.425801881471429,-3.0430297049429407,90.24725312353624,0.0
379,-8.526097633955827,-3.1380743529184567,91.32309117717217,0.0
380,-8.582328311441222,-3.1877216123266594,92.4340474106319,0.0
381,-8.594348003348614,-3.1933001955782743,93.57857595870317,0.0
382,-8.562277494413642,-3.155924802750581,94.75491217274664,0.0
383,-8.486912563423841,-3.076872498026079,95.96104649203325,0.0
384,-8.370041982447288,-2.9580240905802775,97.19469751114055,0.0
385,-8.214678449627845,-2.802265396072041,98.45328448420975,0.0
386,-8.025202711969886,-2.613762465626146,99.73389958735861,0.0
387,-7.807393677287122,-2.398053240156032,101.03328035166767,0.0
388,-7.568301212878239,-2.1619303923641997,102.3477827805379,0.0
389,-7.315935325192781,-1.9131222624993733,103.67335577580504,0.0
390,-7.058786480899868,-1.6598076350507516,105.0055176148581,0.0
391,-6.805230694537817,-1.410023166049175,106.33933534315103,0.0
392,-6.562892380418917,-1.1710376002751213,107.66940806864702,0.0
393,-6.338040499448463,-0.9487731149441312,108.9898552611912,0.0
394,-6.13509080038326,-0.7473504829416149,110.294311263306,0.0
395,-5.956283513685965,-0.568821413427453,111.57592730058963,0.0
396,-5.801595545535092,-0.4131295553497665,112.82738232941665,0.0
397,-5.668920761362206,-0.2783134732778636,114.04090406540872,0.0
398,-5.554510622970343,-0.16093365187589104,115.20830148581041,0.0
399,-5.453619866559899,-0.05667516880930601,116.32100998011241,0.0
400,-5.361263656263699,0.03894781819432902,117.37015012460328,0.0
401,-5.272977064075913,0.12987654308933394,118.34660076884433,0.0
402,-5.185478164205433,0.21887748860936207,119.24108673988744,0.0
403,-5.09716326271398,0.307087050537709,120.04428099323222,0.0
404,-5.008390304477354,0.39380080216216606,120.74692047474893,0.0
405,-4.921521283940349,0.47654639342237337,121.33993431997183,0.0
406,-4.840696623056534,0.5514402372032077,121.81458233023012,0.0
407,-4.771319063289266,0.6137857205211136,122.16260096213963,0.0
408,-4.719253124349159,0.6588308212790301,122.37635338944614,0.0
409,-4.689810404660085,0.6825727623383373,122.44897959183673,1.0
410,-4.686678390482729,0.6824834965265584,122.42747842159059,0.0
411,-4.711022246668348,0.6580371587580304,122.36377173039556,0.0
412,-4.760997858850616,0.6109500246870725,122.25911657674393,0.0
413,-4.831834376327056,0.5450908255925735,122.11484579100242,0.0
414,-4.916494061262488,0.4660755805257306,121.9323595610304,0.0
415,-5.006754199719288,0.3806146954665014,121.71311699074968,0.0
416,-5.094445845476424,0.2957195161095577,121.45862770872023,0.0
417,-5.172565521877433,0.21789291072120237,121.17044359823304,0.0
418,-5.236045179618638,0.15242162384974817,120.85015071423,0.0
419,-5.282087796380339,0.10286094922369568,120.499361445672,0.0
420,-5.310104715918232,0.07076304386625065,120.11970697496574,0.0
421,-5.321383972126878,0.055658863957283505,119.71283007888148,0.0
422,-5.318648817378891,0.05526872515169973,119.28037830819453,0.0
423,-5.305629207234523,0.06589277789959702,118.82399757618957,0.0
424,-5.286691820333578,0.08292098052065222,118.34532617929523,0.0
425,-5.266500759825965,0.10139999050286325,117.84598926656193,0.0
426,-5.249650167230088,0.11659802932338087,117.32759376853829,0.0
427,-5.240232813833388,0.12451509487844947,116.7917237904028,0.0
428,-5.241366296974782,0.12229354377636009,116.2399364690137,0.0
429,-5.254757194522185,0.10849340895704829,115.6737582888791,0.0
430,-5.280413980106151,0.08320895382299248,115.09468184793937,0.0
431,-5.316606031933845,0.048018408751239,114.50416306049719,0.0
432,-5.360109179838552,0.005776602728205502,113.90361878161626,0.0
433,-5.406695752013916,-0.039722256292414576,113.29442483482583,0.0
434,-5.451752048137073,-0.08417035744219095,112.6779144229845,0.0
435,-5.490874206392288,-0.12321146699938638,112.05537690064462,0.0
436,-5.520321795829663,-0.1528956507002808,111.42805688518398,0.0
437,-5.537282148607314,-0.17007900146221155,110.79715368329268,0.0
438,-5.539977270730572,-0.1727326211258352,110.16382100908305,0.0
439,-5.52768850710191,-0.16013461464517575,109.52916697008678,0.0
440,-5.500764935530531,-0.13292750914497314,108.89425429767638,0.0
441,-5.460632997400096,-0.09303154703114404,108.26010079895818,0.0
442,-5.409768838699206,-0.0434134420665335,107.62768000789313,0.0
443,-5.351562513336196,0.012277551207005133,106.99792201427628,0.0
444,-5.290011610073712,0.07017817030069147,106.37171445021006,0.0
445,-5.22922872943904,0.12673736568640426,105.74990361481397,0.0
446,-5.172813454955157,0.17923562189752837,105.13329571909296,0.0
447,-5.123198145784417,0.22622151880953303,104.52265823411926,0.0
448,-5.0811064506430785,0.2677899241667566,103.91872132694127,0.0
449,-5.0452569632303685,0.3056411848537976,103.32217936990456,0.0
450,-5.012407587971667,0.34289029503898927,102.73369251033608,0.0
451,-4.977777084117989,0.38363537186831387,102.15388828879051,0.0
452,-4.9358040160384435,0.43233871027587006,101.58336329527802,0.0
453,-4.8811187812175545,0.4931122912981794,101.02268485407504,0.0
454,-4.809533792595886,0.5690242705858882,100.4723927288604,0.0
455,-4.718832195443641,0.6615475192640707,99.93300084101017,0.0
456,-4.609177859199041,0.7702536069682324,99.4049989949271,0.0
457,-4.483069285603026,0.8928181410850213,98.88885460526772,0.0
458,-4.344878168667499,1.0253524019419022,98.38501442186835,0.0
459,-4.200103366810839,1.1630202844764312,97.8939062490532,0.0
460,-4.054506041827122,1.300847575862103,97.41594065684251,0.0
461,-3.9132741934274895,1.4345903434753873,96.95151268236371,0.0
462,-3.780318302631814,1.561506634770825,96.50100352050868,0.0
463,-3.6577535490550463,1.6808749359773236,96.06478220357896,0.0
464,-3.545601342643105,1.7941264235018501,95.64320727032275,0.0
465,-3.4417531742610668,1.904506695980679,95.23662842539507,0.0
466,-3.342272168458124,2.016254394637844,94.84538819087393,0.0
467,-3.242129721760284,2.1333726774559745,94.46982355204234,0.0
468,-3.1364438573417917,2.2581631328868723,94.11026760020677,0.0
469,-3.022174433952448,2.3897730225051372,93.76705117587123,0.0
470,-2.9000482005395565,2.5230549136997364,93.44050451612918,0.0
471,-2.7762891363030304,2.6480332004293103,93.13095891068068,0.0
472,-2.6636012003570313,2.7502026367319274,92.83874837143296,0.0
473,-2.5808734714934776,2.811751383964215,92.56421132121096,0.0
474,-2.5512951391980287,2.8136238858423637,92.3076923076923,1.0
475,-2.598957553472932,2.7381517604919656,92.06001193824552,0.0
476,-2.744486171544997,2.571827743475799,91.81186299871929,0.0
477,-3.0006363998020213,2.3077206937995656,91.5634015849975,0.0
478,-3.3689494210541646,1.9470567389939326,91.31478065673139,0.0
479,-3.8384028669781833,1.4996265892971965,91.06615004977625,0.0
480,-4.386522826484513,0.9828978024139954,90.81765649371317,0.0
481,-4.982781961611782,0.41996571784239556,90.5694436341926,0.0
482,-5.593499493756121,-0.16329143566442283,90.32165205984049,0.0
483,-6.187080373975279,-0.741334295364243,90.0744193334753,0.0
484,-6.738395092804574,-1.2918027415887217,89.827880027389,0.0
485,-7.231398066291287,-1.7975984329498091,89.58216576245363,0.0
486,-7.659596962132103,-2.247912457929096,89.33740525082075,0.0
487,-8.024552359615168,-2.638131711453158,89.09372434199038,0.0
488,-8.333046215376262,-2.9687833857205077,88.85124607203245,0.0
489,-8.593793725650789,-3.243847245276757,88.61009071575283,0.0
490,-8.814543881944067,-3.468847466512331,88.37037584160467,0.0
491,-9.000161847871752,-3.6491215566787423,88.13221636915311,0.0
492,-9.151923119993024,-3.7885687671995263,87.89572462891142,0.0
493,-9.267906853887858,-3.8890368460851596,87.66101042437468,0.0
494,-9.34414612594551,-3.9503527409815193,87.4281810960858,0.0
495,-9.376102299264785,-3.9708747253356873,87.19734158757798,0.0
496,-9.36005760664214,-3.94836334484296,86.96859451304628,0.0
497,-9.294130637375266,-3.880944346852711,86.7420402266096,0.0
498,-9.178780005744255,-3.767961993766068,86.51777689303326,0.0
499,-9.016828242362305,-3.6105797782949978,86.29590055979135,0.0
500,-8.813156073155294,-3.412057749616296,86.07650523035592,0.0
501,-8.574248101763539,-3.1777036135218877,85.85968293860928,0.0
502,-8.307721678350696,-2.9145465303186047,85.6455238242835,0.0
503,-8.0218897266487,-2.6308132894855296,85.43411620933992,0.0
504,-7.725346853918587,-2.3352975474461175,85.22554667520946,0.0
505,-7.426547723185258,-2.036708907791318,85.01990014082227,0.0
506,-7.133359785063559,-1.7430755066253805,84.8172599413637,0.0
507,-6.852603411953058,-1.461256069752434,84.61770790770083,0.0
508,-6.589629073970361,-1.196597945628556,84.42132444643192,0.0
509,-6.348009434836722,-0.9527577343310738,84.22818862051786,0.0
510,-6.129425279397054,-0.73168166162646,84.03837823046322,0.0
511,-5.933786500082282,-0.5337250307326016,83.85196989602065,0.0
512,-5.759563799549968,-0.3578759394170792,83.66903913840017,0.0
513,-5.6042442687757115,-0.2020403759957592,83.48966046297187,0.0
514,-5.464795178599615,-0.06334563445716457,83.3139074424571,0.0
515,-5.3380356311758606,0.06157304249255824,83.14185280061075,0.0
516,-5.220862660401868,0.17632347278909788,82.97356849640337,0.0
517,-5.110333681886639,0.2845494341377204,82.80912580871878,0.0
518,-5.0036509008624375,0.38975535676797124,82.64859542158996,0.0
519,-4.89811577436487,0.495144965503854,82.49204751000187,0.0
520,-4.791123093414823,0.6034573241578098,82.33955182629705,0.0
521,-4.680249485398821,0.7167938412679855,82.1911777872263,0.0
522,-4.563463712053995,0.8364456326841083,82.04699456169335,0.0
523,-4.439446966731371,0.962746953868491,81.90707115924916,0.0
524,-4.30796323083007,1.0949911690176368,81.77147651939802,0.0
525,-4.170173285482222,1.2314458778075081,81.64027960178478,0.0
526,-4.028760632503831,1.3694911227619777,81.51354947733941,0.0
527,-3.8877547493529168,1.5058807911950882,81.39135542046141,0.0
528,-3.7520078553019447,1.6370982368591576,81.2737670023351,0.0
529,-3.6263942107421343,1.7597513998257992,81.16085418547284,0.0
530,-3.5149176180750383,1.870939158906539,81.05268741959156,0.0
531,-3.419979608858782,1.9685252887099414,80.9493377389359,0.0
532,-3.3420355877225676,2.0512797117518655,80.85087686116846,0.0
533,-3.2797461701520993,2.118882777127367,80.75737728795724,0.0
534,-3.2305610901731723,2.171825939592912,80.66891240739804,0.0
535,-3.1915249219497115,2.211268544638609,80.5855565984192,0.0
536,-3.1600272872166046,2.2389151565848584,80.50738533732535,0.0
537,-3.1342546002982217,2.2569572493139396,80.43447530664736,0.0
538,-3.1132135066768907,2.2680818994680143,80.36690450647497,0.0
539,-3.096344694507068,2.2755009791623833,80.30475236846107,0.0
540,-3.0828866442445553,2.2829143156915026,80.24809987269728,0.0
541,-3.0712478755536443,2.294305887085032,80.19702966767295,0.0
542,-3.058678083373894,2.313493990889616,80.1516261935433,0.0
543,-3.0414793252559926,2.343415119017303,80.11197580894543,0.0
544,-3.0158710700132727,2.3852060642988584,80.07816692161684,0.0
545,-2.9794386329571,2.4372386195488334,80.05029012308526,0.0
546,-2.9328888184478177,2.4943298056452323,80.0284383277169,0.0
547,-2.881657188035476,2.5473731323286897,80.0127069164272,0.0
548,-2.83681877130851,2.583597246338841,80.00319388537729,0.0
549,-2.8148111878216002,2.5875567810844315,80.0,1.0
550,-2.8357192895455516,2.542813101050082,80.00066442826288,0.0
551,-2.9202579357564935,2.4341018048222938,80.00265512338984,0.0
552,-3.0860090844640036,2.2496489487071862,80.00596829924564,0.0
553,-3.343765456222192,1.9832258659846538,80.0106002998268,0.0
554,-3.6948823289264,1.635546617737009,80.01654759802753,0.0
555,-4.130311795004692,1.2147150286609993,80.02380679444022,0.0
556,-4.631566832098018,0.7355998672731597,80.03237461619092,0.0
557,-5.173380553385724,0.21821924507460666,80.04224791580835,0.0
558,-5.727438234152826,-0.3145968475476095,80.05342367012618,0.0
559,-6.2663654037256284,-0.8398652947635024,80.06589897921818,0.0
560,-6.767179609752247,-1.3369810285973798,80.07967106536537,0.0
561,-7.2136160216439,-1.7897137617422252,80.09473727205481,0.0
562,-7.5970402555026,-2.18738217687323,80.11109506300954,0.0
563,-7.915980604301472,-2.525083748444697,80.12874202124891,0.0
564,-8.174573617757524,-2.803035359156332,80.14767584817936,0.0
565,-8.3803735100772,-3.02523204664461,80.16789436271452,0.0
566,-8.542012428646188,-3.1977317585850584,80.18939550042452,0.0
567,-8.667135429669324,-3.326909207431941,80.2121773127143,0.0
568,-8.76091260891095,-3.417992155759511,80.23623796602988,0.0
569,-8.825290930367244,-3.4741110562040505,80.2615757410927,0.0
570,-8.85901377340907,-3.4959781769937304,80.28818903216153,0.0
571,-8.858319197017893,-3.4821886086723572,80.31607634632127,0.0
572,-8.818138263031935,-3.430025070581236,80.34523630279871,0.0
573,-8.733559548527193,-3.3365687356213716,80.37566763230451,0.0
574,-8.601303040181124,-3.1998800321641254,80.40736917640128,0.0
575,-8.420948362251414,-3.0200194612404236,80.44033988689732,0.0
576,-8.195690452496624,-2.7997242323665716,80.47457882526581,0.0
577,-7.932465800956643,-2.5446309548209998,80.5100851620889,0.0
578,-7.641413555234883,-2.2630223930491926,80.54685817652673,0.0
579,-7.334785466676201,-1.965160542416565,80.5848972558108,0.0
580,-7.025543080751263,-1.6623337874884379,80.62420189476157,0.0
581,-6.725929828007865,-1.36578207488405,80.66477169532996,0.0
582,-6.446269997751814,-1.0856669213915033,80.70660636616263,0.0
583,-6.1941583893743255,-0.8302258735279073,80.74970572219043,0.0
584,-5.974106590599547,-0.6052028548017371,80.7940696842403,0.0
585,-5.78762679022617,-0.41358920901226875,80.83969827867,0.0
586,-5.63366240143077,-0.25565797973218574,80.88659163702557,0.0
587,-5.50921702331543,-0.12923617863513148,80.93474999572133,0.0
588,-5.410005590470012,-0.030141768263442614,80.98417369574226,0.0
589,-5.330976697199074,0.04728662438757414,81.03486318236851,0.0
590,-5.266636951775745,0.10962418177226196,81.08681900492184,0.0
591,-5.211216420137831,0.16379525260518235,81.1400418165339,0.0
592,-5.158796326406221,0.21652968128588213,81.19453237393616,0.0
593,-5.10353434070975,0.27385322664939005,81.25029153727128,0.0
594,-5.040064528954456,0.340629174218235,81.3073202699259,0.0
595,-4.9640513882661335,0.4201795842946169,81.36561963838453,0.0
596,-4.872787138585981,0.5140262680428851,81.42519081210466,0.0
597,-4.76567298459454,0.6217957693803784,81.48603506341269,0.0
598,-4.6444300742084135,0.7413237400683539,81.54815376742084,0.0
599,-4.512938606826083,0.8689708029372427,81.61154840196481,0.0
600,-4.37668869613275,1.0001279518062522,81.67622054756198,0.0
601,-4.241921697800155,1.1298524573468318,81.74217188739034,0.0
602,-4.114618179460931,1.253544771950128,81.80940420728778,0.0
603,-3.9995253396337995,1.3675618631929962,81.87791939577197,0.0
604,-3.8994060554409797,1.4696682034191435,81.94771944408049,0.0
605,-3.814645839673976,1.559252738953161,82.01880644623125,0.0
606,-3.7432901962532523,1.6372836076110386,82.0911825991034,0.0
607,-3.6815121674732767,1.706022797439051,82.16485020253812,0.0
608,-3.6244298228001828,1.7685686359993444,82.23981165945995,0.0
609,-3.567113517203643,1.8283237133001242,82.31606947601809,0.0
610,-3.5055645405254805,1.8884917044867087,82.39362626174794,0.0
611,-3.4374376975853296,1.9516864931232694,82.47248472975278,0.0
612,-3.362336158798525,2.0196958841246326,82.55264769690554,0.0
613,-3.2816207581198378,2.093391263558358,82.63411808407089,0.0
614,-3.1978200228882008,2.172728832418081,82.71689891634732,0.0
615,-3.1138610144400447,2.2567622693262983,82.80099332332952,0.0
616,-3.032419618126739,2.3435907805862763,82.88640453939094,0.0
617,-2.955674115830892,2.430201834069269,82.97313590398659,0.0
618,-2.885623360197694,2.5122257218222535,83.06119086197624,0.0
619,-2.8249259336968855,2.5836821689740743,83.15057296396783,0.0
620,-2.7779943436750085,2.6368461842977196,83.2412858666814,0.0
621,-2.751921240830975,2.662372329898228,83.33333333333334,1.0
622,-2.756789555196608,2.649783550626971,83.45269668320445,0.0
623,-2.805049524706879,2.5883557929695,83.62420220736713,0.0
624,-2.9099054332229057,2.468329611930028,83.84624258409501,0.0
625,-3.0829710249147793,2.282281231313693,84.11735506822848,0.0
626,-3.331725244316644,2.0264167602236576,84.43620138802041,0.0
627,-3.6574301382252843,1.7015367042886949,84.80154912002683,0.0
628,-4.054098338522479,1.313462131726871,85.21225424510381,0.0
629,-4.5088255596106235,0.8728105881082384,85.66724462621646,0.0
630,-5.003419028942071,0.3941359600035431,86.16550418019548,0.0
631,-5.516891516999044,-0.10542934949130944,86.70605754209951,0.0
632,-6.028182870652204,-0.6077996482354777,87.28795504355989,0.0
633,-6.518482777518468,-1.0955592810346242,87.91025784633594,0.0
634,-6.972733214180337,-1.5533344424267748,88.5720230901159,0.0
635,-7.380185553868657,-1.9687328901021535,89.27228893009686,0.0
636,-7.73415453341113,-2.3327689560023286,90.0100593557401,0.0
637,-8.031265263956373,-2.6397936407580476,90.78428869796359,0.0
638,-8.270510950039288,-2.887034529990631,91.59386574850568,0.0
639,-8.452363197547045,-3.0739034646244248,92.43759743286942,0.0
640,-8.578063311430197,-3.201246238902218,93.31419199771692,0.0
641,-8.64912758402784,-3.270691121646145,94.22224169539932,0.0
642,-8.66705558081363,-3.284210101611822,95.1602049730454,0.0
643,-8.63323724083035,-3.2439492130659673,96.12638820181856,0.0
644,-8.549078033931746,-3.152322976061722,97.11892701409381,0.0
645,-8.41635546744995,-3.012312650242337,98.13576735282597,0.0
646,-8.237763432820572,-2.8278667812871605,99.17464637862143,0.0
647,-8.017517474680771,-2.604281495308004,100.23307342618193,0.0
648,-7.761836580359901,-2.348440522468425,101.30831125287304,0.0
649,-7.479123914861074,-2.068820803846444,102.39735787794976,0.0
650,-7.179737267202147,-1.775214479212859,103.49692937089165,0.0
651,-6.875336973917693,-1.478174005556354,104.60344401042902,0.0
652,-6.577892694808012,-1.188243542143038,105.71300830076899,0.0
653,-6.29850559419265,-0.9150855172288077,106.82140539631811,0.0
654,-6.0462524007460186,-0.6666372800815754,107.92408654828705,0.0
655,-5.827270062082365,-0.4484336258381837,109.01616624275272,0.0
656,-5.644259182565664,-0.26320651037239096,110.09242174615636,0.0
657,-5.496491404894489,-0.110828308355583,111.14729780630769,0.0
658,-5.38028844611184,0.01139166544636816,112.17491726965025,0.0
659,-5.289844580805564,0.10810519902082527,113.16909836331693,0.0
660,-5.218225532426454,0.18511372006002869,114.12337934770514,0.0
661,-5.158395491950076,0.2484739055814883,115.0310511664317,0.0
662,-5.104166227055092,0.30365562125407,115.88519860071541,0.0
663,-5.05098688798637,0.3548734300485399,116.67875027074152,0.0
664,-4.996485967416912,0.4046790102609783,117.40453761539554,0.0
665,-4.94066290202631,0.4538539333096504,118.0553627242971,0.0
666,-4.885649616013209,0.5015887563024145,118.62407459567464,0.0
667,-4.8350466784689505,0.5458852201933699,119.10365305716972,0.0
668,-4.792965891430702,0.5840834069254037,119.4872992248365,0.0
669,-4.763025035923429,0.6134026091595225,119.76853100302992,0.0
670,-4.747579294023009,0.6313963777724243,119.94128176279543,0.0
671,-4.7474047685974465,0.6362555580705512,120.0,1.0
672,-4.761888875318353,0.6269390051939875,119.97583159123468,0.0
673,-4.789592725443635,0.6031573509201902,119.90424192138312,0.0
674,-4.828915253727593,0.5652681104273871,119.78668388069256,0.0
675,-4.878571554852951,0.5141521455049787,119.62470762365548,0.0
676,-4.9377063673381665,0.4511303947620436,119.41994941568994,0.0
677,-5.00564113866458,0.3779512152097413,119.17412041608956,0.0
678,-5.08140965080122,0.29684284892597024,118.88899551388445,0.0
679,-5.163302540951378,0.21059379231540054,118.56640232468473,0.0
680,-5.2486022220622175,0.12260511898924328,118.20821044685695,0.0
681,-5.333588120573048,0.036857325226932774,117.81632106481726,0.0
682,-5.413788938837428,-0.04225073478498924,117.39265697610526,0.0
683,-5.48439811863266,-0.1102062857314175,116.93915310750937,0.0
684,-5.5407623129083525,-0.1628132827282014,116.45774757410327,0.0
685,-5.578883690642768,-0.19670031568709367,115.95037332385311,0.0
686,-5.595913718426468,-0.2098314721301252,115.41895039966082,0.0
687,-5.590627720447929,-0.20193158244512968,114.86537884049261,0.0
688,-5.563841974149751,-0.17473747385055663,114.29153223372599,0.0
689,-5.518682735594303,-0.1320034970862179,113.69925192214241,0.0
690,-5.46057779886799,-0.07922236339155289,113.0903418611599,0.0
691,-5.396855231395054,-0.023067786581290647,112.46656411498232,0.0
692,-5.335913824771728,0.02938344616465305,111.82963497435627,0.0
693,-5.286052265180437,0.07154544501873686,111.18122167356401,0.0
694,-5.254162796873244,0.09819684641548025,110.52293968011637,0.0
695,-5.244564917563251,0.10618987363491296,109.85635052730241,0.0
696,-5.258248624299898,0.09487106350863996,109.18296015724813,0.0
697,-5.292712764388127,0.06613651481722663,108.50421774037325,0.0
698,-5.3424441529474525,0.024108675229926824,107.82151493604582,0.0
699,-5.399928730598933,-0.025509865939473103,107.13618555874419,0.0
700,-5.456965198225122,-0.0762920164717192,106.44950561407663,0.0
701,-5.505999084457955,-0.12200231162900134,105.76269366950271,0.0
702,-5.541217730782511,-0.15741899370362303,105.07691152548405,0.0
703,-5.559224639762301,-0.17893187743260364,104.39326515399149,0.0
704,-5.559215135154311,-0.18483382954565725,103.71280587275572,0.0
705,-5.542679081265302,-0.17528421209650902,103.0365317253074,0.0
706,-5.512743419435671,-0.15198272433984092,102.36538903866003,0.0
707,-5.473324510647329,-0.11763988637155565,101.70027413240034,0.0
708,-5.428277556925562,-0.07535769077549953,101.04203515492298,0.0
709,-5.380705250343058,-0.02803746343987629,100.39147402454549,0.0
710,-5.33253002566107,0.02208636471251787,99.74934845523791,0.0
711,-5.284363138124926,0.07372200803080964,99.11637404866923,0.0
712,-5.235639597621818,0.12658255725858975,98.49322643619685,0.0
713,-5.184945004714285,0.18125187985070038,97.88054345628247,0.0
714,-5.130444062036447,0.23890314004380717,97.27892735460163,0.0
715,-5.070327439676535,0.3009376937245729,96.68894699581367,0.0
716,-5.003212245033636,0.36861654566992147,96.11114007756645,0.0
717,-4.928447788228484,0.4427480014844685,95.5460153388278,0.0
718,-4.8462868004286435,0.5234770753922893,94.99405475605697,0.0
719,-4.757890750768654,0.6101992945433579,94.45571572205793,0.0
720,-4.665160598871376,0.7015987147513993,93.93143320359697,0.0
721,-4.5704248750143766,0.7957915633111685,93.42162187501772,0.0
722,-4.476059842055371,0.8905458388478118,92.92667822615965,0.0
723,-4.384137100457236,0.9835442110955185,92.44698264388114,0.0
724,-4.296178755697904,1.0726611044872223,91.98290146741587,0.0
725,-4.213056730938223,1.15623137705462,91.53478901865748,0.0
726,-4.135021984652946,1.2332930999718186,91.10298960927888,0.0
727,-4.061810711632254,1.3037868908513714,90.68783952736004,0.0
728,-3.9927582293685644,1.368687668281587,90.28966900692633,0.0
729,-3.9268604042191537,1.4300335887099518,89.90880418450095,0.0
730,-3.862757226731586,1.490806759318866,89.54556904745604,0.0
731,-3.7986687961369228,1.5546187803436031,89.20028737961756,0.0
732,-3.7323763624517117,1.6251688085745126,88.87328471025032,0.0
733,-3.661385942962675,1.7054770648266235,88.56489027322871,0.0
734,-3.5834117422864704,1.7969510303507505,88.27543898389993,0.0
735,-3.4972515727394913,1.8984060352088667,88.00527344187698,0.0
736,-3.403996403222125,2.0052207169154608,87.75474596877496,0.0
737,-3.3083473536636103,2.1088413566098083,87.52422069073427,0.0
738,-3.2196587439276505,2.196839344204479,87.3140756764768,0.0
739,-3.1522531446359725,2.2536626535834077,87.12470514262846,0.0
740,-3.1246222482633135,2.262107820224218,86.95652173913044,1.0
741,-3.1573540818525894,2.2053912878487205,86.80055861745834,0.0
742,-3.269970116086516,2.069549003602015,86.64752042696993,0.0
743,-3.477216935756362,1.8457781767746506,86.49734319913777,0.0
744,-3.785614784908927,1.5322893706254934,86.34996412374524,0.0
745,-4.1911201432720055,1.1352814322942668,86.20532151046469,0.0
746,-4.678572609778346,0.6687862577998345,86.06335475178767,0.0
747,-5.223205582403577,0.15333215635848663,85.92400428725519,0.0
748,-5.794009584014767,-0.38639801180649447,85.78721156893758,0.0
749,-6.358283787424816,-0.9245353442753428,85.65291902811744,0.0
750,-6.886422067792472,-1.437111051713695,85.5210700431296,0.0
751,-7.355932701110007,-1.9047240600532565,85.39160890831573,0.0
752,-7.753893490385927,-2.314337289526856,85.26448080405207,0.0
753,-8.07743371546402,-2.659925612536603,85.13963176781117,0.0
754,-8.332296888753296,-2.941927364595805,85.01700866622087,0.0
755,-8.529947117722237,-3.1656829240302105,84.89655916808408,0.0
756,-8.68394258073541,-3.3392290517707646,84.77823171832594,0.0
757,-8.80637762473906,-3.4709195250501788,84.66197551283612,0.0
758,-8.905107448299743,-3.5673442617077322,84.54774047417493,0.0
759,-8.982255159312812,-3.631926301881958,84.43547722811381,0.0
760,-9.03420271297957,-3.6644141452587,84.32513708098254,0.0
761,-9.052938331907523,-3.661294277711589,84.21667199779583,0.0
762,-9.028346786291664,-3.616966985561292,84.11003458113373,0.0
763,-8.95086011420957,-3.525393576294414,84.0051780507516,0.0
764,-8.813873531472831,-3.38185753918595,83.90205622389604,0.0
765,-8.61545699679791,-3.1844917929156145,83.80062349630481,0.0
766,-8.359101520302454,-2.9352985348431346,83.70083482386879,0.0
767,-8.053470550590426,-2.6405048987922797,83.60264570493645,0.0
768,-7.711332078525563,-2.3102287404036908,83.50601216324056,0.0
769,-7.347985809317321,-1.95754790701321,83.41089073142939,0.0
770,-6.9795402057574405,-1.597153731112332,83.31723843518388,0.0
771,-6.621332137700118,-1.2438154541572903,83.22501277790427,0.0
772,-6.286655578565761,-0.9108868468404703,83.13417172594998,0.0
773,-5.985841439625553,-0.6090567185583683,83.04467369441697,0.0
774,-5.725662753084224,-0.34549215262345234,82.95647753343796,0.0
775,-5.5090395994898165,-0.12345815977126984,82.86954251499131,0.0
776,-5.335056154053136,0.057570901649615314,82.78382832020516,0.0
777,-5.199332158752337,0.20135749782072165,82.6992950271434,0.0
778,-5.0947792559298195,0.31400965428862215,82.61590309906161,0.0
779,-5.012711040662674,0.4028985509753693,82.53361337312079,0.0
780,-4.944182115252929,0.4755530123755607,82.45238704954771,0.0
781,-4.881340387482489,0.5386964517703999,82.37218568123068,0.0
782,-4.818526577364229,0.597562969591234,82.2929711637408,0.0
783,-4.752873887956289,0.6555763152417429,82.21470572576831,0.0
784,-4.684257900359502,0.7144061009764494,82.13735191996466,0.0
785,-4.614605832066202,0.7743428383575929,82.06087261418108,0.0
786,-4.5467534758384005,0.8348724864714504,81.98523098309497,0.0
787,-4.483177419457989,0.8952964497491064,81.91039050021551,0.0
788,-4.424972448909864,0.9552431785493185,81.83631493026054,0.0
789,-4.371364583077646,1.0149532119371674,81.76296832189676,0.0
790,-4.319875237817445,1.0752821459143251,81.69031500083601,0.0
791,-4.267049009615175,1.1374400856049007,81.61831956328022,0.0
792,-4.209500206279454,1.2025532492973519,81.54694686970839,0.0
793,-4.144966323938507,1.2711772359092852,81.47616203899834,0.0
794,-4.073083494637891,1.3429020877713247,81.40593044287786,0.0
795,-3.9956927201435875,1.41616536876908,81.33621770069777,0.0
796,-3.9166094859943796,1.4883382390340474,81.2669896745221,0.0
797,-3.8409110206576176,1.556084345675931,81.19821246452871,0.0
798,-3.773894806533676,1.6159281808511154,81.12985240471538,0.0
799,-3.7199300801516477,1.6649227865970444,81.06187605890547,0.0
800,-3.681455731615811,1.7012858092658354,80.99425021704823,0.0
801,-3.658362511040036,1.7248805109370136,80.92694189180848,0.0
802,-3.6479203950903365,1.7374499140679949,80.85991831544078,0.0
803,-3.6452734480881666,1.7425578715132497,80.79314693694303,0.0
804,-3.644359211541208,1.7452384180681393,80.72659541948507,0.0
805,-3.6389842733717543,1.7513938539981921,80.66023163810753,0.0
806,-3.6237669247666773,1.7670071456382417,80.59402367768628,0.0
807,-3.5947604341170196,1.797246203756492,80.52793983115811,0.0
808,-3.5497499074315977,1.845542269146278,80.4619485980036,0.0
809,-3.4883819918092813,1.9127293633940716,80.39601868298223,0.0
810,-3.4123539336956905,1.9963409840897415,80.33011899511612,0.0
811,-3.3258176203488077,2.090172069492258,80.26421864691787,0.0
812,-3.235970465408081,2.184220010780227,80.19828695385851,0.0
813,-3.153588157655533,2.2651055171733065,80.1322934340713,0.0
814,-3.0931080554698234,2.317031466453931,80.06620780828753,0.0
815,-3.071881223695352,2.3232622952087083,80.0,1.0
816,-3.108401555201973,2.2680066129269894,79.9334102798011,0.0
817,-3.2196409134612516,2.138481967198649,79.86622778659978,0.0
818,-3.4179586002149227,1.9268605745512306,79.79849571202433,0.0
819,-3.7082850126781075,1.631764947332258,79.7302569945351,0.0
820,-4.086310194359135,1.2590194980300653,79.66155431440701,0.0
821,-4.538212506264025,0.8214689285280218,79.59243008919472,0.0
822,-5.042092423865863,0.3378290364158417,79.5229264696743,0.0
823,-5.570845916710398,-0.16929122525955687,79.45308533625406,0.0
824,-6.095860591360486,-0.6759038044231134,79.38294829584787,0.0
825,-6.590757290613516,-1.1592986242397898,79.31255667920347,0.0
826,-7.034466574348658,-1.6004248975499058,79.24195153867905,0.0
827,-7.413171073834147,-1.9856313076656038,79.17117364645995,0.0
828,-7.720950224036644,-2.30751944079015,79.10026349320897,0.0
829,-7.95922209487651,-2.5648255182516273,79.02926128714216,0.0
830,-8.135229463487768,-2.7614154309742323,78.958206953523,0.0
831,-8.259876331739877,-2.904626242505409,78.88714013456719,0.0
832,-8.345242999110223,-3.0032884635807195,78.81610018975111,0.0
833,-8.402138110159491,-3.0658015348353147,78.74512619651583,0.0
834,-8.438078685272208,-3.0986051144701534,78.67425695135984,0.0
835,-8.456072696233253,-3.1052974449246684,78.6035309713129,0.0
836,-8.45446517177126,-3.086516450977878,78.53298649578394,0.0
837,-8.427899116792656,-3.04054490188855,78.46266148877562,0.0
838,-8.369190351487243,-2.9644579222183305,78.39259364145884,0.0
839,-8.271693308530073,-2.8555281208852987,78.32282037510002,0.0
840,-8.131601621434122,-2.7125620207631465,78.25337884433446,0.0
841,-7.9496192997849535,-2.5368700899467234,78.18430594077927,0.0
842,-7.731570959532673,-2.3326648751368326,78.11563829697914,0.0
843,-7.4877779946273195,-2.1068162670607014,78.04741229067899,0.0
844,-7.231351521069945,-1.868038473349768,77.97966404941712,0.0
845,-6.9758444891137765,-1.625705922095332,77.9124294554331,0.0
846,-6.732868260133976,-1.3885670589612835,77.84574415088463,0.0
847,-6.510264055231954,-1.163630902714758,77.77964354336791,0.0
848,-6.311242824154109,-0.9554431741799527,77.71416281173634,0.0
849,-6.134631767780767,-0.7658646627302295,77.64933691221236,0.0
850,-5.976072235897055,-0.5943428576286269,77.58520058478786,0.0
851,-5.829776788965524,-0.4385601057302292,77.52178835990836,0.0
852,-5.690331437545701,-0.29527324298679924,77.45913456543718,0.0
853,-5.554055456392582,-0.16114399992384965,77.39727333389493,0.0
854,-5.419600498397472,-0.033394521351447826,77.33623860997145,0.0
855,-5.287731863928004,0.08980745300711168,77.27606415830591,0.0
856,-5.160500097997492,0.2092473722658772,77.21678357153276,0.0
857,-5.040186702715552,0.32479078691492436,77.15843027859002,0.0
858,-4.928433159527276,0.4356426983345395,77.10103755328811,0.0
859,-4.825838079962925,0.5406393619884535,77.04463852313617,0.0
860,-4.73209261232422,0.6384979876476403,76.98926617842504,0.0
861,-4.646507798946831,0.7279906466794712,76.93495338156437,0.0
862,-4.568648615797151,0.8080481290935262,76.88173287667352,0.0
863,-4.498771187820611,0.8778241000132913,76.82963729942476,0.0
864,-4.43786082658791,0.9367539495459175,76.77869918713874,0.0
865,-4.387246958526405,0.9846290850372359,76.72895098913196,0.0
866,-4.347955881149176,1.0216852546965662,76.68042507731644,0.0
867,-4.320076396869194,1.048683879710821,76.63315375705231,0.0
868,-4.302405162284239,1.0669566308539626,76.58716927825436,0.0
869,-4.292511262450422,1.0783882026952303,76.5425038467539,0.0
870,-4.287175822128541,1.0853269811928532,76.49918963591787,0.0
871,-4.283013136605151,1.0904309124464744,76.4572587985273,0.0
872,-4.2770315295564085,1.0964691292191957,76.41674347891805,0.0
873,-4.266952325319648,1.1061047356609908,76.3776758253865,0.0
874,-4.251229066985002,1.1216811992877405,76.34008800286429,0.0
875,-4.228836043025032,1.1450284619856268,76.30401220586556,0.0
876,-4.198980550528891,1.1773007470718655,76.26948067171173,0.0
877,-4.160914294896793,1.218859750196583,76.2365256940382,0.0
878,-4.11396934807479,1.2692239345832923,76.20517963658887,0.0
879,-4.057835071279195,1.3271120038487674,76.17547494730405,0.0
880,-3.992962371773706,1.3906086639867832,76.14744417270877,0.0
881,-3.9208882262371754,1.4574666427418328,76.12111997260767,0.0
882,-3.8442660916596587,1.5255281885338043,76.09653513509497,0.0
883,-3.7664782875399885,1.5932063996729662,76.07372259188662,0.0
884,-3.690861773724688,1.6599231688779024,76.05271543398442,0.0
885,-3.6197415462296685,1.726371958460448,76.03354692768026,0.0
886,-3.55358119511385,1.794475194633033,76.01625053091152,0.0
887,-3.4905905058821642,1.8669469161721124,76.000859909977,0.0
888,-3.4270581208235735,1.9464501800909877,75.98740895662588,0.0
889,-3.3585084196040564,2.0344422699826055,75.9759318055305,0.0
890,-3.281548290161197,2.1299053572707844,75.96646285215606,0.0
891,-3.196029491298882,2.228237297049767,75.9590367710408,0.0
892,-3.1069759816554106,2.320600581346693,75.95368853450017,0.0
893,-3.025674568368389,2.3939814060500857,75.95045343177054,0.0
894,-2.9694376017193784,2.4320959569344147,75.94936708860759,1.0
895,-2.9598169661375344,2.4171163579407615,75.94968009238477,0.0
896,-3.0194314171819654,2.332008580195705,75.95061106781381,0.0
897,-3.1679680492183144,2.163120979107447,75.95214798278255,0.0
898,-3.418207803894861,1.902574061391001,75.95427883262056,0.0
899,-3.7729947782765567,1.550005040142147,75.95699163819964,0.0
900,-4.223877952342554,1.1133190532353923,75.96027444407517,0.0
901,-4.751754336312922,0.6082738509273484,75.96411531666787,0.0
902,-5.329361970498269,0.05693882428199726,75.96850234248568,0.0
903,-5.925057769256641,-0.5147242958156264,75.97342362638516,0.0
904,-6.507078697483293,-1.0797571234915746,75.97886728987227,0.0
905,-7.047463056102353,-1.613103024442427,75.98482146944212,0.0
906,-7.524970622259183,-2.094056934806616,75.99127431495724,0.0
907,-7.926615543879771,-2.5079216994064226,75.99821398806431,0.0
908,-8.247737136577518,-2.8466892632806515,76.00562866064888,0.0
909,-8.490815014343328,-3.108748170330271,76.01350651332811,0.0
910,-8.663435104620225,-3.2977842272381213,76.02183573398081,0.0
911,-8.77590055485673,-3.421158668755953,76.03060451631511,0.0
912,-8.838955551436948,-3.4881003838376325,76.03980105847327,0.0
913,-8.861983197553325,-3.5080333180886494,76.04941356167352,0.0
914,-8.851897146284717,-3.4892882185671534,76.05943022888869,0.0
915,-8.812801756110485,-3.4383402667510623,76.06983926356179,0.0
916,-8.746355000500705,-3.3595960818190496,76.08062886835792,0.0
917,-8.652638584129388,-3.2556492279207516,76.09178724395308,0.0
918,-8.53124770360723,-3.127851170411691,76.10330258785902,0.0
919,-8.382296255728079,-2.9770142456372493,76.11516309328474,0.0
920,-8.207105145263153,-2.8040744521421197,76.12735694803416,0.0
921,-8.008470153659387,-2.6105858528484367,76.1398723334402,0.0
922,-7.7905346444963355,-2.3989804611347414,76.15269742333487,0.0
923,-7.558377853827274,-2.1725912276687125,76.1658203830559,0.0
924,-7.317462882488063,-1.9354867962354367,76.17922936848926,0.0
925,-7.073084986256896,-1.692195705317125,76.19291252514829,0.0
926,-6.829936823958753,-1.4474017458249915,76.2068579872888,0.0
927,-6.591869958390687,-1.205674584648281,76.22105387706064,0.0
928,-6.361883081310431,-0.9712687014425543,76.23548830369563,0.0
929,-6.142311240897434,-0.7479898570863673,76.25014936273183,0.0
930,-5.935134690054708,-0.5391022239777068,76.26502513527437,0.0
931,-5.7422819270344565,-0.34723866329375475,76.28010368729282,0.0
932,-5.565784034367746,-0.17428431091653862,76.29537306895524,0.0
933,-5.407663644299512,-0.02122675876554614,76.31082131399899,0.0
934,-5.269521596215694,0.11200338868478399,76.32643643913838,0.0
935,-5.151906154583051,0.22665110873064886,76.34220644350938,0.0
936,-5.053673549948533,0.32515223478764943,76.35811930815134,0.0
937,-4.971616091845401,0.4109925434585634,76.374162995526,0.0
938,-4.900595726395133,0.48838903118553456,76.39032544907396,0.0
939,-4.834268238080861,0.5618170146568043,76.40659459280842,0.0
940,-4.766264617900086,0.6354525564201834,76.42295833094695,0.0
941,-4.691501555296969,0.712631252305508,76.43940454758079,0.0
942,-4.607213101740269,0.795430340610874,76.45592110638226,0.0
943,-4.513375115751926,0.8844579999894857,76.4724958503503,0.0
944,-4.412406822837926,0.9788875618194415,76.48911660159433,0.0
945,-4.308291654789416,1.0767185872159544,76.50577116115663,0.0
946,-4.205452709685547,1.175197541424014,76.52244730887328,0.0
947,-4.107766706989358,1.2713015402119694,76.53913280327413,0.0
948,-4.017991895288369,1.3621856749123347,76.55581538152148,0.0
949,-3.9376805126625483,1.4455156092333086,76.57248275938836,0.0
950,-3.8674469388898567,1.5196436673999947,76.58912263127577,0.0
951,-3.807358734878104,1.5836269200754622,76.6057226702698,0.0
952,-3.757241718368628,1.6371196686448988,76.62227052823825,0.0
953,-3.716804792534636,1.6801942434284893,76.6387538359674,0.0
954,-3.6856175636375847,1.7131518135837813,76.65516020333864,0.0
955,-3.6630448406453833,1.736380777151888,76.67147721954547,0.0
956,-3.6482328539756104,1.7503070612139413,76.68769245335095,0.0
957,-3.640175998634585,1.7554604841455317,76.7037934533858,0.0
958,-3.6378171103155705,1.7526554918335062,76.71976774848707,0.0
959,-3.6400908164177546,1.7432544832640084,76.73560284807807,0.0
960,-3.645829330996526,1.7294506493922195,76.75128624258912,0.0
961,-3.653509996376226,1.7144804825333138,76.76680540391958,0.0
962,-3.6609106499954382,1.702661936500417,76.78214778594152,0.0
963,-3.6648180375814174,1.6991611887908116,76.79730082504453,0.0
964,-3.6609741081690936,1.7094251706650658,76.81225194072255,0.0
965,-3.6444286614026478,1.7382789879282172,76.82698853620225,0.0
966,-3.610395477875962,1.7887697639697844,76.84149799911341,0.0
967,-3.5555921117284974,1.8609259287602546,76.85576770220138,0.0
968,-3.4798925938158876,1.9506722571249555,76.86978500408142,0.0
969,-3.3879598237608617,2.0491733112310957,76.88353725003553,0.0
970,-3.2903970596086727,2.1428533153849276,76.89701177285131,0.0
971,-3.203931100800905,2.214251718691826,76.91019589370337,0.0
972,-3.150265365158089,2.243728986255218,76.92307692307692,1.0
973,-3.1535195507649885,2.2118610425441982,76.93572102044084,0.0
974,-3.2365408665004094,2.102190531693039,76.948207142032,0.0
975,-3.4167257986218127,1.9038806660005232,76.9605417939517,0.0
976,-3.7022245117389176,1.6137790153503377,76.97273149263556,0.0
977,-4.089434380315203,1.237463836381952,76.98478276460472,0.0
978,-4.562491986321518,0.7890104424126909,76.9967021462275,0.0
979,-5.095065523200405,0.2894504347530583,77.00849618349226,0.0
980,-5.654213700165096,-0.2358468410530148,77.02017143179067,0.0
981,-6.205549575499971,-0.7604214051415759,77.03173445571221,0.0
982,-6.71858809036272,-1.260018135952277,77.04319182884956,0.0
983,-7.171090293518759,-1.715340996387046,77.05455013361495,0.0
984,-7.551479311746519,-2.1137924106087853,77.06581596106763,0.0
985,-7.858912174429935,-2.4499396556809656,77.0769959107523,0.0
986,-8.101183482754692,-2.7247151902894733,77.08809659054889,0.0
987,-8.291134405963149,-2.9436119134677425,77.0991246165333,0.0
988,-8.442520349071142,-3.1143212988854105,77.11008661284954,0.0
989,-8.566312157188623,-3.244344016649926,77.120989211593,0.0
990,-8.66819955306983,-3.3390670177698816,77.131839052705,0.0
991,-8.747708336395137,-3.4006634013364105,77.14264278387884,0.0
992,-8.798936582497928,-3.4279687417592415,77.15340706047704,0.0
993,-8.812564539553152,-3.4172684783074523,77.16413854545999,0.0
994,-8.778573777646661,-3.363743632132957,77.17484390932626,0.0
995,-8.689043195549054,-3.2632037030817234,77.185529830064,0.0
996,-8.540443167267382,-3.113705265835943,77.19620299311424,0.0
997,-8.334983871840786,-2.9167112339996755,77.20687009134546,0.0
998,-8.080769789909667,-2.677569349105875,77.2175378250399,0.0
999,-7.790761248199354,-2.4052469097112894,77.22821290189133,0.0
1000,-7.4808133373494785,-2.1114151058702997,77.23890203701464,0.0
1001,-7.1672801080505355,-1.8090973351205655,77.24961195296692,0.0
1002,-6.8647557131938175,-1.511159270424053,77.26034937978041,0.0
1003,-6.584435759119207,-1.2289172110437285,77.27112105500706,0.0
1004,-6.333356154969564,-0.9710839448705126,77.28193372377505,0.0
1005,-6.11449374099228,-0.7431784607408467,77.29279413885688,0.0
1006,-5.927492720542872,-0.5474232362237166,77.30370906074955,0.0
1007,-5.769678709483372,-0.38306445835405534,77.31468525776641,0.0
1008,-5.637048609863847,-0.2469926468461936,77.3257295061412,0.0
1009,-5.525040906283863,-0.1345194275517868,77.33684859014372,0.0
1010,-5.429033509968055,-0.04017641047889775,77.34804930220776,0.0
1011,-5.344626244479691,0.04156658969262428,77.35933844307097,0.0
1012,-5.267811687520318,0.11572736606585488,77.37072282192679,0.0
1013,-5.1951236679766115,0.18640809126039226,77.38220925658854,0.0
1014,-5.123802122872951,0.25656309451168857,77.39380457366565,0.0
1015,-5.051957603550542,0.32792209001983397,77.40551560875204,0.0
1016,-4.978683350128329,0.4010468813289979,77.41734920662694,0.0
1017,-4.904058591359639,0.4754983560299769,77.42931222146771,0.0
1018,-4.829009831225663,0.5500906779864556,77.44141151707524,0.0
1019,-4.755034283166855,0.6232084327876696,77.45365396711173,0.0
1020,-4.683827160481846,0.6931593326800582,77.46604645535072,0.0
1021,-4.616881463226149,0.7585306793637849,77.47859587593983,0.0
1022,-4.555137058001806,0.8185136607519501,77.49130913367597,0.0
1023,-4.498740051653804,0.873157384530497,77.50419314429318,0.0
1024,-4.446937462106912,0.9235157044494321,77.51725483476307,0.0
1025,-4.398093246382926,0.9716554013219012,77.53050114360809,0.0
1026,-4.349792956761652,1.0205049282546979,77.54393902122754,0.0
1027,-4.29901659084526,1.0735392682349068,77.5575754302365,0.0
1028,-4.242389904781934,1.1343184461382292,77.5714173458175,0.0
1029,-4.176545640399031,1.205923585620997,77.58547175608558,0.0
1030,-4.0986156749773395,1.2903618395118226,77.59974566246598,0.0
1031,-4.006831000679771,1.3880345953720679,77.61424608008527,0.0
1032,-3.9011442558739673,1.4973750789133187,77.62898003817568,0.0
1033,-3.7837317536297066,1.614754962898988,77.64395458049263,0.0
1034,-3.659201467894897,1.7347303389848927,77.65917676574583,0.0
1035,-3.534351209344252,1.850645560711196,77.6746536680437,0.0
1036,-3.4173992757821012,1.9555451866075348,77.69039237735154,0.0
1037,-3.3167389158896436,2.043271606629242,77.70639999996324,0.0
1038,-3.239412684449253,2.109564922538227,77.72268365898695,0.0
1039,-3.189615235987331,2.1529487104814917,77.73925049484446,0.0
1040,-3.1675759548357405,2.175193073638864,77.75610766578468,0.0
1041,-3.1691329035192286,2.1811999386513143,77.77326234841124,0.0
1042,-3.186194285276546,2.1782499679651695,77.79072173822424,0.0
1043,-3.2081121314923022,2.1746708204622043,77.80849305017644,0.0
1044,-3.2237954539596156,2.1781101554464497,77.82658351924383,0.0
1045,-3.224210259928628,2.1936977606375896,77.84500040101089,0.0
1046,-3.204799011138013,2.222435694179982,77.8637509722706,0.0
1047,-3.1673316827682774,2.260147224897897,77.88284253163907,0.0
1048,-3.120772519594933,2.2972403666012524,77.90228240018568,0.0
1049,-3.080888895445518,2.3194094943518477,77.92207792207792,1.0
1050,-3.068523124817113,2.309231453305405,77.94317142728951,0.0
1051,-3.106686534077464,2.248442559391104,77.96645742116772,0.0
1052,-3.2168981251568884,2.120544953022467,77.99187168606551,0.0
1053,-3.41542230304292,1.9133155306393435,78.01935018536135,0.0
1054,-3.710175480476912,1.6207969250625576,78.04882902833272,0.0
1055,-4.0989948496643,1.2444391956961227,78.08024443613475,0.0
1056,-4.569678848373116,0.7932155333566038,78.11353270886423,0.0
1057,-5.101784039991098,0.28272221550854715,78.14863019369174,0.0
1058,-5.6697262313275685,-0.26654874112276916,78.18547325404668,0.0
1059,-6.246427473348424,-0.8314446851819861,78.22399823984253,0.0
1060,-6.80667530677406,-1.3885174217390164,78.26414145873136,0.0
1061,-7.329533634609278,-1.9161618554413855,78.30583914837901,0.0
1062,-7.799494288102623,-2.396259476578942,78.34902744975403,0.0
1063,-8.20645394961868,-2.8151840929695977,78.39364238142565,0.0
1064,-8.544904037110031,-3.164157925755539,78.43961981486727,0.0
1065,-8.81283672103711,-3.4390518678600763,78.48689545076492,0.0
1066,-9.010783220495178,-3.6397864000738998,78.53540479633004,0.0
1067,-9.141181314081928,-3.7695060663474096,78.58508314361947,0.0
1068,-9.208039351920185,-3.8336798638989507,78.63586554886548,0.0
1069,-9.216730829526421,-3.839238853609084,78.68768681282123,0.0
1070,-9.173750245948392,-3.7938177251934597,78.74048146212782,0.0
1071,-9.086342176115979,-3.705131270940811,78.79418373171112,0.0
1072,-8.962008055433131,-3.5804949503090375,78.8487275482168,0.0
1073,-8.807955933582864,-3.42648956014487,78.9040465144946,0.0
1074,-8.630587139242826,-3.2487678905727106,78.96007389514266,0.0
1075,-8.43512241701054,-3.0519995844589527,79.01674260312492,0.0
1076,-8.225455724907196,-2.8399444535988363,79.07398518747506,0.0
1077,-8.004276657298592,-2.615632890868395,79.13173382210124,0.0
1078,-7.773430262603357,-2.381617055805982,79.18992029570761,0.0
1079,-7.534415331008123,-2.1402430618433748,79.2484760028483,0.0
1080,-7.2888873346287575,-1.8938879516449822,79.30733193613132,0.0
1081,-7.0390368311975084,-1.6451098672130855,79.36641867958959,0.0
1082,-6.787747566547957,-1.3966765651322661,79.4256664032377,0.0
1083,-6.5384898925312305,-1.1514637811428299,79.48500485883292,0.0
1084,-6.294969297859236,-0.9122453356142124,79.54436337685962,0.0
1085,-6.060617474644514,-0.681424078321814,79.60367086475655,0.0
1086,-5.838063846576426,-0.46076987865135344,79.66285580640677,0.0
1087,-5.62873644451325,-0.25123315624428777,79.72184626291002,0.0
1088,-5.432704995320515,-0.05288872547851253,79.78056987465737,0.0
1089,-5.248810064396399,0.1349623035586467,79.83895386472803,0.0
1090,-5.0750463701945865,0.3135392620950127,79.89692504362802,0.0
1091,-4.909109955985887,0.4842182358849798,79.95440981539036,0.0
1092,-4.748990162012122,0.6481254830581293,80.01133418505516,0.0
1093,-4.593488286383767,0.8057687493248284,80.06762376754922,0.0
1094,-4.442567868810738,0.9567844021757408,80.12320379798221,0.0
1095,-4.297477521511391,1.099859707332307,80.17799914337749,0.0
1096,-4.160628568022237,1.232858571308024,80.23193431585345,0.0
1097,-4.035249546867372,1.35314116605024,80.28493348727154,0.0
1098,-3.9248706181661377,1.4580297212535631,80.336920505365,0.0
1099,-3.832708545345989,1.5453412879166168,80.38781891136189,0.0
1100,-3.7610305911175903,1.6138895507407083,80.4375519591144,0.0
1101,-3.7105832495666933,1.6638562638960717,80.48604263574506,0.0
1102,-3.6801844016305028,1.6969505982446673,80.53321368381864,0.0
1103,-3.6665852314960397,1.7163103871635805,80.57898762504746,0.0
1104,-3.664690152670211,1.726147997588328,80.62328678553526,0.0
1105,-3.6681647893776708,1.731196775533877,80.66603332256358,0.0
1106,-3.670370000715703,1.7360605829425453,80.70714925292167,0.0
1107,-3.6654587713589586,1.74459722445029,80.7465564827795,0.0
1108,-3.649394007318829,1.75946731364189,80.7841768391009,0.0
1109,-3.620618751998447,1.7819494670877019,80.81993210259095,0.0
1110,-3.5801602275797366,1.812064244823753,80.85374404216992,0.0
1111,-3.5310836290267176,1.8489744199630258,80.88553445096248,0.0
1112,-3.4774060023245186,1.8915553072329647,80.91522518378905,0.0
1113,-3.422771227691665,1.9389752350489744,80.9427381961422,0.0
1114,-3.3692943675424125,1.991108745997037,80.96799558462887,0.0
1115,-3.3169544579323316,2.048631652795406,80.99091962885535,0.0
1116,-3.2637549661989653,2.1127147455197166,81.01143283472912,0.0
1117,-3.2066421332649395,2.18432821297017,81.02945797914795,0.0
1118,-3.1429573772989197,2.263270712995628,81.04491815604388,0.0
1119,-3.07206820204234,2.3471221303461354,81.057736823745,0.0
1120,-2.9967984489485584,2.4303671178105652,81.06783785361607,0.0
1121,-2.9243443919010517,2.503934746531569,81.07514557993329,0.0
1122,-2.8664710900495316,2.555345173419723,81.0795848509471,0.0
1123,-2.8388882882672783,2.5695546851098348,81.08108108108108,1.0
1124,-2.859792486111975,2.530462318286909,81.07578950159265,0.0
1125,-2.9476551264659627,2.422907425695162,81.06008419311196,0.0
1126,-3.11847080317465,2.2348738766447616,81.03422502768849,0.0
1127,-3.382854192782935,1.9595473747172105,80.99847899267817,0.0
1128,-3.7435311690544664,1.5968655419285902,80.95311954314556,0.0
1129,-4.19381465665069,1.1542627497207876,80.8984259603765,0.0
1130,-4.717521934074593,0.6464357750597619,80.83468271876141,0.0
1131,-5.290488073096066,0.09412058669485501,80.76217886316503,0.0
1132,-5.883452105078448,-0.4779572033810382,80.68120739874556,0.0
1133,-6.465765568753766,-1.0436510039840554,80.59206469503236,0.0
1134,-7.009197893617187,-1.57808705291311,80.49504990591177,0.0
1135,-7.491125814572495,-2.06007819322662,80.39046440701158,0.0
1136,-7.896569372104497,-2.4739172794139046,80.27861125181536,0.0
1137,-8.218816283118633,-2.810334297464401,80.15979464767915,0.0
1138,-8.458691512830622,-3.066556430501055,80.0343194527678,0.0
1139,-8.622809040566851,-3.2455624630479334,79.90249069477558,0.0
1140,-8.721318439330318,-3.3547419081802317,79.76461311214787,0.0
1141,-8.76568191977706,-3.40423531688435,79.62099071837848,0.0
1142,-8.766891839321614,-3.4052397230411593,79.47192638981996,0.0
1143,-8.734328034301095,-3.3685201089888657,79.31772147731463,0.0
1144,-8.675248716788714,-3.3032918889090754,79.15867544183081,0.0
1145,-8.594773159666833,-3.2165521828399393,78.99508551417298,0.0
1146,-8.496163412995335,-3.1128582994420206,78.82724637872744,0.0
1147,-8.381225336283421,-2.994492980696379,78.65544988110388,0.0
1148,-8.2507013420402,-2.861921957323654,78.47998475944301,0.0
1149,-8.104600667823362,-2.7144373336895495,78.30113639907545,0.0
1150,-7.942487721896847,-2.5508830250249854,78.11918661014197,0.0
1151,-7.763796856364363,-2.3703679658317274,77.9344134277177,0.0
1152,-7.568238811526868,-2.1728836198363095,77.74709093392275,0.0
1153,-7.356308575901809,-1.9597531300502682,77.55748910144959,0.0
1154,-7.129821320470215,-1.733852832025559,77.36587365789325,0.0
1155,-6.892330015375293,-1.4995672738325023,77.17250597023184,0.0
1156,-6.649248958745369,-1.2624697205895326,76.97764294877484,0.0
1157,-6.407541579058541,-1.0287609359933199,76.78153696987178,0.0
1158,-6.174929806073239,-0.8045442178211886,76.58443581665534,0.0
1159,-5.95872503933637,-0.5950541219514659,76.38658263708102,0.0
1160,-5.764524642743806,-0.4039781830368625,76.18821591851741,0.0
1161,-5.595109645369959,-0.23300559220732087,75.98956947813939,0.0
1162,-5.449874761660682,-0.08170069916848988,75.79087246837877,0.0
1163,-5.325005804405516,0.05226270392557597,75.59234939669305,0.0
1164,-5.2144169818311825,0.17254498893131276,75.39422015892399,0.0
1165,-5.111233404262467,0.2833700634638878,75.19670008553068,0.0
1166,-5.009432020571228,0.388694112506509,75.0,0.0
1167,-4.905202742421531,0.49147717009501857,74.80432628875565,0.0
1168,-4.7976818287238325,0.5931922547714665,74.60988098191098,0.0
1169,-4.688907445237567,0.6936475622057116,74.4168618442338,0.0
1170,-4.5830795169094145,0.7911239641784524,74.22546247571937,0.0
1171,-4.4853938581917765,0.8827627529765463,74.03587242119443,0.0
1172,-4.400809923904826,0.9650945321594715,73.84827728840617,0.0
1173,-4.333086139571567,1.0345890545009973,73.66285887407973,0.0
1174,-4.28429610321142,1.0881271089958764,73.47979529746068,0.0
1175,-4.254867742377977,1.1233392285811594,73.2992611408909,0.0
1176,-4.2440214580329805,1.1388060841197443,73.121427597,0.0
1177,-4.2503721222293835,1.1341553209956476,72.94646262212869,0.0
1178,-4.272432482754153,1.1101071772614861,72.7745310956347,0.0
1179,-4.308814335112666,1.0685125147541563,72.6057949847663,0.0
1180,-4.358047687609335,1.012397008183481,72.44041351482437,0.0
1181,-4.418088957919406,0.9459865092723577,72.2785433443686,0.0
1182,-4.485718644375439,0.8746565313285997,72.12033874525892,0.0
1183,-4.556091206892878,0.8047370468117019,71.96595178735919,0.0
1184,-4.622672035978857,0.7431197739529461,71.81553252776547,0.0
1185,-4.677691332046927,0.696657502402364,71.66922920445747,0.0
1186,-4.713102221717533,0.6714037497404116,71.52718843430723,0.0
1187,-4.721890985518341,0.671800080024857,71.38955541541621,0.0
1188,-4.699475075319301,0.6999600424058596,71.25647413378726,0.0
1189,-4.64485555390688,0.7552085457917709,71.12808757437598,0.0
1190,-4.561188953385826,0.8340068321743567,71.00453793660225,0.0
1191,-4.455537915870573,0.930329279291875,70.88596685444098,0.0
1192,-4.337753922352804,1.0364719508848501,70.77251562124935,0.0
1193,-4.218692039165622,1.1441835805655982,70.66432541952695,0.0
1194,-4.108168968601611,1.245938370051592,70.5615375558452,0.0
1195,-4.013165534904658,1.3361330936893472,70.46429370122402,0.0
1196,-3.936703421831041,1.411996222261893,70.37273613727524,0.0
1197,-3.8776188189724334,1.4740414059195617,70.28700800847732,0.0
1198,-3.831190442613487,1.5259703433704284,70.20725358099055,0.0
1199,-3.7903555540817275,1.5740151560804843,70.13361850847015,0.0
1200,-3.7471484095245677,1.6257930026373086,70.06625010538387,0.0
1201,-3.694052519786636,1.6888154525244128,70.00529762839412,0.0
1202,-3.625130549817069,1.7688472071811363,69.9509125664182,0.0
1203,-3.5369827758343315,1.8683417492521077,69.90324894004061,0.0
1204,-3.4296733620140714,1.9851940880664134,69.86246361101193,0.0
1205,-3.3076898373904426,2.1120388626499103,69.82871660263581,0.0
1206,-3.180792325596063,2.236278779925602,69.80217143191595,0.0
1207,-3.064376937010042,2.340947463066735,69.78299545441115,0.0
1208,-2.9788671653875167,2.406392396993567,69.77136022282747,0.0
1209,-2.9477660600931195,2.4126195819339946,69.76744186046511,1.0
1210,-2.9943626890909933,2.3419968909260325,69.78361834368296,0.0
1211,-3.1375832134165305,2.1819025322327343,69.83147669633163,0.0
1212,-3.3879148913525503,1.9268631118262156,69.91007077267516,0.0
1213,-3.7445055111613534,1.579775508734548,70.01852818605059,0.0
1214,-4.194335683278902,1.151949354604107,70.1560422621994,0.0
1215,-4.713819189698217,0.6619180614918788,70.32186460864878,0.0
1216,-5.272498381809338,0.13320075905555884,70.5152982075965,0.0
1217,-5.837921865663465,-0.40859928054670847,70.73569095077661,0.0
1218,-6.3805218684648075,-0.9388503830563373,70.98242954417178,0.0
1219,-6.87741398959619,-1.4365771021187124,71.25493371847006,0.0
1220,-7.3144404612222385,-1.8863415017948393,71.55265068807415,0.0
1221,-7.686297174185303,-2.2790656248191143,71.87504980745692,0.0
1222,-7.995047652961763,-2.6117568604254235,72.22161737888781,0.0
1223,-8.247619268693295,-2.8863064945561203,72.59185157017805,0.0
1224,-8.452966095549224,-3.1076893262013465,72.9852574052341,0.0
1225,-8.619500026925811,-3.281972073281129,73.40134179398625,0.0
1226,-8.753201421910633,-3.414532801305411,73.839608571772,0.0
1227,-8.856598570801204,-3.508812988516818,74.29955352159718,0.0
1228,-8.9286206715241,-3.565791032707969,74.78065935596163,0.0
1229,-8.96521909224665,-3.5842102253149353,75.28239063819936,0.0
1230,-8.960603420671347,-3.5614449573047686,75.80418862662762,0.0
1231,-8.90890244606027,-3.494771451652894,76.34546602830086,0.0
1232,-8.805996168684114,-3.382741841773674,76.90560165289732,0.0
1233,-8.651184705619269,-3.226352383001058,77.48393496129974,0.0
1234,-8.448320839826907,-3.0297477228071417,78.07976050783842,0.0
1235,-8.206090660684382,-2.800303231384265,78.69232228000796,0.0
1236,-7.937291393268284,-2.5480571800101752,79.3208079448128,0.0
1237,-7.65718622167946,-2.2845985422760635,79.96434301679639,0.0
1238,-7.381246406703609,-2.0216271286966583,80.62198496931224,0.0
1239,-7.122756584062868,-1.7694673262426122,81.29271731774134,0.0
1240,-6.890811730977721,-1.535821006556001,81.97544371117165,0.0
1241,-6.689153349062481,-1.3249884804732432,82.6689820775398,0.0
1242,-6.516095018446339,-1.1376819507310836,83.37205887637502,0.0
1243,-6.365526627393024,-0.9714282061039446,84.08330352303959,0.0
1244,-6.22873141696344,-0.8214362366029945,84.80124305865208,0.0
1245,-6.096561433633985,-0.6817190408856333,85.52429715059678,0.0
1246,-5.961436660601877,-0.5462261186779894,86.25077351950537,0.0
1247,-5.818684538205079,-0.4097690245643585,86.97886389963867,0.0
1248,-5.666922011532174,-0.26859673406758056,87.70664065043333,0.0
1249,-5.50746741740227,-0.12057797735695475,88.43205414728456,0.0
1250,-5.343073054889712,0.03495416962136033,89.15293108903137,0.0
1251,-5.176480485449105,0.19757018892701328,89.86697386763745,0.0
1252,-5.009328680576506,0.36617348346117673,90.57176115171701,0.0
1253,-4.841771803156422,0.539360276234644,91.26474983926812,0.0
1254,-4.672861213176639,0.7156329434783144,91.94327853563819,0.0
1255,-4.501446007912707,0.8934559808854063,92.60457270971831,0.0
1256,-4.327171898317391,1.0711999780509562,93.24575167399378,0.0
1257,-4.15116784062482,1.2470486118248458,93.86383752174315,0.0
1258,-3.976176718126534,1.4189413547179568,94.45576613679852,0.0
1259,-3.8061229306917252,1.5845964637051069,95.01840036737941,0.0
1260,-3.6453155467008185,1.741619020761604,95.54854542524451,0.0
1261,-3.497589660611618,1.8876636019335065,96.04296653461653,0.0
1262,-3.36566906086655,2.0206029946170974,96.49840881210505,0.0
1263,-3.2509158906436464,2.1386579925606375,96.91161930954156,0.0
1264,-3.153474945878334,2.240464938340479,97.27937109693673,0.0
1265,-3.072686819325128,2.3250873558328586,97.59848920371456,0.0
1266,-3.0075816701058833,2.3920034788798796,97.86587817437695,0.0
1267,-2.9572820280613388,2.441112516923158,98.07855093158658,0.0
1268,-2.9212094486069473,2.472794061996967,98.23365857743592,0.0
1269,-2.8990634690312356,2.488028588354913,98.3285207047958,0.0
1270,-2.8905961861306824,2.4885499258663555,98.36065573770492,1.0
1271,-2.8952434085052845,2.476964270763958,98.34181617772373,0.0
1272,-2.911708044175617,2.456747261921228,98.28584082526702,0.0
1273,-2.937627981003348,2.4320314727131436,98.19360507659398,0.0
1274,-2.9694865199597866,2.4071270128956823,98.06605979606219,0.0
1275,-3.0029167457489034,2.385776266444376,97.9042247758961,0.0
1276,-3.033493230101121,2.3702203527832406,97.70918201618555,0.0
1277,-3.0579871021648204,2.3602325602380487,97.48206889429488,0.0
1278,-3.0758950993924468,2.3523313203112686,97.22407129028554,0.0
1279,-3.0908805169088467,2.3394015786818656,96.93641673153735,0.0
1280,-3.111652907401164,2.3109148378443427,96.62036761561879,0.0
1281,-3.1518355207225044,2.253843217463964,96.27721456573884,0.0
1282,-3.228558279125286,2.1542254434675177,95.90826996794263,0.0
1283,-3.3598370346811293,1.9991907781884537,95.51486173372702,0.0
1284,-3.5611649959926472,1.7791171215616581,95.09832732606971,0.0
1285,-3.842033946596288,1.489527795866709,94.66000808111298,0.0
1286,-4.2032232345906975,1.1323429148398272,94.20124385202163,0.0
1287,-4.635591511782154,0.7162015651828703,93.72336799594639,0.0
1288,-5.120787402897884,0.25574337601900765,93.22770271964843,0.0
1289,-5.633831002552107,-0.23005450464585286,92.71555479425027,0.0
1290,-6.147031877908177,-0.7201946750013704,92.18821164482814,0.0
1291,-6.634348028649176,-1.1942064060877513,91.64693781619427,0.0
1292,-7.075174901082439,-1.634456562483234,91.09297181226519,0.0
1293,-7.456727738192152,-2.027820800172614,90.52752330289212,0.0
1294,-7.774585880147022,-2.366460278919179,89.95177068894903,0.0
1295,-8.031464730346043,-2.6476475971753146,89.36685901383336,0.0
1296,-8.234710402821358,-2.8727850601188902,88.77389820732131,0.0
1297,-8.393260562540773,-3.045912091882186,88.17396164591864,0.0
1298,-8.514849010416517,-3.1720738194822844,87.5680850124389,0.0
1299,-8.604082171078181,-3.2559081763231097,86.95726543649268,0.0
1300,-8.6617415930596,-3.3007156723921387,86.34246089686039,0.0
1301,-8.685332655039684,-3.308133831965216,85.72458986631162,0.0
1302,-8.670579174802036,-3.2783860465828836,85.10453117929603,0.0
1303,-8.613339207785522,-3.210949671650594,84.4831241030305,0.0
1304,-8.5113564582023,-3.105417165932733,83.86116859281412,0.0
1305,-8.365379133890194,-2.9623167590838007,83.23942571288383,0.0
1306,-8.179421835881747,-2.783707794406274,82.61861820475121,0.0
1307,-7.96022406916668,-2.573449320524535,81.99943118570721,0.0
1308,-7.71618295501909,-2.337131490597269,81.38251296101951,0.0
1309,-7.4561508790329185,-2.0817330774479,80.76847593425647,0.0
1310,-7.188469096149647,-1.8151093029062222,80.15789760112767,0.0
1311,-6.92046671655627,-1.5454189659613404,79.55132161321914,0.0
1312,-6.658439691835763,-1.2805766717208455,78.94925889900182,0.0
1313,-6.4079199297850575,-1.0277798156985525,78.352188830493,0.0
1314,-6.173939980149056,-0.7931265475783639,77.7605604249397,0.0
1315,-5.96104219423055,-0.581321021863168,77.17479357185954,0.0
1316,-5.77294778811613,-0.39545876831855264,76.59528027671217,0.0
1317,-5.612002291394685,-0.236893480656585,76.02238591337473,0.0
1318,-5.478646127608949,-0.10519825873613298,75.45645047845369,0.0
1319,-5.371161203589551,0.001759102982514138,74.89778984128016,0.0
1320,-5.285827300817552,0.08761053177475264,74.34669698420153,0.0
1321,-5.217456367343097,0.15714850643914957,73.80344322850125,0.0
1322,-5.160143705159366,0.21586839911767708,73.26827944194558,0.0
1323,-5.10803474662109,0.2694257356038071,72.74143722457598,0.0
1324,-5.055953028071815,0.323055709612615,72.22313006993632,0.0
1325,-4.999827370603027,0.3810101027441115,71.71355449944694,0.0
1326,-4.9369433916093515,0.44606902767882806,71.21289116811596,0.0
1327,-4.8660912866975945,0.5191830512408512,70.72130594021213,0.0
1328,-4.787677116095362,0.5992959026552508,70.23895093391707,0.0
1329,-4.703817600808213,0.6833880722818033,69.7659655343283,0.0
1330,-4.618371606037399,0.7667647690030256,69.302477374503,0.0
1331,-4.5368056797883085,0.843585754364752,68.84860328451556,0.0
1332,-4.465776320559017,0.9075996036880021,68.40445020875576,0.0
1333,-4.412356976971012,0.9530049327730177,67.97011609191762,0.0
1334,-4.38294117224038,0.9753241851856909,67.54569073432742,0.0
1335,-4.381987450164153,0.9721524014816427,67.13125661743346,0.0
1336,-4.41088860298519,0.943644156915261,66.72688970043318,0.0
1337,-4.467291281919302,0.8926324221061728,66.33266018914672,0.0
1338,-4.545124283681708,0.8243319711681991,65.9486332783641,0.0
1339,-4.635419302913451,0.7456572245183289,65.5748698689939,0.0
1340,-4.727783117251111,0.6642634228627409,65.21142726143253,0.0
1341,-4.812190118876745,0.5874815268281333,64.85835982665047,0.0
1342,-4.88067786850442,0.5213447241711939,64.5157196565623,0.0
1343,-4.928564433245889,0.4698890629854214,64.18355719530896,0.0
1344,-4.954934527008801,0.43485419363252825,63.861921853137325,0.0
1345,-4.962314094170678,0.4158246478527374,63.55086260461382,0.0
1346,-4.955631632547323,0.41075724560581606,63.25042857295894,0.0
1347,-4.940721765332114,0.416758511773596,62.9606696023365,0.0
1348,-4.922733100197177,0.43092687772224075,62.681636819979865,0.0
1349,-4.904826660167909,0.4510695380469695,62.413383190086485,0.0
1350,-4.887476456118795,0.4761438523325715,62.155964061464104,0.0
1351,-4.868524343853495,0.506347677640834,61.909437710967005,0.0
1352,-4.843940227500362,0.5428729497003464,61.67386588482262,0.0
1353,-4.80905178699166,0.5874194124458232,61.4493143400153,0.0
1354,-4.759887414853039,0.641619962906084,61.23585338797,0.0
1355,-4.694257512055433,0.7065424194393664,61.03355844286323,0.0
1356,-4.61228923757412,0.7824022152372887,60.84251057698354,0.0
1357,-4.516298536693579,0.8685553895606162,60.66279708567247,0.0
1358,-4.4100738853232055,0.9637588564104168,60.494512064498146,0.0
1359,-4.297799888097112,1.0666068657625227,60.3377570014516,0.0
1360,-4.182929677121863,1.1759989002564213,60.19264138711255,0.0
1361,-4.0673163380316755,1.2914785787190923,60.05928334590566,0.0
1362,-3.950846901034999,1.413309509889407,59.9378102917691,0.0
1363,-3.831704816918282,1.5422162595547622,59.82835961177938,0.0
1364,-3.7072387714869834,1.6788019813521409,59.73107938153029,0.0
1365,-3.5752658256910395,1.8227392865279952,59.64612911634767,0.0
1366,-3.435521076065234,1.971897825344935,59.573680562742425,0.0
1367,-3.2909159829330683,2.1216053309690697,59.513918534864985,0.0
1368,-3.148297053716733,2.2642307008514315,59.46704180113026,0.0
1369,-3.018496979000024,2.38922939462668,59.43326402664002,0.0
1370,-2.9156158572472903,2.4837128785806257,59.41281477754369,0.0
1371,-2.855626222402844,2.5335109239090636,59.40594059405941,1.0
1372,-2.85452520804579,2.5246064661954613,59.4375230645472,0.0
1373,-2.9263297024407806,2.4447540615360124,59.530825560049045,0.0
1374,-3.0812145394924393,2.2850565440963004,59.6839477567371,0.0
1375,-3.324044976023058,2.041275474108601,59.895312698787734,0.0
1376,-3.6534836769713803,1.7146875994957755,60.16363063001772,0.0
1377,-4.061780763678232,1.3123641667738093,60.487867552586174,0.0
1378,-4.535280886693646,0.846830829109241,60.867217595714315,0.0
1379,-5.0555897640566085,0.3351497179899404,61.30107841906276,0.0
1380,-5.60123663381907,-0.2024608186672583,61.78902898455406,0.0
1381,-6.149581202256098,-0.7442993794896753,62.33080911367027,0.0
1382,-6.678687631465509,-1.268950191954997,62.92630030964602,0.0
1383,-7.168941573358426,-1.7569492057216811,63.57550736939579,0.0
1384,-7.604289937514833,-2.1921730047735877,64.27854034147975,0.0
1385,-7.9730773550144525,-2.562817920009016,65.03559640631705,0.0
1386,-8.26849122567405,-2.861890311255782,65.84694126515404,0.0
1387,-8.488609855043558,-3.0871876349187293,66.71288962665682,0.0
1388,-8.636022509727281,-3.2408078600832675,67.63378437594548,0.0
1389,-8.717009399425454,-3.328276830702205,68.60997400191017,0.0
1390,-8.74034751825277,-3.3574242152178218,69.64178784633386,0.0
1391,-8.715907999025012,-3.3371638399075425,70.72950872448651,0.0
1392,-8.653275951205245,-3.2763395330883025,71.87334245358359,0.0
1393,-8.560622346364422,-3.1827813717352424,73.07338381542623,0.0
1394,-8.44399628983528,-3.0626809234169636,74.32957847588628,0.0
1395,-8.30711314787506,-2.9203427575747947,75.64168039066041,0.0
1396,-8.151615946858447,-2.7583110505604296,77.00920424881139,0.0
1397,-7.97770369774489,-2.577813774895242,78.43137254901961,0.0
1398,-7.78496791836867,-2.3794215274886086,79.90705697533953,0.0
1399,-7.5732682439876395,-2.163790205420388,81.43471384797866,0.0
1400,-7.343502861540974,-1.9323500399085654,83.01231357977025,0.0
1401,-7.098166859198504,-1.6878180651489658,84.63726428117394,0.0
1402,-6.8416222903828166,-1.4344439180060502,86.30632993699669,0.0
1403,-6.580029722008516,-1.1779444937680044,88.015543937664,0.0
1404,-6.320929434980791,-0.9251343973196076,89.76011919669904,0.0
1405,-6.072519924717904,-0.683308637561275,91.53435663124127,0.0
1406,-5.842746953918128,-0.45947424687290916,93.33155442625933,0.0
1407,-5.638359689349976,-0.25955245180705777,95.14392124029216,0.0
1408,-5.464093322027359,-0.0876789455297623,96.96249732494819,0.0
1409,-5.322105217848744,0.05428412161992391,98.77708839133172,0.0
1410,-5.211743930669929,0.16694243716527557,100.57621791513881,0.0
1411,-5.129683674451473,0.2532326117688859,102.34710435802079,0.0
1412,-5.070414464264575,0.31796724960945943,104.07567040237097,0.0
1413,-5.027035286842103,0.3671244479130864,105.74659163380971,0.0
1414,-4.992251880093945,0.40698444306216364,107.34339202614778,0.0
1415,-4.959438014767466,0.44324103752252764,108.84859294490688,0.0
1416,-4.923592761039244,0.48022078425813364,110.24392105228083,0.0
1417,-4.882029859321835,0.5203274306172059,111.51057836278584,0.0
1418,-4.834675584936096,0.5637949681554251,112.62957471537817,0.0
1419,-4.783923103486969,0.608785115628343,113.58211913111658,0.0
1420,-4.7340778989705745,0.6518118134734122,114.35006206485814,0.0
1421,-4.690507988389732,0.6884248909098245,114.91637571430444,0.0
1422,-4.658662212267983,0.7140453857345742,115.26565472932558,0.0
1423,-4.643125617362093,0.7248219361277445,115.38461538461539,1.0
1424,-4.646844790187717,0.7183742850746734,115.37500847654671,0.0
1425,-4.670599846951173,0.6943063579584338,115.34644867293981,0.0
1426,-4.712755499505783,0.6544051622742116,115.29934079260283,0.0
1427,-4.769310514046383,0.6024885152195745,115.23410653564132,0.0
1428,-4.834272023076082,0.5439184046875324,115.15118317996327,0.0
1429,-4.900373597315388,0.4848504371474697,115.05102227278556,0.0
1430,-4.960103643029726,0.4313351923697461,114.9340883231368,0.0
1431,-5.006916167785624,0.3884161519436313,114.80085750107902,0.0
1432,-5.036398233455543,0.3593743911676942,114.65181634906955,0.0
1433,-5.0471207149284,0.3452490608148765,114.48746051055842,0.0
1434,-5.04093824228771,0.3447166762889948,114.30829348057182,0.0
1435,-5.0226307486330946,0.35434903125697725,114.11482538267151,0.0
1436,-4.998954475099889,0.3692015035002868,113.9075717763087,0.0
1437,-4.97733222290916,0.38362485185702067,113.68705249821129,0.0
1438,-4.964500719553259,0.3921567455158118,113.45379054106375,0.0
1439,-4.965416490582345,0.39034151170234244,113.208310972354,0.0
1440,-4.9826150676555025,0.37534824662389116,112.95113989588745,0.0
1441,-5.0160731862503285,0.34630209490843444,112.68280345809451,0.0
1442,-5.063499039232449,0.30430017441758217,112.40382690089825,0.0
1443,-5.1209075198100695,0.2521399066629255,112.11473366255765,0.0
1444,-5.183326949393402,0.1938326745717412,111.81604452756775,0.0
1445,-5.245510129220208,0.13400279585693714,111.508276826377,0.0
1446,-5.3025622980475635,0.07727830536864995,111.19194368538002,0.0
1447,-5.350435324912751,0.027767586892957594,110.86755332735999,0.0
1448,-5.386261144868265,-0.011310976117428068,110.53560842228956,0.0
1449,-5.408505172776513,-0.037814271423766505,110.19660548815527,0.0
1450,-5.41692151279707,-0.050679229035093545,109.85103434124507,0.0
1451,-5.412305843982573,-0.04978342724438092,109.49937759513523,0.0
1452,-5.396083271485223,-0.03571933359763968,109.14211020742935,0.0
1453,-5.369828350014605,-0.009547495426998745,108.77969907313869,0.0
1454,-5.3348596729909135,0.027413527558102335,108.41260266344948,0.0
1455,-5.2920450892892905,0.0737231344594998,108.04127070849897,0.0
1456,-5.241883129837939,0.12787123209887025,107.66614392267485,0.0
1457,-5.184816137433008,0.1882661136601595,107.28765377086656,0.0
1458,-5.1216313106208,0.2531967389121744,106.90622227402314,0.0
1459,-5.053766120809746,0.3208153257294792,106.52226185231908,0.0
1460,-4.983374675080303,0.3891777730797408,106.13617520418748,0.0
1461,-4.913112114854002,0.45635869722705813,105.74835521945325,0.0
1462,-4.845705582206299,0.5206313637352109,105.35918492478613,0.0
1463,-4.7834502903998,0.5806786947278972,104.96903745968977,0.0
1464,-4.7277727798909845,0.6357870027305963,104.57827608125204,0.0
1465,-4.678955738754182,0.6859733088868808,104.18725419590066,0.0
1466,-4.636059454633826,0.7320102404662692,103.79631541643346,0.0
1467,-4.597035574112952,0.7753360393457382,103.40579364262886,0.0
1468,-4.559011872099917,0.81786498811439,103.01601316378189,0.0
1469,-4.51871364338567,0.8617382946437923,102.62728878155954,0.0
1470,-4.472963755599802,0.9090703697205367,102.23992595162055,0.0
1471,-4.419174556572738,0.9617456696426652,101.85422094250157,0.0
1472,-4.355728670745279,1.0213052999669756,101.47046101033195,0.0
1473,-4.282156475776735,1.0889329192963593,101.08892458800113,0.0
1474,-4.199058486192568,1.1655128377109483,100.70988148746942,0.0
1475,-4.107785628789975,1.2516994799280856,100.33359311397768,0.0
1476,-4.009968884121249,1.3479176470017458,99.96031269098086,0.0
1477,-3.9070628374407126,1.4542165940865688,99.59028549469735,0.0
1478,-3.800106528733721,1.5699323054636665,99.22374909723617,0.0
1479,-3.6898816039266387,1.6931685979536704,98.86093361733096,0.0
1480,-3.577551815882777,1.8201776988235605,98.50206197777922,0.0
1481,-3.4657154870976403,1.94478681334271,98.14735016875132,0.0
1482,-3.359630788918458,2.0580580965613904,97.79700751620085,0.0
1483,-3.268230236282454,2.1483673071540252,97.45123695467235,0.0
1484,-3.2044771149636273,2.202032009766155,97.1102353038669,0.0
1485,-3.18468106813846,2.2045177142721157,96.7741935483871,1.0
1486,-3.226609212332844,2.142118803217433,96.43212730634579,0.0
1487,-3.3465774217752644,2.0038812502180545,96.07351441373783,0.0
1488,-3.5560877995847373,1.7834410988467155,95.69923438668997,0.0
1489,-3.858846357971257,1.4804259644506979,95.31016397214233,0.0
1490,-4.249014870598653,1.1011206868904384,94.90717479450151,0.0
1491,-4.7112736233284656,0.658225777264836,94.49113115930324,0.0
1492,-5.222773110394115,0.16971072610427507,94.06288801673773,0.0
1493,-5.756509378735585,-0.34305790902443545,93.62328908641764,0.0
1494,-6.28526968420436,-0.8575948881758997,93.17316514340638,0.0
1495,-6.785195527969221,-1.3525953853454418,92.71333246428384,0.0
1496,-7.238211932904907,-1.809886821191764,92.2445914309058,0.0
1497,-7.632975403751118,-2.21575846816382,91.76772528851812,0.0
1498,-7.964440518764055,-2.5615342802767307,91.28349905401392,0.0
1499,-8.232485182345469,-2.843405572560355,90.79265856937185,0.0
1500,-8.440171701482637,-3.0616676283498077,90.29592969467987,0.0
1501,-8.592142959440574,-3.219584593846259,89.79401763462732,0.0
1502,-8.693433439155466,-3.3221318753738043,89.28760639193578,0.0
1503,-8.748738122882006,-3.3748405914691126,88.7773583408835,0.0
1504,-8.762037264312218,-3.3829096508638434,88.26391391385718,0.0
1505,-8.736455051028246,-3.350676022079959,87.74789139372871,0.0
1506,-8.674286922521004,-3.281458967130873,87.22988680479465,0.0
1507,-8.577186305791512,-3.177730863141968,86.71047389502529,0.0
1508,-8.44651189235859,-3.0415220250659605,86.19020420244226,0.0
1509,-8.283806730324155,-2.874941967833188,85.66960719856674,0.0
1510,-8.09133801660895,-2.6806945732884726,85.14919050205168,0.0
1511,-7.8725908526524995,-2.4624778783121704,84.62944015582077,0.0
1512,-7.632589590856639,-2.2251876429500106,84.11082096127952,0.0
1513,-7.3779295356083905,-1.9748830451759047,83.5937768634312,0.0
1514,-7.116454283256905,-1.7185168031734506,83.07873138102113,0.0
1515,-6.856606335902595,-1.46347361601619,82.56608807613534,0.0
1516,-6.606578162049959,-1.2169928425133125,82.05623105799626,0.0
1517,-6.373452922103837,-0.9855681387548823,81.54952551601866,0.0
1518,-6.162522238458237,-0.7744157663251156,81.0463182775139,0.0
1519,-5.9769089842310095,-0.5870858259166325,80.54693838575349,0.0
1520,-5.817534433531129,-0.42526178497215517,80.05169769442416,0.0
1521,-5.683382365075774,-0.28876061783074547,79.5608914748203,0.0
1522,-5.571951402365282,-0.17571608277823736,79.07479903242621,0.0
1523,-5.479765545527856,-0.0829066401039048,78.5936843298385,0.0
1524,-5.402834939089428,-0.006179540952520157,78.11779661326402,0.0
1525,-5.337012778848488,0.059077497646474963,77.64737104010395,0.0
1526,-5.278255080951719,0.11745958399706236,77.18262930539575,0.0
1527,-5.22283128502602,0.1730978327609466,76.72378026513348,0.0
1528,-5.167540581077261,0.22927170754836412,76.27102055472153,0.0
1529,-5.109963685801163,0.2881074366779217,75.8245352010384,0.0
1530,-5.0487368605630145,0.35038907595108704,75.38449822679469,0.0
1531,-4.983792344790163,0.41550732167880544,74.95107324606312,0.0
1532,-4.916483572847887,0.48156495678295463,74.52441405004019,0.0
1533,-4.84951642211379,0.5456443872568595,74.10466518226637,0.0
1534,-4.786642359137842,0.604222055879165,73.69196250268752,0.0
1535,-4.732125975546973,0.6536894417682686,73.28643374008455,0.0
1536,-4.690057821168871,0.6909160981342336,72.88819903253017,0.0
1537,-4.663623625416579,0.7137730905745335,72.49737145565355,0.0
1538,-4.654454783202748,0.7215310326422089,72.1140575386058,0.0
1539,-4.662178025868122,0.715059180148562,71.73835776772063,0.0
1540,-4.6842638187485734,0.6967807630181374,71.3703670779586,0.0
1541,-4.716243516193905,0.6703809287242112,71.01017533230866,0.0
1542,-4.752313837702861,0.6403097489947537,70.65786778939804,0.0
1543,-4.786264691394625,0.6111638183600155,70.31352555963284,0.0
1544,-4.812563704102165,0.5870560697082865,69.97722605025696,0.0
1545,-4.827346128604937,0.5710871495033516,69.64904339977512,0.0
1546,-4.829042238597622,0.565010676258214,69.32904890224106,0.0
1547,-4.818456351368931,0.5691429837221188,69.01731142196135,0.0
1548,-4.798276177158666,0.5825154476055698,68.71389779921209,0.0
1549,-4.772175836088947,0.6032175024527513,68.41887324760721,0.0
1550,-4.743802356101332,0.6288437336567948,68.13230174379989,0.0
1551,-4.715951212162034,0.6569472385454893,67.85424641023398,0.0
1552,-4.690140475747073,0.6854149764727169,67.5847698917014,0.0
1553,-4.666632889604597,0.7127129943867135,67.3239347264953,0.0
1554,-4.644800424559847,0.7379891412462711,67.07180371298497,0.0
1555,-4.623635042212088,0.7610559190253705,66.82844027247238,0.0
1556,-4.602204505851358,0.782297011535639,66.59390880922669,0.0
1557,-4.579914023867003,0.8025438938452959,66.36827506862875,0.0
1558,-4.556521473685977,0.8229561451735039,66.15160649439561,0.0
1559,-4.531931182420177,0.8449180047062544,65.94397258589471,0.0
1560,-4.505848874095727,0.8699438276821669,65.74544525660053,0.0
1561,-4.477424480328358,0.8995747931067405,65.55609919479073,0.0
1562,-4.445037120435891,0.9352528572610288,65.37601222762855,0.0
1563,-4.406364193867367,0.9781742456986495,65.2052656898318,0.0
1564,-4.358798750182991,1.0291468608884284,65.04394479818593,0.0
1565,-4.300141916103612,1.0884934396764532,64.89213903322342,0.0
1566,-4.229351491621727,1.156044799466676,64.74994252946131,0.0
1567,-4.147048678458917,1.2312490604111521,64.61745447566537,0.0
1568,-4.055527337134881,1.313384971439448,64.49477952669544,0.0
1569,-3.9581763853025933,1.4018206265556605,64.38202822857947,0.0
1570,-3.8584612607401514,1.4962194164945215,64.27931745856777,0.0
1571,-3.7588245910860953,1.5965805335366083,64.18677088203452,0.0
1572,-3.659966685744171,1.703023743300735,64.10451942821982,0.0
1573,-3.5608931814676317,1.8152884694327092,64.03270178694717,0.0
1574,-3.459872983791469,1.9320033320586194,63.97146492860698,0.0
1575,-3.3561120463342995,2.049871123159309,63.92096464987019,0.0
1576,-3.251647124657369,2.162978412227935,63.88136614778795,0.0
1577,-3.1528242879841106,2.2624554072548024,63.85284462514677,0.0
1578,-3.0708104382362995,2.3366692085494103,63.83558593018541,0.0
1579,-3.020858941163263,2.372037255722784,63.829787234042556,1.0
1580,-3.0204058360521397,2.3544180293195387,63.83020056065508,0.0
1581,-3.0863854702322797,2.2709032344923914,63.83143706701843,0.0
1582,-3.232333974338526,2.1117316575154588,63.83349159008648,0.0
1583,-3.465867862048806,1.871994783433004,63.83635902863578,0.0
1584,-3.787010495122097,1.552820461834099,63.840034341951956,0.0
1585,-4.187647066275128,1.161800685517288,63.844512548535775,0.0
1586,-4.65217510597936,0.7125565647562249,63.84978872482819,0.0
1587,-5.159221340601106,0.22348223789572053,63.855858003954125,0.0
1588,-5.684137687841799,-0.2841492688152847,63.862715574484305,0.0
1589,-6.20188021053607,-0.7884278721056286,63.87035667921468,0.0
1590,-6.689824022441508,-1.2690513310899667,63.87877661396315,0.0
1591,-7.130082633556612,-1.7092360248738534,63.887970726382875,0.0
1592,-7.510985621338412,-2.0970224935563233,63.897934414791976,0.0
1593,-7.827517740559985,-2.4258156372580166,63.90866312701903,0.0
1594,-8.08071402848867,-2.694133918859164,63.92015235926397,0.0
1595,-8.27619919846698,-2.9046747709191663,63.932397654974096,0.0
1596,-8.422206846961565,-3.062910892132431,63.945394603734606,0.0
1597,-8.527479490488183,-3.175496157427679,63.95913884017342,0.0
1598,-8.599430447647682,-3.248771236148825,63.973626042879836,0.0
1599,-8.642865321387402,-3.28761862382681,63.98885193333658,0.0
1600,-8.659439854391236,-3.294834937936429,64.00481227486513,0.0
1601,-8.647888489942442,-3.2710822125824817,64.02150287158359,0.0
1602,-8.604911239348944,-3.2153700829954808,64.03891956737712,0.0
1603,-8.526486007521289,-3.1259270791472056,64.05705824488032,0.0
1604,-8.409312901473387,-3.001257446643856,64.07591482447148,0.0
1605,-8.252106692232905,-2.8411589327594315,64.09548526327806,0.0
1606,-8.056511940125443,-2.6474979067298134,64.11576555419337,0.0
1607,-7.827491105325971,-2.424594641387944,64.13675172490406,0.0
1608,-7.573116876394228,-2.179151335706207,64.15843983692795,0.0
1609,-7.303793579570523,-1.9197428780609873,64.18082598466222,0.0
1610,-7.031040655988244,-1.65596926737844,64.20390629444132,0.0
1611,-6.766069711680477,-1.397425168956692,64.22767692360458,0.0
1612,-6.518435927252814,-1.1526672004817016,64.25213405957318,0.0
1613,-6.2950192849284035,-0.928350492535299,64.27727391893612,0.0
1614,-6.099499204925663,-0.7286667669918545,64.30309274654499,0.0
1615,-5.932362976845017,-0.5551560549219239,64.32958681461739,0.0
1616,-5.791374880997923,-0.40689586054779636,64.35675242184846,0.0
1617,-5.672358117521881,-0.28100805374209104,64.38458589253065,0.0
1618,-5.570115807932001,-0.17337578215925464,64.41308357568118,0.0
1619,-5.479333591136619,-0.07943699969413254,64.44224184417709,0.0
1620,-5.395346902926845,0.005080005981069946,64.47205709389765,0.0
1621,-5.314700406552954,0.08359243337363531,64.50252574287386,0.0
1622,-5.235460684231868,0.1583448876473016,64.53364423044492,0.0
1623,-5.157263503971433,0.23036338972428516,64.56540901642131,0.0
1624,-5.081092965950988,0.2996566304172683,64.5978165802544,0.0
1625,-5.008815910693462,0.3655949412091205,64.6308634202123,0.0
1626,-4.94253924160264,0.42736643266455343,64.66454605256172,0.0
1627,-4.8839128247821035,0.48439825187817154,64.69886101075596,0.0
1628,-4.833543124784348,0.5366419666579577,64.73380484462824,0.0
1629,-4.790684850409391,0.584654786153855,64.76937411959081,0.0
1630,-4.753323911513809,0.6294572030341602,64.80556541583925,0.0
1631,-4.718663122883348,0.6722030341957157,64.84237532756197,0.0
1632,-4.683903536491552,0.7137475170071542,64.8798004621546,0.0
1633,-4.647120025578874,0.7542309387606101,64.91783743943937,0.0
1634,-4.607992239260023,0.7928002325188765,64.95648289088888,0.0
1635,-4.568181391319418,0.8275658034904714,64.99573345885453,0.0
1636,-4.5312252580833166,0.8558393993431291,65.03558579579932,0.0
1637,-4.5019305906403115,0.8746317016929585,65.07603656353454,0.0
1638,-4.4853496629376055,0.881320789126259,65.11708243246082,0.0
1639,-4.485524409641725,0.8743513462622444,65.1587200808129,0.0
1640,-4.50426186471351,0.853803494686887,65.20094619390807,0.0
1641,-4.540251706619298,0.8216870737619668,65.24375746339838,0.0
1642,-4.588816641073742,0.7818708130628619,65.28715058652618,0.0
1643,-4.642466905597282,0.7396352266825549,65.33112226538309,0.0
1644,-4.692215979152402,0.7009246458615354,65.3756692061721,0.0
1645,-4.72936714760264,0.671445720623405,65.42078811847286,0.0
1646,-4.7472990747432435,0.655797762187015,65.4664757145098,0.0
1647,-4.7427485020603175,0.656813732886198,65.5127287084233,0.0
1648,-4.716233288920433,0.6752408873516628,65.5595438155434,0.0
1649,-4.671527872332999,0.7098104849174259,65.60691775166632,0.0
1650,-4.614395709935764,0.7576582655332816,65.6548472323333,0.0
1651,-4.550994730122591,0.8149847162125075,65.70332897211217,0.0
1652,-4.486432389822905,0.8778042565933671,65.75235968388093,0.0
1653,-4.42384474683251,0.9426324426046744,65.80193607811373,0.0
1654,-4.364158574853431,1.006995188442567,65.85205486216906,0.0
1655,-4.3064581406291715,1.0696994133864077,65.90271273957977,0.0
1656,-4.248710840391736,1.1308619518228316,65.95390640934534,0.0
1657,-4.188558408562859,1.1917367485807788,66.00563256522567,0.0
1658,-4.123942403801184,1.254400145125524,66.05788789503708,0.0
1659,-4.053451429134716,1.3213505030697852,66.11066907994982,0.0
1660,-3.976396641400296,1.3950596801453874,66.16397279378712,0.0
1661,-3.8927098009410224,1.4774926724901778,66.21779570232617,0.0
1662,-3.8028079182004855,1.5696005722638284,66.2721344626003,0.0
1663,-3.707581101082031,1.6707987525683368,66.32698572220278,0.0
1664,-3.6086294329558872,1.778467250433486,66.38234611859198,0.0
1665,-3.5087923456488737,1.8875458876720457,66.43821227839791,0.0
1666,-3.4128863781405903,1.9903287082336039,66.49458081673,0.0
1667,-3.3284273233348927,2.0765746186067418,66.55144833648609,0.0
1668,-3.266014340287204,2.1340306715771655,66.60881142766277,0.0
1669,-3.2390498846098974,2.149406495381789,66.66666666666667,1.0
1670,-3.2625879529661,2.109749698260069,66.73150184618775,0.0
1671,-3.3513298842203016,2.004070891606848,66.8095923576236,0.0
1672,-3.517063731179968,1.824979177442065,66.90062535474671,0.0
1673,-3.7660815584197658,1.5700413021142796,67.00429918966836,0.0
1674,-4.097217647388319,1.2425897629374152,67.12032214292365,0.0
1675,-4.501071245900263,0.8517825508111839,67.2484112062817,0.0
1676,-4.96071506880288,0.411848282195418,67.38829091218184,0.0
1677,-5.453819795871749,-0.05939195235718486,67.53969220426258,0.0
1678,-5.955763598447788,-0.5424869100598206,67.70235134396475,0.0
1679,-6.443057421988543,-1.0184605946726808,67.87600884866397,0.0
1680,-6.896363119157609,-1.4706895539843003,68.06040845722508,0.0
1681,-7.302505563730871,-1.886231749453032,68.25529611927824,0.0
1682,-7.655125744485496,-2.2564078181593388,68.4604190048988,0.0
1683,-7.95392319422413,-2.5765991312215224,68.67552453173462,0.0
1684,-8.202739888119885,-2.8453948065138133,68.90035940696988,0.0
1685,-8.406997403038108,-3.063352457269103,69.13466868184724,0.0
1686,-8.571157096133359,-3.2317042815431174,69.37819481679455,0.0
1687,-8.696867920566623,-3.3513266863728695,69.63067675551974,0.0
1688,-8.782272546036113,-3.422203414183602,69.89184900675357,0.0
1689,-8.822606007432968,-3.4434729392174597,70.16144073263449,0.0
1690,-8.811851917194726,-3.413996736391036,70.43917484304782,0.0
1691,-8.74493970809978,-3.3332546001772716,70.72476709555336,0.0
1692,-8.619849107357151,-3.2022978468084853,71.01792520086398,0.0
1693,-8.439049555164372,-3.0244870945540505,71.31834793417553,0.0
1694,-8.20990859125676,-2.805805768606317,71.6257242529944,0.0
1695,-7.943990791918391,-2.55465373769367,71.9397324224684,0.0
1696,-7.6554569852462695,-2.28115659110615,72.26003914959635,0.0
1697,-7.358981983484756,-1.9961413795447616,72.58629872807585,0.0
1698,-7.067686743648738,-1.7100015434345643,72.91815219594517,0.0
1699,-6.791526818927572,-1.4316871505408288,73.25522650858633,0.0
1700,-6.536434569362817,-1.168011845220377,73.59713373007907,0.0
1701,-6.304329230004113,-0.9233798471531548,73.94347024633171,0.0
1702,-6.0939217532666,-0.6999296081443607,74.29381600386156,0.0
1703,-5.902070727940383,-0.4979933604234397,74.64773377855306,0.0
1704,-5.7253162731929645,-0.3167080697160599,75.00476847918465,0.0
1705,-5.5611685577549475,-0.15459786192291813,75.36444649098121,0.0
1706,-5.408791902770039,-0.009982247387484211,75.72627506491538,0.0
1707,-5.268907623319858,0.11886351800516426,76.08974175894151,0.0
1708,-5.142991946945264,0.233781751030684,76.45431393779857,0.0
1709,-5.032082930513228,0.3369472363563689,76.81943833845345,0.0
1710,-4.935642409751311,0.4310858699611414,77.18454070866835,0.0
1711,-4.850894637149569,0.5195581426337917,77.54902552655949,0.0
1712,-4.772894303710547,0.6062113859288469,77.91227580935626,0.0
1713,-4.695331076738048,0.694978098245566,78.27365301986593,0.0
1714,-4.611846861410597,0.7892799540041968,78.63249707938462,0.0
1715,-4.517500384046792,0.8913647694235849,78.98812649596299,0.0
1716,-4.4099931663211605,1.0017380491499912,79.33983861702083,0.0
1717,-4.290357371166792,1.1188426738643695,79.68691001529967,0.0
1718,-4.162955419459485,1.239092135604273,80.02859701703056,0.0
1719,-4.034803141410552,1.3572868950989696,80.3641363809684,0.0
1720,-3.914364085039782,1.467358682086551,80.6927461365857,0.0
1721,-3.810053724146042,1.563314093840532,81.01362658922382,0.0
1722,-3.7287353929804024,1.6402035543840956,81.32596149934994,0.0
1723,-3.6744866192595254,1.6949344991967261,81.628919442259,0.0
1724,-3.6478655679950194,1.7267796017823231,81.92165535358107,0.0
1725,-3.6458149594761204,1.737494187917673,82.20331226479962,0.0
1726,-3.6622176723604762,1.7310369693100032,82.47302323165115,0.0
1727,-3.68898904562601,1.7129665178013571,82.729913456762,0.0
1728,-3.7174841513001953,1.689644639446245,82.97310260618163,0.0
1729,-3.739935415346552,1.667403767327976,83.20170731760422,0.0
1730,-3.7506281751434902,1.6518233263253994,83.41484389603829,0.0
1731,-3.7465743740550344,1.6472138646843741,83.61163119050016,0.0
1732,-3.7275578710631865,1.6563406279209096,83.79119364299473,0.0
1733,-3.695585885869123,1.6803492262647701,83.95266449862474,0.0
1734,-3.6539545975020014,1.7188054355922684,84.0951891631681,0.0
1735,-3.6062682940244986,1.769744887880595,84.21792869191493,0.0
1736,-3.5557860310953835,1.8296528497838227,84.32006339099911,0.0
1737,-3.5053774746180273,1.893353400401594,84.40079650993471,0.0
1738,-3.4581617860226324,1.953863093940134,84.45935800162154,0.0
1739,-3.418634689623411,2.002331023022844,84.49500832376603,0.0
1740,-3.3938455345617036,2.0282192698501396,84.50704225352113,1.0
1741,-3.3940631738387164,2.0198574742500512,84.50397848130028,0.0
1742,-3.4324377924412035,1.9654301689551081,84.4948969221388,0.0
1743,-3.523437046343431,1.8543409158375859,84.47996403535575,0.0
1744,-3.6802400266960498,1.6787732818717778,84.45934852564524,0.0
1745,-3.911674302242237,1.4351722082348788,84.43322111499876,0.0
1746,-4.219524279644019,1.1253328173646535,84.40175431940139,0.0
1747,-4.597017465817454,0.7568246182635273,84.36512223073322,0.0
1748,-5.029001651345531,0.342593428437481,84.32350030427273,0.0
1749,-5.493857053428663,-0.10025413265964767,84.2770651521649,0.0
1750,-5.96670352860857,-0.5523077122831588,84.22599434318296,0.0
1751,-6.423124572901811,-0.9940392875879651,84.17046620907898,0.0
1752,-6.842538075889893,-1.4079369773967114,84.11065965778567,0.0
1753,-7.2105085665776825,-1.7802202649581802,84.04675399369953,0.0
1754,-7.519639905057604,-2.1018628673005058,83.97892874524413,0.0
1755,-7.769081489485154,-2.368795303238699,83.90736349988147,0.0
1756,-7.962994229958753,-2.5813231418275104,83.8322377467107,0.0
1757,-8.108473543213428,-2.7429428352980127,83.75373072676456,0.0
1758,-8.213412865900855,-2.8588364213028057,83.6720212910873,0.0
1759,-8.284676922999555,-2.9343635508294867,83.58728776665215,0.0
1760,-8.326820597936543,-2.9738427680235215,83.49970783015195,0.0
1761,-8.34148223710174,-2.9798344478082384,83.40945838967369,0.0
1762,-8.327494075981363,-2.953024346322785,83.3167154742467,0.0
1763,-8.281660528841137,-2.8926823533814785,83.22165413123314,0.0
1764,-8.200049332753352,-2.7975586442772613,83.12444833151211,0.0
1765,-8.079542523425943,-2.666998341991838,83.02527088239127,0.0
1766,-7.919334790386394,-2.5020191222020416,82.92429334816356,0.0
1767,-7.722064209501819,-2.306109004733636,82.82168597821375,0.0
1768,-7.4943179019311215,-2.085560246357769,82.717617642566,0.0
1769,-7.246368097341394,-1.8492480567303091,82.61225577475243,0.0
1770,-6.99114790655461,-1.6078719790309521,82.50576632187354,0.0
1771,-6.742638586678788,-1.3727824679487997,82.39831370171169,0.0
1772,-6.51396622544167,-1.1545956633533792,82.29006076675284,0.0
1773,-6.315560573594889,-0.961840547043674,82.18116877496499,0.0
1774,-6.153706768743348,-0.799877200321446,82.07179736717727,0.0
1775,-6.02974193704958,-0.6702744449036712,81.96210455090059,0.0
1776,-5.9400369254403795,-0.5707501220982056,81.8522466904277,0.0
1777,-5.876771744397641,-0.49567461257701056,81.7423785030495,0.0
1778,-5.82937028524924,-0.43703812074336146,81.63265306122449,0.0
1779,-5.786325742874999,-0.3857041446983446,81.5232218005385,0.0
1780,-5.737059388187433,-0.33273006884851253,81.41423453329351,0.0
1781,-5.673448912411202,-0.27053776417530334,81.30583946756767,0.0
1782,-5.590751327372815,-0.19376001449894487,81.19818323159062,0.0
1783,-5.487804449090472,-0.09966148181665324,81.09141090328394,0.0
1784,-5.366567187282035,0.011881091875736494,80.98566604482016,0.0
1785,-5.231197151266806,0.13877429073112202,80.8810907420604,0.0
1786,-5.086931991756926,0.2773549388327289,80.777825648736,0.0
1787,-4.93903601851202,0.42313687769295805,80.67601003524761,0.0
1788,-4.792013766668454,0.571511886305922,80.57578184196151,0.0
1789,-4.649200529281502,0.7182929647580895,80.47727773689189,0.0
1790,-4.5127374048873605,0.8600392680711533,80.38063317766593,0.0
1791,-4.383845092916318,0.9941569477754153,80.28598247767796,0.0
1792,-4.263247695545479,1.1188168156480387,80.19345887634844,0.0
1793,-4.151582980187869,1.2327595543291487,80.10319461341344,0.0
1794,-4.049672794476943,1.3350687609860183,80.01532100718123,0.0
1795,-3.958599455461426,1.424983109334985,79.92996853670331,0.0
1796,-3.8796083619469597,1.5017967877018024,79.8472669278185,0.0
1797,-3.8139027657403863,1.5648692266301985,79.76734524304113,0.0
1798,-3.762401082935068,1.613737680597012,79.69033197527614,0.0
1799,-3.7255017311262715,1.6483043433272713,79.61635514535676,0.0
1800,-3.702871498621177,1.669055850309133,79.54554240341423,0.0
1801,-3.6932646967050182,1.6772676425662183,79.47802113410172,0.0
1802,-3.6943975909620534,1.6751476864761103,79.41391856570984,0.0
1803,-3.7029289755387187,1.6658816702730246,79.3533618832251,0.0
1804,-3.7146046395904637,1.6535529786629974,79.29647834539847,0.0
1805,-3.724592193524198,1.6429235304123104,79.24339540590633,0.0
1806,-3.727972023788243,1.6390744630697753,79.19424083870385,0.0
1807,-3.720294108883423,1.646918066427409,79.14914286768635,0.0
1808,-3.6980954307906333,1.6706048725417657,79.10823030079351,0.0
1809,-3.6593106524849537,1.7128639265448589,79.07163266870903,0.0
1810,-3.603577704178571,1.7743315117331508,79.03948036832851,0.0
1811,-3.532498092398739,1.8529439820087157,79.01190481118813,0.0
1812,-3.4499217880036492,1.9434908504603736,78.98903857706873,0.0
1813,-3.362274508904999,2.0374382861879985,78.97101557301221,0.0
1814,-3.278846979104487,2.1231314995499413,78.95797119801081,0.0
1815,-3.211862330778855,2.186458142591773,78.95004251365499,0.0
1816,-3.1760815370568656,2.2119988288846484,78.94736842105263,1.0
1817,-3.1877405733312245,2.1846078611046367,78.95979560572248,0.0
1818,-3.262750018670138,2.09126950826461,78.99655077525189,0.0
1819,-3.414301888258406,1.922983561069894,79.0568758507525,0.0
1820,-3.6502613675667366,1.676373642282384,79.14005103042928,0.0
1821,-3.970900172035611,1.3547057429786387,79.24539039215263,0.0
1822,-4.367584973449028,0.968065825608977,79.37223776644379,0.0
1823,-4.8229214492853805,0.5325716665106972,79.51996284553718,0.0
1824,-5.312566114302006,0.06866541747885024,79.68795749807083,0.0
1825,-5.808508879087833,-0.40128494229597456,79.87563226239219,0.0
1826,-6.283214932501472,-0.8556964905723004,80.08241299452382,0.0
1827,-6.713737490512281,-1.2763340422396456,80.30773764957314,0.0
1828,-7.084881918722116,-1.6502746988599544,80.55105317784536,0.0
1829,-7.3907379505689415,-1.9709296103783642,80.81181251917735,0.0
1830,-7.634320048897744,-2.237957852379282,81.08947168109093,0.0
1831,-7.825520610506204,-2.4561229969248792,81.38348688830365,0.0
1832,-7.977941551575892,-2.633348252752341,81.69331179296678,0.0
1833,-8.10534297772432,-2.778377435688882,82.01839473674859,0.0
1834,-8.218432149961282,-2.8985157856740504,82.35817605757475,0.0
1835,-8.322567857102326,-2.9978949730310154,82.71208543549645,0.0
1836,-8.416739896267389,-3.0765890315084157,83.0795392738021,0.0
1837,-8.493944398951559,-3.1307282746051195,83.45993811313642,0.0
1838,-8.542837908181504,-3.153553690549338,83.85266407805823,0.0
1839,-8.550339143103992,-3.1371658191569907,84.25707835716621,0.0
1840,-8.504683467596175,-3.0745866281494654,84.67251871966424,0.0
1841,-8.398342921179104,-2.961696561668146,85.09829707302963,0.0
1842,-8.230218808931197,-2.798642179315173,85.53369706829753,0.0
1843,-8.006609890279245,-2.590425196835942,85.97797176138471,0.0
1844,-7.740673242730906,-2.346556966468909,86.43034134084607,0.0
1845,-7.450418026072103,-2.0798567691734173,86.88999093448437,0.0
1846,-7.155639836530306,-1.8046460670344338,87.35606850931133,0.0
1847,-6.874498384244162,-1.5347067049095062,87.82768288147412,0.0
1848,-6.620547723480751,-1.281404744476413,88.30390185490027,0.0
1849,-6.400896675027075,-1.052328181513495,88.78375050955512,0.0
1850,-6.215852827226876,-0.85066176446867,89.26620966232261,0.0
