,PPG_Raw,PPG_Clean,PPG_Rate,PPG_Peaks
0,-1.7130186196891861,0.045047908456247704,71.41222247653924,0.0
1,-1.7080307988162668,0.046627236167081754,71.41222247653924,0.0
2,-1.7001297055510678,0.05117638919704501,71.41222247653924,0.0
3,-1.686656218928134,0.06118883577318707,71.41222247653924,0.0
4,-1.6655267306073351,0.07834579356590979,71.41222247653924,0.0
5,-1.6355906977880592,0.10325122071702403,71.41222247653924,0.0
6,-1.5969577741092826,0.13532210459732552,71.41222247653924,0.0
7,-1.5511801764342492,0.1728571228393718,71.41222247653924,0.0
8,-1.5011775103772045,0.21328070934379195,71.41222247653924,0.0
9,-1.4508488546155334,0.2535297951662941,71.41222247653924,0.0
10,-1.4044123982746102,0.29052256714994307,71.41222247653924,0.0
11,-1.3656095642866752,0.3216293332447196,71.41222247653924,0.0
12,-1.336969517751736,0.3450610295515864,71.41222247653924,0.0
13,-1.3193271892592038,0.36010405886585617,71.41222247653924,0.0
14,-1.3117232506355252,0.3671595499608265,71.41222247653924,0.0
15,-1.3117098877040339,0.36758475323402173,71.41222247653924,0.0
16,-1.3159759908862476,0.3633749825448598,71.41222247653924,0.0
17,-1.3211232983944077,0.3567564620896434,71.41222247653924,0.0
18,-1.3243938176660326,0.3497759405662225,71.41222247653924,0.0
19,-1.3241745108365581,0.343968569227621,71.41222247653924,0.0
20,-1.3201766575975937,0.34016305574971195,71.41222247653924,0.0
21,-1.3132808671976597,0.338448812209419,71.41222247653924,0.0
22,-1.3051262573538436,0.33829269612307267,71.41222247653924,0.0
23,-1.2975799880669234,0.3387621080854126,71.41222247653924,0.0
24,-1.2922380260264241,0.33879346504444613,71.41222247653924,0.0
25,-1.2900798551378243,0.3374433007649439,71.41222247653924,0.0
26,-1.2913409421467812,0.334072017767002,71.41222247653924,0.0
27,-1.295597135081979,0.3284326978444737,71.41222247653924,0.0
28,-1.3019967301310498,0.3206626586373919,71.41222247653924,0.0
29,-1.3095455959922206,0.31119713558867945,71.41222247653924,0.0
30,-1.3173547889843469,0.30063799947011266,71.41222247653924,0.0
31,-1.3247923875452159,0.2896140371743356,71.41222247653924,0.0
32,-1.3315262356011868,0.2786640579117551,71.41222247653924,0.0
33,-1.3374834229611108,0.2681629283454024,71.41222247653924,0.0
34,-1.342771658471829,0.25829732423140433,71.41222247653924,0.0
35,-1.3476031485450617,0.24908585255650567,71.41222247653924,0.0
36,-1.3522402225690946,0.2404294762945646,71.41222247653924,0.0
37,-1.3569577564067157,0.23217382019205118,71.41222247653924,0.0
38,-1.362004491384129,0.2241649030647892,71.41222247653924,0.0
39,-1.3675521007695695,0.21628350451455436,71.41222247653924,0.0
40,-1.3736441121565413,0.20844983683285923,71.41222247653924,0.0
41,-1.3801779569559054,0.20059835595644696,71.41222247653924,0.0
42,-1.3869511978854332,0.19263100434401853,71.41222247653924,0.0
43,-1.3937746601779413,0.18436418708004337,71.41222247653924,0.0
44,-1.4006184651677531,0.17548847730968692,71.41222247653924,0.0
45,-1.4077335887910887,0.16555896246699656,71.41222247653924,0.0
46,-1.4156941209228961,0.1540278213907407,71.41222247653924,0.0
47,-1.4253325132696038,0.14032012427413654,71.41222247653924,0.0
48,-1.4375781980541473,0.12394131946712339,71.41222247653924,0.0
49,-1.4532417219407103,0.10459363213454395,71.41222247653924,0.0
50,-1.4728010730175147,0.08227189743607982,71.41222247653924,0.0
51,-1.4962440007192257,0.05730956573570342,71.41222247653924,0.0
52,-1.5230065707745486,0.030353575929508103,71.41222247653924,0.0
53,-1.5520303714567882,0.0022614552160602763,71.41222247653924,0.0
54,-1.5819407174444666,-0.026067428221840605,71.41222247653924,0.0
55,-1.611325037699957,-0.053896118809556554,71.41222247653924,0.0
56,-1.6390648995620385,-0.08084575127517765,71.41222247653924,0.0
57,-1.6646514081373605,-0.10703348716991773,71.41222247653924,0.0
58,-1.68840015873382,-0.13310955363278737,71.41222247653924,0.0
59,-1.7114872305784015,-0.16016739190177925,71.41222247653924,0.0
60,-1.73575733956781,-0.18952656799023354,71.41222247653924,0.0
61,-1.7633077327841484,-0.22241709577532998,71.41222247653924,0.0
62,-1.795916074758852,-0.25961959097906984,71.41222247653924,0.0
63,-1.8344385536258159,-0.3011317351225237,71.41222247653924,0.0
64,-1.878333829536943,-0.3459332510302897,71.41222247653924,0.0
65,-1.925453193440203,-0.39190760446062456,71.41222247653924,0.0
66,-1.9721758836614487,-0.43595142665242453,71.41222247653924,0.0
67,-2.0138774557052392,-0.47426801792544426,71.41222247653924,0.0
68,-2.045628322901376,-0.5028068831598713,71.41222247653924,0.0
69,-2.0629609756656606,-0.5177844513626613,71.41222247653924,0.0
70,-2.0625386171407443,-0.5162071193174911,71.41222247653924,0.0
71,-2.042604975032541,-0.49631832023144784,71.41222247653924,0.0
72,-2.0031728544528367,-0.45790480755003904,71.41222247653924,0.0
73,-1.9459828154464116,-0.4024196962190559,71.41222247653924,0.0
74,-1.8743026001459864,-0.3329061047895132,71.41222247653924,0.0
75,-1.7926322691484355,-0.2537311869822758,71.41222247653924,0.0
76,-1.7063445162721944,-0.17016302717422038,71.41222247653924,0.0
77,-1.621255032779749,-0.08784075218625693,71.41222247653924,0.0
78,-1.5431115046183541,-0.012200459752695313,71.41222247653924,0.0
79,-1.4770194951072975,0.052074602340372686,71.41222247653924,0.0
80,-1.4268727014247953,0.10151276360531172,71.41222247653924,0.0
81,-1.394893566340566,0.13416462579289715,71.41222247653924,0.0
82,-1.3813919275812159,0.14972701127983495,71.41222247653924,1.0
83,-1.3848077093778304,0.14946641706931724,71.93300510519619,0.0
84,-1.4020346212871133,0.13595656392411987,72.45689388002836,0.0
85,-1.4289539679600325,0.11267167623002097,72.98372002340555,0.0
86,-1.4610661345786924,0.0834979854819194,73.51330463934792,0.0
87,-1.4941022562974928,0.052236702353160774,74.04545840567883,0.0
88,-1.5245235346960129,0.02217035234658253,74.57998127032951,0.0
89,-1.5498542843195313,-0.00424877318801007,75.116662153176,0.0
90,-1.568830522050579,-0.025551810648113127,75.65527865489332,0.0
91,-1.58136955969645,-0.04123984737725659,76.19559677441721,0.0
92,-1.5883785888983843,-0.05162404684399944,76.73737063671204,0.0
93,-1.5914300632246634,-0.05756406038003784,77.28034223265095,0.0
94,-1.5923476084683323,-0.060165361108143,77.82424117292311,0.0
95,-1.5927696936625668,-0.060500505761081236,78.36878445799043,0.0
96,-1.5937800216483917,-0.05941078854016509,78.91367626622177,0.0
97,-1.595697594997005,-0.057424305736316905,79.45860776243538,0.0
98,-1.5980932050363732,-0.05479770506163999,80.00325692918007,0.0
99,-1.6000430127038636,-0.05165775386513674,80.54728842317843,0.0
100,-1.6005592156060509,-0.04819252115285505,81.09035345944335,0.0
101,-1.599076530879034,-0.044827285711699826,81.63208972565768,0.0
102,-1.595843858049707,-0.04232189377953194,82.17212132947668,0.0
103,-1.5920853113181497,-0.0417450449090101,82.71005878147032,0.0
104,-1.5898520379997354,-0.044313248233059016,83.24549901646807,0.0
105,-1.5915712302665797,-0.0511203568376388,83.77802545609836,0.0
106,-1.599388760862634,-0.06281780076589631,84.30720811532827,0.0
107,-1.61447216357706,-0.0793263391581601,84.83260375580274,0.0
108,-1.636470179030303,-0.09966076288255567,85.35375608875705,0.0
109,-1.6633014978802916,-0.1219279681883978,85.87019603022623,0.0
110,-1.6913693460648331,-0.14352047459287726,86.38144201120127,0.0
111,-1.7161861443278208,-0.16148103570121128,86.88700034528244,0.0
112,-1.733273382859159,-0.17297138645496396,87.38636565624924,0.0
113,-1.7391129278896078,-0.17575067825083193,87.87902136780988,0.0
114,-1.7318996810663145,-0.16856424552387378,88.36444025760036,0.0
115,-1.711896536354374,-0.15136246270278453,88.84208507728177,0.0
116,-1.6813083688920574,-0.12530753144822954,89.3114092403251,0.0
117,-1.643733612280359,-0.09257301086465582,89.77185757878249,0.0
118,-1.6033691318341,-0.055984655524573115,90.22286717001502,0.0
119,-1.564195806763227,-0.018581017743536904,90.6638682339851,0.0
120,-1.5293456655173772,0.0168179650217659,91.09428510132445,0.0
121,-1.5007658082483013,0.047957039575343544,91.51353725195621,0.0
122,-1.4791895661503365,0.07335566836104015,91.92104042358615,0.0
123,-1.464342009581057,0.09236557934793145,92.31620778888302,0.0
124,-1.455268734688837,0.10509227257801625,92.69845119964407,0.0
125,-1.4506835157456184,0.11222115171908519,93.06718249569427,0.0
126,-1.449263267658072,0.11480044717724508,93.42181487569637,0.0
127,-1.4498548122012707,0.11403137227205618,93.76176432646294,0.0
128,-1.4515830838242847,0.11110353216638331,94.08645110676017,0.0
129,-1.4538641174129545,0.10709491146126755,94.39530128098797,0.0
130,-1.4563360654585265,0.10293587667079677,94.68774829751244,0.0
131,-1.458733854853553,0.09942017869296128,94.9632346058248,0.0
132,-1.4607470563555744,0.09723630225920003,95.22121330611286,0.0
133,-1.4619093948438546,0.09699127990830603,95.46114982426035,0.0
134,-1.4615648886892,0.09920587839571549,95.68252360474966,0.0
135,-1.4589369384153223,0.10427264003726912,95.88482981343697,0.0
136,-1.4532959306253814,0.11238304276386037,96.06758104170689,0.0
137,-1.4441866229203095,0.12344294107718756,96.23030900310307,0.0
138,-1.4316502956081865,0.13700287383724125,96.37256621317965,0.0
139,-1.4163691184467826,0.15222962872126677,96.49392764303391,0.0
140,-1.3996766061043897,0.1679375525984316,96.59399233676766,0.0
141,-1.3834148194889988,0.1826845338836407,96.67238498299477,0.0
142,-1.3696640491530692,0.19492198340583441,96.72875743046416,0.0
143,-1.3604081699604043,0.20317469917366682,96.76279013791118,0.0
144,-1.357215736449642,0.2062187913506211,96.7741935483871,1.0
145,-1.3610088464618104,0.20322582181015889,96.76522152894859,0.0
146,-1.3719643896965898,0.19384881004710947,96.73853792076511,0.0
147,-1.389557063844229,0.1782386063841247,96.69450542040529,0.0
148,-1.4127214336912806,0.1569938483912615,96.63350438688386,0.0
149,-1.4400872007503651,0.13106050439951036,96.55593153567128,0.0
150,-1.4702292222226545,0.10160481247751171,96.46219862054342,0.0
151,-1.5018726720781181,0.06988472172552976,96.35273111002137,0.0
152,-1.534006499394327,0.037140101235517906,96.22796686488591,0.0
153,-1.5658858506864766,0.004513078627015214,96.08835482294693,0.0
154,-1.596940770934517,-0.026999976501941622,95.93435369690992,0.0
155,-1.626641470346485,-0.056570935696561006,95.7664306908176,0.0
156,-1.6543854703774814,-0.0835462086612754,95.5850602401555,0.0
157,-1.6794614873972276,-0.10744460317938934,95.3907227803063,0.0
158,-1.701112458891597,-0.12794950810649913,95.1839035476194,0.0
159,-1.7186779834445565,-0.14489258937561808,94.96509141693717,0.0
160,-1.7317599463979245,-0.1582231487001506,94.73477777899164,0.0
161,-1.740337405300846,-0.16795894414062373,94.49345546065828,0.0
162,-1.7447660507620228,-0.17412082854091346,94.24161769063224,0.0
163,-1.745634756183358,-0.17666297536374895,93.97975711267947,0.0
164,-1.7435083424802749,-0.17541894991511706,93.70836484821464,0.0
165,-1.7386427253481027,-0.17008723614516907,93.42792960957101,0.0
166,-1.7307909603028264,-0.16027506641537131,93.13893686495933,0.0
167,-1.719205665050986,-0.1456061947876821,92.84186805576212,0.0
168,-1.702881030402602,-0.1258794966065912,92.53719986648089,0.0
169,-1.680985418011125,-0.1012464643119257,92.22540354734632,0.0
170,-1.653350291366812,-0.07236318384728786,91.90694428931748,0.0
171,-1.6208413836887898,-0.04047123365227364,91.58228065093465,0.0
172,-1.5854649129029412,-0.0073738528099440495,91.25186403625355,0.0
173,-1.5501481675139328,0.024703780478735685,90.91613822287525,0.0
174,-1.518246236899497,0.05335421100691906,90.57553893889576,0.0
175,-1.4929194666014385,0.07628720188576651,90.23049348743312,0.0
176,-1.4765624873241845,0.09163439317086002,89.88142041724451,0.0
177,-1.47043402540336,0.09820309431244136,89.52872923782384,0.0
178,-1.4745558545416586,0.09563462784335451,89.17282017726778,0.0
179,-1.4878574108585285,0.08444296994177164,88.81408398111559,0.0
180,-1.508477490908681,0.0659328018086232,88.45290175030456,0.0
181,-1.53411547378317,0.042016770083571256,88.08964481633582,0.0
182,-1.5623470065554748,0.014965809018351178,87.72467465171488,0.0
183,-1.590862258267885,-0.012867611299366017,87.35834281371537,0.0
184,-1.6176258199557472,-0.039314609492267255,86.99099091951264,0.0
185,-1.6409818229388153,-0.06261083172625832,86.6229506507432,0.0
186,-1.6597324456142721,-0.08154939420937383,86.25454378556809,0.0
187,-1.6732063987227346,-0.09555167652586018,85.88608225634825,0.0
188,-1.6813130732304467,-0.10465165403989778,85.51786823108026,0.0
189,-1.684556651168754,-0.10939943257091414,85.1501942167881,0.0
190,-1.6839732586732217,-0.11069973640361103,84.78334318311968,0.0
191,-1.6809626743977868,-0.10961065907950598,84.41758870445672,0.0
192,-1.6770166644927125,-0.1071354546954682,84.05319511890995,0.0
193,-1.6733897396494868,-0.10404331301808724,83.6904177026396,0.0
194,-1.670796401115916,-0.10075185574415911,83.32950285801056,0.0
195,-1.669231652912579,-0.09729362161407351,82.97068831416519,0.0
196,-1.6679872753556615,-0.09337217753878327,82.61420333866997,0.0
197,-1.665879018260014,-0.08849397457683383,82.26026895896736,0.0
198,-1.6616286884086884,-0.08214443464005591,81.90909819243922,0.0
199,-1.6542874623101982,-0.07396590256843374,81.56089628396342,0.0
200,-1.6435668291884773,-0.06389442437264499,81.21586094991942,0.0
201,-1.6299714160360168,-0.05222245018081414,80.87418262767198,0.0
202,-1.6146942059835492,-0.03957299766852519,80.53604472963507,0.0
203,-1.5993139411713515,-0.02679257620892319,80.20162390108737,0.0
204,-1.5853963879685962,-0.014789370676846395,79.87109028098125,0.0
205,-1.5741235622859941,-0.004354846267313091,79.54460776505262,0.0
206,-1.5660531702638578,0.003991500782035737,79.22233427060486,0.0
207,-1.5610572794856143,0.010102591943435928,78.90442200240204,0.0
208,-1.5584277727121407,0.0142323786797941,78.59101771916787,0.0
209,-1.5570893620711117,0.016992253043484666,78.2822630002438,0.0
210,-1.5558427294788062,0.019249223287715504,77.97829451201649,0.0
211,-1.5535716708670024,0.021988801336292697,77.67924427377774,0.0
212,-1.5493786218842298,0.02616817635215358,77.38523992273137,0.0
213,-1.542646757882502,0.03258241748647947,77.09640497791024,0.0
214,-1.5330500255518424,0.04176025266209965,76.81285910281386,0.0
215,-1.520538859885912,0.05389877327678101,76.53471836662104,0.0
216,-1.505322044069082,0.06884005446379937,76.26209550387536,0.0
217,-1.4878523908719805,0.0860880434615811,75.99510017258142,0.0
218,-1.468812719763297,0.10486109957608108,75.73383921068951,0.0
219,-1.4490915619891878,0.12417361339140393,75.47841689098304,0.0
220,-1.4297351538590073,0.1429384224419996,75.22893517441952,0.0
221,-1.4118647692428667,0.16007983042276736,74.98549396200964,0.0
222,-1.3965588457857803,0.17464504242305376,74.74819134535328,0.0
223,-1.3847169603739686,0.18590039478808346,74.51712385598233,0.0
224,-1.3769394591222468,0.1933987863369568,74.29238671369218,0.0
225,-1.3734601238037976,0.19700696584174773,74.07407407407408,1.0
226,-1.3741529953856397,0.19688606233304604,73.85761219291082,0.0
227,-1.3786054662638259,0.1934255761224469,73.63848102388836,0.0
228,-1.3862260549590104,0.18713903700659545,73.41685269848803,0.0
229,-1.3963526911816095,0.1785374177049518,73.19289671415501,0.0
230,-1.4083463665976277,0.16800280200756185,72.96677985087949,0.0
231,-1.4216792644284157,0.15568839180270883,72.73866609645489,0.0
232,-1.4360344466364874,0.1414703818149074,72.50871658015933,0.0
233,-1.4514154356971305,0.12497140855682762,72.2770895145949,0.0
234,-1.4682280021425795,0.10566365728932674,72.0439401454104,0.0
235,-1.4872676326346106,0.08304298888916195,71.80942070862542,0.0
236,-1.5095494149759763,0.056846150587411076,71.57368039526786,0.0
237,-1.5359628312673128,0.027265697840039273,71.33686532303227,0.0
238,-1.5668108207852487,-0.004892728638743127,71.09911851466367,0.0
239,-1.601370185658028,-0.03816354036702051,70.86057988277014,0.0
240,-1.6376509878134236,-0.07051979681897491,70.62138622076614,0.0
241,-1.6725064966495107,-0.0996211318020554,70.38167119965091,0.0
242,-1.7021474753104162,-0.12317674644068177,70.14156537032663,0.0
243,-1.7229728306025,-0.13935417537047867,69.90119617116515,0.0
244,-1.7324963312082218,-0.1471434822668029,69.66068794053497,0.0
245,-1.7300832713910954,-0.1465875604881617,69.4201619340055,0.0
246,-1.7172453694348968,-0.1388145115327694,69.17973634595066,0.0
247,-1.697370435511506,-0.12585257908735525,68.9395263352794,0.0
248,-1.6749410609088524,-0.11026049274438433,68.69964405502847,0.0
249,-1.654460237347271,-0.09465194573311318,68.46019868555864,0.0
250,-1.639393741513079,-0.08121929702472994,68.22129647110366,0.0
251,-1.6314283320496554,-0.071360937384526,67.98304075942912,0.0
252,-1.6302373768515008,-0.06548943892533654,67.74553204436647,0.0
253,-1.6337818600171108,-0.06305166073765028,67.50886801099573,0.0
254,-1.639013949410725,-0.06274053305200736,67.27314358325935,0.0
255,-1.6427468042144455,-0.06283536991839128,67.03845097379819,0.0
256,-1.642436409479848,-0.061584080373155985,66.80487973580951,0.0
257,-1.6366827576642429,-0.057541151455822205,66.57251681673593,0.0
258,-1.6253656814644737,-0.049797278317073916,66.34144661360298,0.0
259,-1.609443248080717,-0.03807178828029435,66.1117510298321,0.0
260,-1.590524600450017,-0.022676467827251516,65.88350953336446,0.0
261,-1.570368736702187,-0.004388553100660525,65.65679921594003,0.0
262,-1.5504566127833375,0.01571551973877701,65.43169485338495,0.0
263,-1.5317459603148458,0.036417349157333884,65.20826896676876,0.0
264,-1.5146582046424362,0.056473700942519287,64.98659188430128,0.0
265,-1.4992764814513178,0.07468627381681817,64.76673180384769,0.0
266,-1.485666889524739,0.08993868375000162,64.54875485594789,0.0
267,-1.4741901797490484,0.10122773770931448,64.33272516723412,0.0
268,-1.4656671527470662,0.10771527115395957,64.11870492414903,0.0
269,-1.4613076362034867,0.10881348507050734,63.90675443687323,0.0
270,-1.462399898595019,0.10429595502267104,63.6969322033788,0.0
271,-1.4698539154089163,0.09440610113137649,63.489294973532466,0.0
272,-1.4837583238360617,0.07992279183945505,63.283897813178655,0.0
273,-1.503117839234076,0.06214420174990982,63.0807941681393,0.0
274,-1.5258817534985594,0.04276691956436454,62.880035928073774,0.0
275,-1.5492786964370695,0.023663667385320827,62.68167349014823,0.0
276,-1.5703762480442496,0.006592312428854077,62.48575582246967,0.0
277,-1.5867195107480028,-0.0071076563597623175,62.29233052724572,0.0
278,-1.5968855411410516,-0.016764694132245538,62.10144390363646,0.0
279,-1.6008168492535089,-0.022510892381218825,61.913141010270266,0.0
280,-1.599852917685194,-0.02526640734647248,61.727465727400116,0.0
281,-1.5964486503353217,-0.02656837538009,61.54446081868228,0.0
282,-1.5936398372764313,-0.02827556718369626,61.36416799256359,0.0
283,-1.5943755467381318,-0.03220891701873483,61.18662796326818,0.0
284,-1.6008722023882498,-0.039802983540269,61.01188051137893,0.0
285,-1.614142240229436,-0.05184055287050726,60.83996454401275,0.0
286,-1.6338079944090542,-0.06832271562287483,60.6709181545934,0.0
287,-1.6582378464743932,-0.08849491598084853,60.504778682228796,0.0
288,-1.68495741313853,-0.11101376203632367,60.34158277070396,0.0
289,-1.7112190729456564,-0.134208737447488,60.1813664271042,0.0
290,-1.7345787856915307,-0.1563747923273782,60.0241650800866,0.0
291,-1.7533377331285431,-0.17603010992447168,59.87001363782133,0.0
292,-1.7667516839928807,-0.1920877461369519,59.718946545627716,0.0
293,-1.7749776365708851,-0.20391577931267102,59.57099784333303,0.0
294,-1.7787968839128987,-0.21129075770324843,59.42620122238529,0.0
295,-1.7792097962866522,-0.21427552723258625,59.284590082754356,0.0
296,-1.7770278159141752,-0.2130683446233785,59.14619758965898,0.0
297,-1.7725846505323348,-0.2078720741994297,59.011056730159666,0.0
298,-1.7656503057033481,-0.19882073746537637,58.87920036966158,0.0
299,-1.7555668427649442,-0.18597988329778956,58.75066130837317,0.0
300,-1.7415527690736357,-0.16941363177264532,58.62547233777042,0.0
301,-1.723069215725062,-0.1492916283492705,58.50366629711913,0.0
302,-1.7001263530249149,-0.12599871243291264,58.38527613011045,0.0
303,-1.673437282273711,-0.10021101434903698,58.27033494166851,0.0
304,-1.6443835772073256,-0.07291317602440676,58.1588760549918,0.0
305,-1.6148157135736882,-0.045348400039361414,58.05093306889317,0.0
306,-1.5867516655797298,-0.01891068738765598,57.94653991550684,0.0
307,-1.562051535492375,0.004998101790830267,57.84573091843387,0.0
308,-1.5421408521073277,0.02511809218126651,57.74854085140131,0.0
309,-1.527837586517081,0.04046257170644465,57.65500499751421,0.0
310,-1.5193108645702345,0.05041413685374711,57.56515920918235,0.0
311,-1.5161641791622995,0.05478147132287923,57.479039968809225,0.0
312,-1.5175994765682415,0.05382298395617955,57.396684450333225,0.0
313,-1.5225942499090201,0.048249024790349065,57.31813058171689,0.0
314,-1.5300242225592833,0.03921308053858649,57.24341710848358,0.0
315,-1.5386915471580336,0.02829491260481351,57.172583658406204,0.0
316,-1.547261918481802,0.017468000007787074,57.10567080745812,0.0
317,-1.5541558146138315,0.009034221186633627,57.042720147141324,0.0
318,-1.557463735001895,0.005504803572638387,56.983774353312704,0.0
319,-1.5549557292693879,0.009411137515627235,56.92887725663605,0.0
320,-1.5442335428920777,0.023042590188916898,56.87807391479325,0.0
321,-1.5230366996924605,0.04812863758631486,56.8314106865954,0.0
322,-1.4896708527796652,0.08550471140753717,56.78893530814219,0.0
323,-1.443486469700654,0.13481905962312027,56.750696971185484,0.0
324,-1.3853064243757736,0.19434576930777905,56.71674640386177,0.0
325,-1.3176898033093947,0.2609628173489809,56.68713595396732,0.0
326,-1.2449322527945532,0.3303326020182327,56.66191967495917,0.0
327,-1.1727432111105602,0.397288590693971,56.64115341487599,0.0
328,-1.1076042005645077,0.4563917001091376,56.624894908383766,0.0
329,-1.055888911206983,0.5025823219416714,56.61320387216335,0.0
330,-1.0228963904452142,0.5318274444674926,56.606142103869566,0.0
331,-1.0119910564908619,0.5416542146309202,56.60377358490566,1.0
332,-1.024039465959992,0.5314748705088539,56.62095107506937,0.0
333,-1.0572783157212688,0.5026416777161642,56.6718097369706,0.0
334,-1.1076525939484638,0.45821794030461516,56.7554234083692,0.0
335,-1.1695531549137526,0.4025025247315607,56.87096969597263,0.0
336,-1.236791030016615,0.3403897658534055,57.01771971458342,0.0
337,-1.303597972487244,0.2766748453158637,57.19502881058303,0.0
338,-1.3654513830216135,0.2154212874216649,57.40232811454217,0.0
339,-1.4195810628184409,0.1594916097140835,57.63911678740303,0.0
340,-1.4651034279171171,0.11030866648735166,57.90495484088798,0.0
341,-1.5028163984633922,0.06787148716925495,58.19945642614974,0.0
342,-1.5347495345434992,0.031004408128950417,58.52228349567159,0.0
343,-1.5635872987459807,-0.002219773243528844,58.87313975245438,0.0
344,-1.592073638086294,-0.03396713121857707,59.25176480791562,0.0
345,-1.6224799498278335,-0.06613444208269662,59.65792847595406,0.0
346,-1.6561932639634274,-0.09993327485272044,60.09142513553176,0.0
347,-1.6934654597777865,-0.13563437524518066,60.552068098101415,0.0
348,-1.7333538399830906,-0.17251095993125162,61.03968391943674,0.0
349,-1.7738682492771038,-0.20898510096032968,61.554106598073815,0.0
350,-1.8123133234576903,-0.24294695659222848,62.09517160479514,0.0
351,-1.8457792667040374,-0.2721871729024145,62.66270968953456,0.0
352,-1.8717015380839441,-0.2948627904987187,63.256540413900815,0.0
353,-1.888390254176657,-0.3099098024854926,63.876465359364026,0.0
354,-1.895429739523084,-0.31732280721318296,64.5222609631853,0.0
355,-1.8938670654502936,-0.31824352343014517,65.19367093657091,0.0
356,-1.8861417475593405,-0.31483249184917145,65.89039822248823,0.0
357,-1.8757516884724867,-0.3099371346652616,66.61209645430074,0.0
358,-1.866696332556957,-0.30660799777185044,67.35836088109188,0.0
359,-1.8627794642607836,-0.3075463993770855,68.12871873150368,0.0
360,-1.866884951735942,-0.31458443668968245,68.9226189953899,0.0
361,-1.8803552448891836,-0.32829787146729744,69.73942161186596,0.0
362,-1.9026015227417037,-0.3478323935638657,70.57838606374636,0.0
363,-1.9310510467245736,-0.37098648732746153,71.43865939221318,0.0
364,-1.9614858066929897,-0.3945457591409599,72.31926366219254,0.0
365,-1.988747348370301,-0.41481331586899145,73.21908292864619,0.0
366,-2.0076897129124336,-0.42823917428073305,74.13684977711486,0.0
367,-2.0141834740833406,-0.4320283628737648,75.0711315386299,0.0
368,-2.005940157625105,-0.42460861762999236,76.02031630972293,0.0
369,-1.9829566551084148,-0.405865383199764,76.98259894278631,0.0
370,-1.9474687793189243,-0.37709925970343094,77.95596721040086,0.0
371,-1.9034247438073402,-0.34071900164481983,78.93818838919651,0.0
372,-1.855606339469307,-0.29973873003371887,79.92679655384207,0.0
373,-1.8086065667601268,-0.25718847101169134,80.91908091908091,0.0
374,-1.7659001246511905,-0.21556320060220402,81.91207561618653,0.0
375,-1.7292146929928471,-0.17642369736749974,82.90255133825431,0.0
376,-1.698335152889735,-0.14022572655833326,83.88700933436594,0.0
377,-1.6713676422890202,-0.10640126958949381,84.8616782733736,0.0
378,-1.6453804611041232,-0.07365915257843614,85.82251453088192,0.0
379,-1.6172515969496501,-0.040425540515955136,86.76520647452132,0.0
380,-1.5845103738883417,-0.005317771154203177,87.68518332898982,0.0
381,-1.5459734469162536,0.032456700279191536,88.57762918950998,0.0
382,-1.5020372878692658,0.0728616343243387,89.4375027161535,0.0
383,-1.4545811005847458,0.11499807642382406,90.25956297796239,0.0
384,-1.4065297836307664,0.15727094500042307,91.03840182149379,0.0
385,-1.3612020004209673,0.19770707915655783,91.76848301079103,0.0
386,-1.3216079511677719,0.23434467822381305,92.44418822362876,0.0
387,-1.2898602538629462,0.26560307028670127,93.05986979277476,0.0
388,-1.2668238573900814,0.29055193852905725,93.6099098537545,0.0
389,-1.2520676662271255,0.3090267630500711,94.08878530754916,0.0
390,-1.2441060298329085,0.3215748619900155,94.49113773594803,0.0
391,-1.2408496766492436,0.32925491419014824,94.81184712984545,0.0
392,-1.2401406332160683,0.3333436439194967,95.04610802012394,0.0
393,-1.240236865650808,0.33502033769943523,95.18950635245145,0.0
394,-1.2401413939837123,0.3351005343307363,95.23809523809524,1.0
395,-1.2397252169119712,0.3338758188930757,95.22024668987036,0.0
396,-1.239651839027611,0.3310913836049286,95.1671394916753,0.0
397,-1.2411525540467607,0.326062775778168,95.07948793753278,0.0
398,-1.2457159105502964,0.3179041451592375,94.95807776714874,0.0
399,-1.2547468293760713,0.3058175338813506,94.80376087836123,0.0
400,-1.2692357067043845,0.28937998340374954,94.61744982318365,0.0
401,-1.289470717673665,0.268764382427511,94.40011214383692,0.0
402,-1.314833268549627,0.2448412398361969,94.15276460413992,0.0
403,-1.3437297343032986,0.21913042331399202,93.87646736986008,0.0
404,-1.3737153618487243,0.1936011081880244,93.57231818920236,0.0
405,-1.401841946840812,0.17034982297371318,93.24144662161902,0.0
406,-1.425204814086838,0.1512144388708993,92.88500835965075,0.0
407,-1.4415906344346792,0.13739991927496337,92.50417968465817,0.0
408,-1.4500655439348744,0.12919463682028612,92.10015209316782,0.0
409,-1.4513258807325986,0.12584203322463772,91.67412712623097,0.0
410,-1.4476803195106496,0.12560332379529987,91.22731142976849,0.0
411,-1.4426339930165675,0.12600883839794175,90.76091206943126,0.0
412,-1.4401673164577282,0.12425714117937643,90.27613211911935,0.0
413,-1.4438975521768038,0.11769131790362183,89.77416653804057,0.0
414,-1.4563423963147915,0.10426751874727785,89.25619834710744,0.0
415,-1.478461694799973,0.08293453031690676,88.72339511161819,0.0
416,-1.509555712890414,0.05386258813358484,88.17690573358082,0.0
417,-1.5474859306660254,0.018488857607708284,87.61785755374693,0.0
418,-1.5890995385516677,-0.020621520605119334,87.04735376044569,0.0
419,-1.6307105002997493,-0.06007283147616875,86.46647109965787,0.0
420,-1.668522842572432,-0.09604985097453836,85.87625787845091,0.0
421,-1.698954112872216,-0.1247880172065422,85.27773225190509,0.0
422,-1.718889706292354,-0.14304570449620932,84.67188078199186,0.0
423,-1.7259336457643661,-0.148524028138109,84.05965725550375,0.0
424,-1.7187003801758145,-0.14018525623881173,83.4419817470665,0.0
425,-1.6971277775992932,-0.11842967763670229,82.81973991246701,0.0
426,-1.6627208046050717,-0.08510374812459275,82.19378249698622,0.0
427,-1.6186005036217386,-0.04333047662289614,81.56492504310833,0.0
428,-1.5692589687442478,0.0028242759292535988,80.93394778186654,0.0
429,-1.5200035010365396,0.048811571982364896,80.30159569215398,0.0
430,-1.4761796756802406,0.09012616634638683,79.66857871255577,0.0
431,-1.4423483162715764,0.12282874431501792,79.03557209061849,0.0
432,-1.421617403069473,0.1439920759869971,78.40321685494933,0.0
433,-1.4152836900203745,0.15201253388066577,77.77212039610313,0.0
434,-1.4228386708852594,0.14675141803426628,77.14285714285715,0.0
435,-1.4422811954125876,0.12949779261804856,76.51596932117008,0.0
436,-1.470599940768129,0.10276961333471671,75.89196778385968,0.0
437,-1.5042713371814278,0.06998786750089818,75.27133289979717,0.0
438,-1.5396617484498631,0.03506732892663885,74.65451549219446,0.0
439,-1.5732998666475992,0.0019686622032027076,74.04193781634129,0.0
440,-1.602057935862336,-0.025746541128108848,73.43399456792423,0.0
441,-1.6233167070901302,-0.04531992238580424,72.83105391381987,0.0
442,-1.6351768001116347,-0.05512395029545736,72.2334585379948,0.0
443,-1.6367289016399176,-0.05487811011877829,71.6415266958592,0.0
444,-1.6283328513683577,-0.04572131995385856,71.05555327110491,0.0
445,-1.6118094835317696,-0.030115954557997683,70.47581082970953,0.0
446,-1.5904379618202538,-0.01157467983899893,69.90255066640432,0.0
447,-1.5686796226162967,0.005774625048077794,69.33600383948121,0.0
448,-1.5516095803025274,0.01774152698854108,68.77638219035583,0.0
449,-1.5441157809660098,0.020671213861998418,68.22387934480597,0.0
450,-1.5500040218790865,0.011997427635091968,67.67867169327025,0.0
451,-1.5712040262767446,-0.00934344796974474,67.14091934801971,0.0
452,-1.6072810047017179,-0.042714229758421346,66.61076707540802,0.0
453,-1.6554027166788308,-0.08583725757007894,66.08834520176241,0.0
454,-1.7107999249810395,-0.13510960393627997,65.57377049180329,0.0
455,-1.767622202631028,-0.18612187229889995,65.0671469987722,0.0
456,-1.819981132520806,-0.23429103426396708,64.56856688571153,0.0
457,-1.8629306604467553,-0.27549785271197924,64.07811121757423,0.0
458,-1.8931722239402926,-0.30662216189714153,63.595850724050536,0.0
459,-1.9093693009112878,-0.32589324082359716,63.12184653318417,0.0
460,-1.912071092148364,-0.33301133621359286,62.6561508760113,0.0
461,-1.903337596326822,-0.3290407381838272,62.19880776259839,0.0
462,-1.8862040216668792,-0.31611506743412093,61.749853629976585,0.0
463,-1.864118351410077,-0.2970240386294878,61.3093179625764,0.0
464,-1.8404467503155144,-0.27476381188206106,60.8772238858552,0.0
465,-1.818091648985318,-0.25212970007395863,60.45358873388601,0.0
466,-1.7992301920521494,-0.23141300765999773,60.03842459173871,0.0
467,-1.7851686780849636,-0.2142375299563649,59.63173881353615,0.0
468,-1.776317071496785,-0.20154092871729112,59.233534517108204,0.0
469,-1.772297869266793,-0.19367708802786807,58.843811056200444,0.0
470,-1.7721946365136243,-0.19059257724161707,58.46256447121693,0.0
471,-1.7749092226836882,-0.19201772783174928,58.08978791949576,0.0
472,-1.7795454986078059,-0.1976134881395985,57.7254720861264,0.0
473,-1.7856992449812534,-0.207029925132227,57.36960557632566,0.0
474,-1.7935362809143518,-0.2198588044776252,57.02217529039071,0.0
475,-1.8035953781535299,-0.23549565848071652,56.6831667822472,0.0
476,-1.8163459283192283,-0.2529581356735676,56.35256460260615,0.0
477,-1.8316292729994132,-0.27072840114831925,56.03035262773761,0.0
478,-1.848177029733824,-0.28669078671656567,55.716514374860715,0.0
479,-1.863400395985586,-0.2982187533720517,55.41103330514149,0.0
480,-1.8735757426412645,-0.3024301133463203,55.113893115279645,0.0
481,-1.8744345218941552,-0.2965844505012802,54.82507801865595,0.0
482,-1.862038125705916,-0.27855349269870233,54.54457301700176,0.0
483,-1.833722336092322,-0.24726601825536262,54.272364163543365,0.0
484,-1.788861372183173,-0.2030228610724087,54.0084388185654,0.0
485,-1.7292379573848888,-0.147598001316051,53.75278589832992,0.0
486,-1.6589018485546307,-0.08408481319183812,53.50539611828259,0.0
487,-1.5835277507267076,-0.016502231236513593,53.266262231473526,0.0
488,-1.5094101944145122,0.05076986776695455,53.035379263117605,0.0
489,-1.4423251387082139,0.11361719680227605,52.81274474222079,0.0
490,-1.38652233530252,0.16875616877325358,52.59835893120136,0.0
491,-1.3440798854444247,0.2141286341559625,52.392225054441084,0.0
492,-1.31476064967753,0.24905685660573496,52.19434952671083,0.0
493,-1.29638216036388,0.27414397733976265,52.00474218242777,0.0
494,-1.2855806445183675,0.29096115337208933,51.82341650671786,0.0
495,-1.2787514138855247,0.3016060262967712,51.65038986927818,0.0
496,-1.2729110346870312,0.30823812200707457,51.485683762058905,0.0
497,-1.2662637910896948,0.31269139481895475,51.32932404181475,0.0
498,-1.2583554294532908,0.3162356242335564,51.18134117861152,0.0
499,-1.2498278942694783,0.31951572204977735,51.041770511414626,0.0
500,-1.241904770136866,0.32265311339528546,50.91065251193396,0.0
501,-1.2357998641305412,0.32545755622349803,50.78803305795424,0.0
502,-1.2322350418166543,0.3276787862955668,50.67396371744198,0.0
503,-1.2311898244926858,0.3292276291372787,50.56850204479064,0.0
504,-1.2319148245873455,0.3303128438781124,50.47171189064463,0.0
505,-1.2331579029566921,0.3314663971631221,50.38366372683237,0.0
506,-1.2335011671163392,0.3334582728582811,50.304434988038736,0.0
507,-1.2316987621027877,0.3371255708497232,50.234110431958996,0.0
508,-1.226934210646763,0.34315549344512036,50.172782519802574,0.0
509,-1.218963965130343,0.35186694251385486,50.12055181915415,0.0
510,-1.2081584381055162,0.3630324171794973,50.07752743135669,0.0
511,-1.1954759139204356,0.3757734774600551,50.04382744575524,0.0
512,-1.1824033876326896,0.3885518786556151,50.01957942333447,0.0
513,-1.170878787492614,0.3992662774749198,50.004920912500694,0.0
514,-1.1631850220679214,0.4054517527128527,50.0,1.0
515,-1.1617911635914413,0.4045662453693587,50.00997086265283,0.0
516,-1.169117875875017,0.39433456752313356,50.039552309506064,0.0
517,-1.1872235929632668,0.3731079063204302,50.08828043118505,0.0
518,-1.2174383273652867,0.34018695580687536,50.15573211215158,0.0
519,-1.2600022074248771,0.2960529497094839,50.241521607161474,0.0
520,-1.3137854936093152,0.24245589210172888,50.34529738974667,0.0
521,-1.3761704316207324,0.18232495556770317,50.466739237427475,0.0
522,-1.4431620247391495,0.11949188381171011,50.60555552217511,0.0
523,-1.5097646598043561,0.05825103953341884,50.761480677908246,0.0
524,-1.5706136010706815,0.0028135562393667157,50.93427281960242,0.0
525,-1.6207868279685704,-0.04325972074076831,51.12371149098425,0.0
526,-1.6566554694147406,-0.0775487407831166,51.329595519832296,0.0
527,-1.6765837752279622,-0.09909688471738207,51.55174096166151,0.0
528,-1.681289358096331,-0.10850161490566121,51.78997911407088,0.0
529,-1.6737368566323758,-0.10775295080506389,52.04415458532021,0.0
530,-1.6585540451050351,-0.09985124924930336,52.314123401803805,0.0
531,-1.6410937334236977,-0.0882830845489373,52.599751140034,0.0
532,-1.6263700787477102,-0.0764648731339335,52.900911069560394,0.0
533,-1.6181355172073038,-0.06726955777506713,53.21748229395447,0.0
534,-1.6183218870251954,-0.06272956142406237,53.549347877604184,0.0
535,-1.6269638718857165,-0.06396396477250071,53.89639294660871,0.0
536,-1.642591514464927,-0.07132038820243213,54.25850275255805,0.0
537,-1.662960334724343,-0.08466691093531624,54.63556068844447,0.0
538,-1.6859102350049369,-0.10373095503066979,55.02744624639964,0.0
539,-1.7101198961536077,-0.12837092940479738,55.43403290740187,0.0
540,-1.7355513798710391,-0.15868638861482787,55.85518595357079,0.0
541,-1.7634523806009557,-0.1949194214299468,56.29076019417988,0.0
542,-1.7958885019709363,-0.23716265674408954,56.74059759709397,0.0
543,-1.8348979177800642,-0.2849516772605034,57.20452481799697,0.0
544,-1.8814732762220119,-0.3368648820075669,57.682350620540674,0.0
545,-1.9346530260359365,-0.39026842983588544,58.17386318144066,0.0
546,-1.9910174773782905,-0.44132145785076476,58.678827275596646,0.0
547,-2.044813526304745,-0.485300308914809,59.196981337549474,0.0
548,-2.0887786519001104,-0.5172223527292144,59.72803439703249,0.0
549,-2.11553454831002,-0.5326691977818713,60.271662888062906,0.0
550,-2.119235315436348,-0.5286467394490142,60.82750733297662,0.0
551,-2.0970503644838265,-0.504293033217305,61.395168905071586,0.0
552,-2.050079566313434,-0.46126329864266563,61.97420587611711,0.0
553,-1.983436344416633,-0.4036819661630555,62.56412995794224,0.0
554,-1.9054503371278473,-0.3376410780468479,63.1644025506592,0.0
555,-1.826168177734229,-0.2703214799063357,63.77443091383362,0.0
556,-1.7555028504424341,-0.20889500185340631,64.39356428109926,0.0
557,-1.701454112966976,-0.15941313640154275,65.02108994334223,0.0
558,-1.6687820017165158,-0.1258902395807954,65.65622933065166,0.0
559,-1.6583827794981498,-0.10974766771821537,66.29813412873966,0.0
560,-1.6674362993285625,-0.10971040289027065,66.94588247145077,0.0
561,-1.6902184345477584,-0.12215742561434977,67.59847525726715,0.0
562,-1.7193459224122314,-0.1418413484569619,68.25483264431132,0.0
563,-1.7471668508715454,-0.16282899485520702,68.91379078516442,0.0
564,-1.7670273681083084,-0.17948383335992335,69.5740988697451,0.0
565,-1.774214347005603,-0.18731667991423828,70.23441655138721,0.0
566,-1.76646581910451,-0.18356848540960796,70.89331183793749,0.0
567,-1.7440290179265356,-0.16744825976196914,71.54925953595878,0.0
568,-1.7093136691057194,-0.14001720447483143,72.2006403417197,0.0
569,-1.666233539079392,-0.10377372597453505,72.84574067729919,0.0
570,-1.6193594949472865,-0.06204214290868337,73.48275337351568,0.0
571,-1.5730293349481184,-0.01829330876521082,74.10977930316285,0.0
572,-1.5305711283399228,0.02447463473317281,74.72483006782711,0.0
573,-1.493785583158282,0.06419055755409905,75.32583183899872,0.0
574,-1.4627865467002994,0.09993551909641377,75.91063044888587,0.0
575,-1.436218099699751,0.13192347812245814,76.47699781793553,0.0
576,-1.4117730639492434,0.16126907007851593,77.02263979422962,0.0
577,-1.386864840241559,0.18960981251746223,77.54520546438518,0.0
578,-1.3592798566562654,0.21866875391241514,78.04229797615892,0.0
579,-1.3276666756283866,0.24984319705477648,78.51148688955796,0.0
580,-1.2917814777389915,0.28388825207451057,78.95032204594692,0.0
581,-1.25248004020112,0.32073658648631037,79.35634891363665,0.0
582,-1.2115026134021167,0.3594654414501043,79.72712533413934,0.0
583,-1.1711332703047483,0.3983959038686511,80.06023955628278,0.0
584,-1.1338299344894507,0.4352924399363668,80.35332940649909,0.0
585,-1.101914510941691,0.4676244121715823,80.60410240385559,0.0
586,-1.0773814409343543,0.49285401494331543,80.8103565889884,0.0
587,-1.0618310257626393,0.5087226819259025,80.97000179839867,0.0
588,-1.056478006879524,0.5135156791545165,81.08108108108108,1.0
589,-1.0621525616924792,0.5062884955355589,81.16570390373343,0.0
590,-1.0792207365345279,0.4870374885103583,81.24725823074405,0.0
591,-1.1074041016908882,0.45679279639499015,81.3258186022908,0.0
592,-1.1455499553724147,0.4176079607006049,81.40146092009427,0.0
593,-1.1914583977854738,0.372422940142229,81.474262390855,0.0
594,-1.2418839515650162,0.3247888452526415,81.54430147039413,0.0
595,-1.2927912595177933,0.2784643082817904,81.6116578085981,0.0
596,-1.3398716604565855,0.23692164237170465,81.67641219526304,0.0
597,-1.379245634895921,0.20282929795823285,81.73864650693189,0.0
598,-1.4082104077218067,0.17759750479446007,81.79844365481222,0.0
599,-1.4258609737738166,0.16107907344119457,81.85588753386018,0.0
600,-1.4334255647867469,0.15150279141441497,81.91106297311134,0.0
601,-1.434210497302642,0.1456828430147059,81.96405568733506,0.0
602,-1.4331298945615558,0.13949920828847606,82.01495223008656,0.0
603,-1.4358815832695884,0.1285900438954094,82.06383994822505,0.0
604,-1.4479024866882306,0.10914875666416951,82.11080693796454,0.0
605,-1.4732846481327568,0.07868676328084238,82.15594200251851,0.0
606,-1.5138530664486811,0.03661607331597519,82.19933461139718,0.0
607,-1.5685957871819272,-0.015472449968677054,82.24107486141214,0.0
608,-1.633590420170197,-0.0739109774097261,82.28125343943935,0.0
609,-1.702488484516814,-0.1334453298799597,82.31996158698877,0.0
610,-1.7675102161075984,-0.1880489402986376,82.35729106662531,0.0
611,-1.820790877921251,-0.2319286291075342,82.39333413028257,0.0
612,-1.8558334782478165,-0.26054624451544195,82.42818348950853,0.0
613,-1.8687849375710488,-0.2714678395413619,82.46193228767861,0.0
614,-1.859273720827849,-0.2648759590127526,82.49467407420973,0.0
615,-1.8306240063835524,-0.24363772335881845,82.5265027808061,0.0
616,-1.7893804646034217,-0.2129016353093891,82.55751269976541,0.0
617,-1.7442156575763694,-0.1792841431427492,82.58779846437139,0.0
618,-1.7044201621942712,-0.1497855951494353,82.61745503139795,0.0
619,-1.6782644019886548,-0.13062843354679501,82.6465776657468,0.0
620,-1.6715486093148448,-0.12622728729199195,82.67526192724046,0.0
621,-1.6866161339882577,-0.13847725443398012,82.70360365958994,0.0
622,-1.722007045947515,-0.16648740945785837,82.73169898155632,0.0
623,-1.7727999972416855,-0.20680291949907625,82.75964428032337,0.0
624,-1.8315612317967516,-0.25406743586328034,82.78753620709865,0.0
625,-1.889714675853996,-0.3019955247254641,82.8154716749596,0.0
626,-1.9390795438739337,-0.34446871992480144,82.8435478589605,0.0
627,-1.9732968280693042,-0.37654917538739896,82.87186219851678,0.0
628,-1.9888847856513707,-0.3952255687589847,82.90051240208271,0.0
629,-1.985725792972707,-0.3997626416386086,82.92959645413922,0.0
630,-1.9668885028334622,-0.391607106770568,82.95921262450906,0.0
631,-1.9378180885252583,-0.37389203536660465,82.98945948001747,0.0
632,-1.9050613784626456,-0.350660790101769,83.02043589851733,0.0
633,-1.87480271450312,-0.3259835520586656,83.05224108529923,0.0
634,-1.8515392967110194,-0.30315356083570855,83.08497459190886,0.0
635,-1.83720019876261,-0.2841236597637635,83.11873633739492,0.0
636,-1.8309095306125158,-0.2692830819688343,83.15362663201394,0.0
637,-1.8294339490974965,-0.257593992347844,83.18974620341977,0.0
638,-1.8281800201089957,-0.24702609081481347,83.22719622536893,0.0
639,-1.8224669076384068,-0.23516458285228353,83.26607834897484,0.0
640,-1.8087348242603556,-0.21983632673763398,83.30649473654827,0.0
641,-1.785378457348073,-0.19960696492098073,83.3485480980637,0.0
642,-1.753008708778085,-0.17404459819506213,83.39234173029553,0.0
643,-1.7141118065401217,-0.1437107482920599,83.43797955867218,0.0
644,-1.6722425592397976,-0.10990952393824872,83.4855661819,0.0
645,-1.6310080766174488,-0.07428320922932438,83.53520691941405,0.0
646,-1.5931361039622423,-0.0383733779744147,83.58700786171744,0.0
647,-1.55987304909538,-0.0032651663215050586,83.64107592367657,0.0
648,-1.5308441464322111,0.030598726958391997,83.69751890084514,0.0
649,-1.5043720174612358,0.06339825702683748,83.75644552889598,0.0
650,-1.4781302953417088,0.09573006063158632,83.81796554624653,0.0
651,-1.4499341080947088,0.12828123723584126,83.88218975997013,0.0
652,-1.4184515224873175,0.1614750448386136,83.94923011509381,0.0
653,-1.383658276919325,0.19518198959767363,84.0191997673899,0.0
654,-1.3469394488199626,0.228568126327081,84.09221315977831,0.0
655,-1.3108425960706578,0.26011519612157574,84.16838610246468,0.0
656,-1.2785766351494559,0.2878050164416777,84.24783585694946,0.0
657,-1.2534012247932866,0.3094238892995361,84.33068122405307,0.0
658,-1.23805081758785,0.32291972178286754,84.41704263611305,0.0
659,-1.2342971132536271,0.32673888532268036,84.50704225352113,1.0
660,-1.2427005835110911,0.3200808650519653,84.61623228585692,0.0
661,-1.2625609206960235,0.30303201241285027,84.75936817305355,0.0
662,-1.2920546650494513,0.2765685059272307,84.93542675448954,0.0
663,-1.3285341349777258,0.2424457007107174,85.14344252114233,0.0
664,-1.3689389852698506,0.20301019987711053,85.38249933519012,0.0
665,-1.4102376412252413,0.1609783083976243,85.65172261609804,0.0
666,-1.449788418668783,0.11921928324666167,85.95027191580945,0.0
667,-1.4855173260749677,0.08056665120395995,86.27733381489075,0.0
668,-1.515867793020731,0.04766141761895114,86.63211507958924,0.0
669,-1.539574035326038,0.022814304928760343,87.01383602698309,0.0
670,-1.5554020190495295,0.007866618548894127,87.42172405191457,0.0
671,-1.5620379793234387,0.004034326924601095,87.85500727536987,0.0
672,-1.558252723037278,0.011736301678065865,88.31290827954514,0.0
673,-1.5433424344389446,0.030429670338628877,88.79463790014846,0.0
674,-1.5176989823350113,0.05849438563469099,89.2993890516481,0.0
675,-1.4832683716348816,0.09321718547790606,89.82633056629405,0.0
676,-1.4436674463637866,0.13091731278622032,90.37460103291028,0.0
677,-1.403847176821071,0.16723325173997963,90.94330262676526,0.0
678,-1.3693623870926181,0.19755709790758627,91.53149492736145,0.0
679,-1.3454522798106474,0.2175698483791339,92.13818872680962,0.0
680,-1.3361888542645979,0.2238055612685624,92.76233983763734,0.0
681,-1.343895040993611,0.21416069551448635,93.40284291547336,0.0
682,-1.3689086795911467,0.18826840942252682,94.05852531909473,0.0
683,-1.409640446822263,0.14767384398679811,94.72814103784816,0.0
684,-1.462804964017429,0.09577125442591043,95.41036472447165,0.0
685,-1.523718898972819,0.037493259036522744,96.10378587983996,0.0
686,-1.5866356566362934,-0.021226294301834453,96.80690324510306,0.0
687,-1.6451686270643924,-0.07416302891656273,97.51811946602164,0.0
688,-1.6928868637502212,-0.11560412697390726,98.23573610393677,0.0
689,-1.724119720209578,-0.14113585005315377,98.95794907760903,0.0
690,-1.73489615500399,-0.14829790888870045,99.68284462996377,0.0
691,-1.7238235178072525,-0.13699082342670033,100.40839592336103,0.0
692,-1.6926438777394994,-0.10954887513998152,101.13246037611626,0.0
693,-1.6462360730755339,-0.0704393110040465,101.8527778613137,0.0
694,-1.5919589083899344,-0.025611859279071003,102.56696989612122,0.0
695,-1.5384133009812206,0.018410560473665294,103.27253995541324,0.0
696,-1.49387377897462,0.05555377299471766,103.96687504709152,0.0
697,-1.46474231830529,0.08115099770874182,104.64724868755891,0.0
698,-1.454377461234149,0.09266685261844175,105.31082541383523,0.0
699,-1.4625536459338386,0.09005516350673051,105.95466696327618,0.0
700,-1.485645905319159,0.07568651142275833,106.57574024224672,0.0
701,-1.5174645791986983,0.05386239248389108,107.1709271909274,0.0
702,-1.550529821232238,0.030010029439370232,107.73703663227451,0.0
703,-1.5775043820902672,0.009709241300499653,108.27081816869796,0.0
704,-1.5925008502076814,-0.002270789989722001,108.76897816007323,0.0
705,-1.592034009529732,-0.002755554449321497,109.22819778126026,0.0
706,-1.575479115898706,0.009359173956858445,109.64515311655677,0.0
707,-1.545000253600511,0.033007321175920604,110.01653720291137,0.0
708,-1.5050097274766459,0.06522443503196848,110.33908388397941,0.0
709,-1.4612940564504235,0.10172213702291158,110.60959328422388,0.0
710,-1.4199843731752928,0.1376468004383597,110.8249586575497,0.0
711,-1.3865557765006127,0.16837978896595462,110.98219430999586,0.0
712,-1.3650158458162371,0.1902393373772755,111.07846424263747,0.0
713,-1.357396875376207,0.20097152559181636,111.1111111111111,1.0
714,-1.3636102672520103,0.19996314568891507,111.10147375437512,0.0
715,-1.3816630741915634,0.18816328473085828,111.07286450829272,0.0
716,-1.4081806208633778,0.16775295508580865,111.02575149576127,0.0
717,-1.4391295231274457,0.14164379538253902,110.96062011144076,0.0
718,-1.4705993911755595,0.11291086385539376,110.87797146589674,0.0
719,-1.499489622857422,0.08426751590101177,110.77832083501065,0.0
720,-1.5239689891705495,0.057673011084054156,110.66219612191775,0.0
721,-1.5436300215928844,0.034130366272867446,110.53013633829632,0.0
722,-1.5593342257325948,0.013690442885744558,110.38269011137082,0.0
723,-1.5728154567380668,-0.004363013954801917,110.22041422250152,0.0
724,-1.5861560555146268,-0.021205571860659723,110.04387218272991,0.0
725,-1.601262909324765,-0.03811836921791305,109.85363285013256,0.0
726,-1.619451590502874,-0.05616701547650896,109.65026909331475,0.0
727,-1.6412086369406336,-0.07597754080791547,109.43435650485381,0.0
728,-1.6661587757383638,-0.09764773717435912,109.2064721679865,0.0
729,-1.693224649860327,-0.1208003303577225,108.9671934793276,0.0
730,-1.7209347074508,-0.14475342066416783,108.71709702991487,0.0
731,-1.7478109010888614,-0.16875963613885603,108.4567575463995,0.0
732,-1.7727533026755657,-0.19225285180474458,108.18674689374706,0.0
733,-1.7953373480214456,-0.21504211317764482,107.90763314038115,0.0
734,-1.8159545613477603,-0.23740584118872515,107.61997968629638,0.0
735,-1.8357588261632722,-0.2600622830470655,107.3243444542862,0.0
736,-1.8564217289285017,-0.28401948258229365,107.02127914408057,0.0
737,-1.8797426210495733,-0.31033395120062723,106.71132854886396,0.0
738,-1.907192039738307,-0.339826317626723,106.39502993335245,0.0
739,-1.9394840193124727,-0.37281068055628347,106.07291247234171,0.0
740,-1.9762703420038403,-0.408890755882269,105.74549674840496,0.0
741,-2.0160276952760747,-0.4468615098259903,105.41329430721146,0.0
742,-2.056169436242922,-0.48473354317619727,105.07680726875782,0.0
743,-2.0933631798118872,-0.5198743009586886,104.73652799265291,0.0
744,-2.123984454924014,-0.549240664466641,104.39293879546965,0.0
745,-2.144600064040547,-0.5696658005357242,104.04651171807603,0.0
746,-2.152367596781287,-0.5781610215478648,103.69770834077877,0.0
747,-2.1452682529576648,-0.5721996616559171,103.3469796440555,0.0
748,-2.122153387093634,-0.5499609456875534,102.9947659126139,0.0
749,-2.0826588672905006,-0.5105227138814828,102.64149668049893,0.0
750,-2.027092540864972,-0.45399851879212355,102.28759071496542,0.0
751,-1.9564006087042345,-0.38161517471330053,101.9334560368492,0.0
752,-1.8722625486827806,-0.29572255056850966,101.57948997519607,0.0
753,-1.7772751803147973,-0.19972212745721535,101.22607925394804,0.0
754,-1.6751083311671442,-0.0978994853358809,100.87360010853826,0.0
755,-1.5704886281481958,0.0048478145388697325,100.52241843030497,0.0
756,-1.4689110307044688,0.10338074039180006,100.17288993670532,0.0
757,-1.3760734771244156,0.1927611366214304,99.82536036538448,0.0
758,-1.2971371979539223,0.26871904682880526,99.48016569023844,0.0
759,-1.23598794353386,0.3280843579749247,99.13763235769503,0.0
760,-1.1946823899939356,0.3691197491741716,98.79807754152881,0.0
761,-1.1732089574518996,0.3917026278793132,98.46180941461935,0.0
762,-1.1695989906787934,0.39732531277367683,98.12912743615819,0.0
763,-1.1803301871544931,0.3889100641776519,97.80032265290792,0.0
764,-1.200901290513528,0.37046246296473945,97.4756780132151,0.0
765,-1.2264409367832052,0.3466078143309053,97.15546869257793,0.0
766,-1.2522414172306418,0.3220677668414294,96.83996242966833,0.0
767,-1.2741634037592173,0.30113796592882425,96.52941987180681,0.0
768,-1.288916559073586,0.2872240933253229,96.22409492898558,0.0
769,-1.2942598125480103,0.2824855387431692,95.92423513563301,0.0
770,-1.289168463240901,0.2876250059795641,95.63008201940633,0.0
771,-1.2739825730133494,0.30184901108247036,95.34187147639472,0.0
772,-1.2504985812742317,0.3230078209803487,95.0598341522067,0.0
773,-1.2219217250553682,0.34790323845086646,94.78419582850633,0.0
774,-1.1925893180322693,0.3727294980776382,94.5151778146527,0.0
775,-1.1674201229544732,0.3935895050080578,94.25299734418475,0.0
776,-1.1511357671345184,0.4070110917618981,93.99786797597982,0.0
777,-1.1474043170860726,0.4103821003163622,93.75,1.0
778,-1.1581271080867777,0.40223361838654836,93.50381802909615,0.0
779,-1.183087275704288,0.3823283871655296,93.25378157378822,0.0
780,-1.220089663573026,0.35155170929870083,93.00014843785799,0.0
781,-1.2655722183865927,0.3116456869137594,92.74317279132353,0.0
782,-1.3155127526548385,0.2648623896582737,92.48310501918075,0.0
783,-1.3663518196757076,0.21362690046621255,92.2201915854761,0.0
784,-1.4156433060024254,0.16029140825031823,91.95467491229118,0.0
785,-1.4622361346855142,0.10702828963767298,91.68679327319609,0.0
786,-1.50595363153759,0.05586254441214433,91.41678070070579,0.0
787,-1.5469144976492013,0.008796055405989073,91.144866907257,0.0
788,-1.5847653429012494,-0.03205735411321377,90.8712772192085,0.0
789,-1.6181212869346793,-0.06441541778219843,90.59623252335673,0.0
790,-1.6444302993139541,-0.08591855873322796,90.31994922545096,0.0
791,-1.6603258283009044,-0.09439388881918984,90.04263922018684,0.0
792,-1.6623738072035568,-0.0882618301952371,89.76450987215536,0.0
793,-1.6480105112273866,-0.06700339147222921,89.48576400722389,0.0
794,-1.6164313463670688,-0.0315726749978901,89.20659991382915,0.0
795,-1.5692172361050583,0.015366130342723314,88.92721135366517,0.0
796,-1.510547007637335,0.06947234266379385,88.64778758125782,0.0
797,-1.446917677299086,0.1250760586564716,88.36851337192364,0.0
798,-1.3863726672295618,0.1758150096745021,88.08956905762197,0.0
799,-1.3373253876429385,0.21546958983516346,87.81113057021948,0.0
800,-1.3071627167977626,0.23885297077503054,87.53336949169949,0.0
801,-1.3009010825392477,0.24259013270435487,87.2564531108613,0.0
802,-1.3202090467119467,0.22563205826930893,86.98054448606928,0.0
803,-1.3630658005790772,0.18939806643150725,86.70580251362661,0.0
804,-1.4241835133751126,0.1375107825052119,86.43238200136462,0.0
805,-1.4961169270245565,0.07516866455481025,86.16043374705478,0.0
806,-1.5707869361267708,0.008272011509746269,85.89010462126694,0.0
807,-1.6410319875823631,-0.057535970142066545,85.62153765431519,0.0
808,-1.7018151531950552,-0.11774046569047703,85.35487212694952,0.0
809,-1.7508455249688286,-0.16959021332914687,85.09024366446872,0.0
810,-1.7885634015169019,-0.21239918692824894,84.82778433394844,0.0
811,-1.8176142453830275,-0.24748230204853283,84.56762274429452,0.0
812,-1.8420363630944194,-0.27775656258688974,84.30988414885056,0.0
813,-1.8663903012448233,-0.3070902399828877,84.05469055030464,0.0
814,-1.8949859619474638,-0.3395144733530827,83.80216080765854,0.0
815,-1.9312661529736963,-0.37842289451958444,83.55241074503861,0.0
816,-1.9773335447955713,-0.4258782283550371,83.30555326214531,0.0
817,-2.0335900456007763,-0.4821246351659845,83.06169844615344,0.0
818,-2.0984897473027293,-0.5453749034607855,82.82095368489273,0.0
819,-2.1684597681889715,-0.6119054687643579,82.5834237811528,0.0
820,-2.2380786267323476,-0.6764520286610212,82.34921106797337,0.0
821,-2.300587891934609,-0.7328571833808187,82.11841552479413,0.0
822,-2.348740913972359,-0.7748834740564817,81.8911348943552,0.0
823,-2.3758837839952656,-0.7970763334456064,81.66746480025175,0.0
824,-2.3770638398066195,-0.7955480585400388,81.44749886506214,0.0
825,-2.3499184255362384,-0.768560588200033,81.23132882898126,0.0
826,-2.295135851256969,-0.7168126899522542,81.01904466890477,0.0
827,-2.216387863212414,-0.643382610663943,80.81073471792351,0.0
828,-2.119764613702089,-0.5533326133097684,80.60648578519903,0.0
829,-2.0128504196457535,-0.4530369185823277,80.40638327620472,0.0
830,-1.903632373730605,-0.3493391637898723,80.21051131332874,0.0
831,-1.7994331557083798,-0.2486716210929867,80.01895285684722,0.0
832,-1.7060226636736158,-0.15627192193676023,79.831789826288,0.0
833,-1.6270124059844282,-0.07561402419309277,79.64910322221645,0.0
834,-1.563586601576924,-0.008132547850665611,79.47097324848727,0.0
835,-1.514580349313243,0.046729927391784054,79.29747943501654,0.0
836,-1.4768787209096765,0.09117626078674407,79.12870076114044,0.0
837,-1.4460795840615284,0.12848093801040344,78.9647157796376,0.0
838,-1.4173337887328388,0.16229695561647478,78.8056027415041,0.0
839,-1.3862456682170232,0.19596842698625577,78.65143972158069,0.0
840,-1.3496876398123538,0.2319689450860829,78.50230474514353,0.0
841,-1.3063692530599507,0.27155876855978944,78.35827591558142,0.0
842,-1.2570238214422034,0.31470914134752215,78.21943154329368,0.0
843,-1.2041466222085162,0.3602876312938007,78.08585027595535,0.0
844,-1.1513268962867926,0.4064452131602667,77.95761123030802,0.0
845,-1.1023285199181114,0.45110554724232055,77.8347941256474,0.0
846,-1.0601515030862931,0.49243905363021545,77.7174794191918,0.0
847,-1.0263210486285128,0.5292137214651315,77.60574844352871,0.0
848,-1.000597219641429,0.5609493898748068,77.49968354635077,0.0
849,-0.9811898475809551,0.5878541739258512,77.3993682327071,0.0
850,-0.9654258903534223,0.6105776726927753,77.30488731001091,0.0
851,-0.9506836192997765,0.6298610161921792,77.2163270360602,0.0
852,-0.9353179595619469,0.6461866756742608,77.13377527034561,0.0
853,-0.9192884895728508,0.6595253847832612,77.05732162893659,0.0
854,-0.9042821389353864,0.6692456586598788,76.98705764325653,0.0
855,-0.8932805958726264,0.6742030415906557,76.92307692307692,1.0
856,-0.8897080681279472,0.6729759254957073,76.86246786335202,0.0
857,-0.896440454747519,0.6641774014502302,76.8022616915809,0.0
858,-0.9150043955592687,0.6467585243616225,76.74246788384512,0.0
859,-0.9452228880806178,0.6202301998536556,76.68309586208561,0.0
860,-0.985399174349849,0.5847627740254513,76.62415499531453,0.0
861,-1.0329350225123985,0.5411622074169907,76.56565460084538,0.0
862,-1.0851272864721102,0.49075550005692803,76.50760394554113,0.0
863,-1.1398346573163203,0.435235029318922,76.45001224708001,0.0
864,-1.195773849724549,0.3765078021735052,76.39288867523864,0.0
865,-1.2523648068541524,0.31657545378674934,76.33624235319273,0.0
866,-1.3092348222727044,0.25744435929626347,76.28008235883458,0.0
867,-1.3656350189025621,0.20104452973485099,76.22441772610773,0.0
868,-1.4200595381677792,0.1491301009044289,76.16925744635805,0.0
869,-1.470271425016696,0.1031456691705582,76.11461046970165,0.0
870,-1.5137653207772706,0.06406643499328563,76.06048570640912,0.0
871,-1.548509283844748,0.03224560048353911,76.00689202830615,0.0
872,-1.5736846963332147,0.007318057508691689,75.9538382701903,0.0
873,-1.590132663275506,-0.011793049894412905,75.90133323126389,0.0
874,-1.6003175860399936,-0.02674208890818741,75.84938567658293,0.0
875,-1.6077903730744696,-0.03950909603831604,75.79800433852203,0.0
876,-1.616309902225057,-0.05207677570793387,75.74719791825527,0.0
877,-1.6288999801593658,-0.06610796646797212,75.69697508725278,0.0
878,-1.6471409372628165,-0.08269996674840324,75.64734448879342,0.0
879,-1.670914394897068,-0.1022740434956941,75.59831473949312,0.0
880,-1.6986657546008694,-0.12462279334588841,75.5498944308492,0.0
881,-1.7280763522474256,-0.14909584626773933,75.50209213080055,0.0
882,-1.7569072576301827,-0.17486872023563146,75.45491638530362,0.0
883,-1.7837339732149355,-0.2012210186933988,75.40837571992463,0.0
884,-1.808346653645271,-0.227753293050796,75.36247864144771,0.0
885,-1.831718336293507,-0.25449430674781637,75.31723363949911,0.0
886,-1.8555943031683206,-0.2818837730681384,75.27264918818776,0.0
887,-1.881875583641329,-0.31064882869440785,75.22873374776222,0.0
888,-1.912020538964789,-0.3416156910926506,75.18549576628415,0.0
889,-1.9466586824645506,-0.3755056970726578,75.14294368131816,0.0
890,-1.985516375474844,-0.41275764642804585,75.10108592163895,0.0
891,-2.0276313364923184,-0.45340156948395577,75.05993090895507,0.0
892,-2.0717265304192565,-0.4969907087373837,75.01948705965007,0.0
893,-2.1165622554640398,-0.5425858604429334,74.97976278654109,0.0
894,-2.161107663531386,-0.5887828722118428,74.94076650065497,0.0
895,-2.2044624485325306,-0.6337788308127221,74.90250661302251,0.0
896,-2.245582043195649,-0.6754800879999986,74.86499153649075,0.0
897,-2.282964411042284,-0.7116590515812827,74.82822968755372,0.0
898,-2.3144948147185094,-0.74016159902594,74.79222948820208,0.0
899,-2.3375930710027966,-0.7591522861718475,74.75699936779186,0.0
900,-2.3496816252934516,-0.7673645174001172,74.72254776493259,0.0
901,-2.3488447635709497,-0.7643055071492639,74.68888312939524,0.0
902,-2.334446180524357,-0.7503598221408749,74.65601392404054,0.0
903,-2.307462888382286,-0.7267462476605572,74.6239486267676,0.0
904,-2.2703843150546708,-0.6953108181380858,74.59269573248386,0.0
905,-2.22667676176613,-0.6581780810265905,74.56226375509627,0.0
906,-2.179960778834943,-0.6173225104096858,74.53266122952454,0.0
907,-2.1331362816509953,-0.5741507206551792,74.50389671373672,0.0
908,-2.087694233263863,-0.5291934863106919,74.47597879080776,0.0
909,-2.0433877515821917,-0.4819905772622001,74.44891607100139,0.0
910,-1.998333568864749,-0.4312135088453191,74.42271719387617,0.0
911,-1.9495112975661204,-0.3750196098515085,74.3973908304158,0.0
912,-1.893545972906887,-0.31157697226405334,74.37294568518489,0.0
913,-1.8276094545609556,-0.23965618030796332,74.34939049851026,0.0
914,-1.750260190918211,-0.15916143236002078,74.32673404868875,0.0
915,-1.6620544270159985,-0.07147674044002889,74.304985154222,0.0
916,-1.5657981032882409,0.02046711815437363,74.28415267607906,0.0
917,-1.4663617227456407,0.11244728908863211,74.26424551998736,0.0
918,-1.3700487496331066,0.1995033406828962,74.24527263875294,0.0
919,-1.283590981086122,0.2767058720623769,74.22724303461067,0.0
920,-1.2129337307592079,0.3400032616311289,74.21016576160508,0.0
921,-1.1620481190259266,0.3869851588942815,74.19404992800284,0.0
922,-1.1320368592018992,0.4174074045789201,74.17890469873778,0.0
923,-1.120759553492382,0.43336100765726243,74.16473929788893,0.0
924,-1.1230929456639096,0.4390311732174317,74.15156301119292,0.0
925,-1.1317901060312132,0.44006905905860944,74.1393851885916,0.0
926,-1.1387593758566328,0.4426737328789675,74.12821524681551,0.0
927,-1.1364961339170299,0.4525397377028411,74.1180626720047,0.0
928,-1.1193911046526566,0.4738552420945509,74.10893702236748,0.0
929,-1.0846975296045671,0.5085311560859274,74.10084793087861,0.0
930,-1.0330302524626696,0.5558035781368803,74.09380510801748,0.0
931,-0.9683530187292214,0.6122872586364719,74.08781834454796,0.0
932,-0.8974653958544038,0.6724777296120653,74.08289751434081,0.0
933,-0.8290358242678846,0.7296183399946294,74.07905257723999,0.0
934,-0.7722694271731496,0.77678030775205,74.07629358197376,0.0
935,-0.7353699447835703,0.8079622852965959,74.0746306691125,0.0
936,-0.7240474397769384,0.8190103436013626,74.07407407407408,1.0
937,-0.7403953695501571,0.8081931381077985,74.07747772074734,0.0
938,-0.7824538759023946,0.7763357821189845,74.0875882002478,0.0
939,-0.844651230468687,0.72650662472926,74.10425743040297,0.0
940,-0.9190842253437809,0.6633440320357677,74.12734059442418,0.0
941,-0.9973323435293441,0.5921832935556431,74.15669588330991,0.0
942,-1.0723052373530857,0.5181783090392527,74.19218424768839,0.0
943,-1.1395892597157904,0.4455994670898136,74.23366915846493,0.0
944,-1.1979160182380035,0.3774317134935674,74.28101637568604,0.0
945,-1.248672695109692,0.3153114132398672,74.33409372507762,0.0
946,-1.2946971944876544,0.2597515136637889,74.39277088175567,0.0
947,-1.338826081458946,0.21053671566830723,74.45691916064672,0.0
948,-1.3827079146148293,0.16714182424383947,74.52641131319241,0.0
949,-1.4262537321567141,0.12904269604959492,74.60112132994692,0.0
950,-1.4678385018083016,0.09584206441740814,74.68092424870898,0.0
951,-1.505098857070274,0.06720339732899902,74.76569596786136,0.0
952,-1.5359902201400633,0.042652190227397,74.85531306462015,0.0
953,-1.559720664032596,0.02134623990400092,74.94965261792454,0.0
954,-1.577262402206415,0.0019237786851422356,75.04859203572518,0.0
955,-1.591304826559739,-0.01748871275236835,75.15200888645462,0.0
956,-1.6056909668120405,-0.039078335665601066,75.2597807344889,0.0
957,-1.6245182012921255,-0.06498556421272597,75.37178497943347,0.0
958,-1.6511543584332142,-0.09686021945099796,75.48789869908973,0.0
959,-1.6874175247423,-0.13543970544529244,75.6079984959818,0.0
960,-1.733105839990177,-0.18025542095222036,75.73196034734497,0.0
961,-1.7859661174807127,-0.22954680334888727,75.85965945849897,0.0
962,-1.8420839668166578,-0.28041776813397284,75.99097011955094,0.0
963,-1.8965877900621246,-0.3292189634822851,76.12576556539308,0.0
964,-1.944503289311794,-0.3720931244098774,76.2639178389812,0.0
965,-1.9815836301250136,-0.4055892020220786,76.40529765790012,0.0
966,-2.0049709607509962,-0.42723890574192463,76.54977428424225,0.0
967,-2.0136026980959674,-0.43599721403137026,76.697215397845,0.0
968,-2.008337517660259,-0.4324727918653028,76.8474869729524,0.0
969,-1.991820136530788,-0.41890923815645925,77.00045315838575,0.0
970,-1.968123649884229,-0.3989170714590577,77.1559761613268,0.0
971,-1.9422138663307795,-0.37699330043951546,77.31391613483629,0.0
972,-1.9192895979904947,-0.35789556472869744,77.47413106924914,0.0
973,-1.9040741853159076,-0.3459579592291434,77.63647668760626,0.0
974,-1.9001559925438796,-0.3444440506805249,77.8008063453007,0.0
975,-1.9094783719093131,-0.35502887676438594,77.96697093413462,0.0
976,-1.932050910512447,-0.3774866461989732,78.13481879100033,0.0
977,-1.9659039533154243,-0.4096360982120486,78.30419561141647,0.0
978,-2.007264501791766,-0.4475633440079593,78.47494436816733,0.0
979,-2.050917057214495,-0.4861053051081199,78.64690523530912,0.0
980,-2.090728179280308,-0.5195389539465405,78.8199155178236,0.0
981,-2.120333206552583,-0.5423866747751521,78.99380958721422,0.0
982,-2.1339743280646295,-0.5502214984450281,79.16841882335451,0.0
983,-2.127424791982557,-0.5403438068805405,79.34357156291239,0.0
984,-2.098850694121961,-0.5122090512154748,79.51909305468702,0.0
985,-2.049392869015556,-0.46751740189075475,79.69480542220596,0.0
986,-1.983245247423281,-0.40992976987649077,79.87052763394213,0.0
987,-1.9070898423680043,-0.3444429730950487,80.04607548151884,0.0
988,-1.8289114070082384,-0.2765268710433337,80.22126156627954,0.0
989,-1.756407649791389,-0.2111816583688298,80.39589529460557,0.0
990,-1.6953638129645263,-0.15209876696748512,80.56978288237019,0.0
991,-1.6484117274601253,-0.10109434905468365,80.74272736892034,0.0
992,-1.6145168741316382,-0.05793003064612341,80.91452864097894,0.0
993,-1.5893526031406053,-0.020552237861304196,81.08498346685968,0.0
994,-1.5664842766366112,0.014311647933945043,81.25388554138327,0.0
995,-1.539065862743181,0.05034147795931471,81.42102554187873,0.0
996,-1.5016071899458907,0.09078317863751717,81.58619119564543,0.0
997,-1.4513421068016628,0.13776341265464062,81.74916735924073,0.0
998,-1.3888312866041532,0.19189824380115605,81.90973610994504,0.0
999,-1.3176504666020612,0.25225433414129955,82.06767684973947,0.0
1000,-1.2432887547901519,0.316631139089927,82.22276642211148,0.0
1001,-1.1716247997238347,0.38205703517097833,82.37477924198194,0.0
1002,-1.1074720036304209,0.44535149966537646,82.52348743902033,0.0
1003,-1.0536370339941832,0.5036087525646941,82.66866101458554,0.0
1004,-1.0107348241768095,0.5545016230757905,82.81006801249691,0.0
1005,-0.9777274685304304,0.5963719861677176,82.94747470380335,0.0
1006,-0.9529111788901483,0.6281437007084535,83.0806457856786,0.0
1007,-0.9349519652637924,0.6491441790968944,83.20934459452653,0.0
1008,-0.9235990048725543,0.6589375918120314,83.33333333333334,1.0
1009,-0.9198553783659774,0.6572536217054672,83.45614707787767,0.0
1010,-0.9255895702973963,0.644049313844992,83.58141168039323,0.0
1011,-0.9427529392568468,0.6196844224405859,83.70902406204752,0.0
1012,-0.9724765000357236,0.5851414831945195,83.83888010337375,0.0
1013,-1.0143371538711385,0.5421958763163379,83.97087457849919,0.0
1014,-1.0660196801795527,0.4934459323183156,84.10490109150064,0.0
1015,-1.1234832302860203,0.4421469040310111,84.2408520149407,0.0
1016,-1.1816029989788421,0.39184544549233535,84.37861843064535,0.0
1017,-1.23513332437073,0.3458682458943678,84.51809007279087,0.0
1018,-1.2797578542099994,0.3067641748765718,84.65915527337474,0.0
1019,-1.3129751694720746,0.2758216608081934,84.80170091015187,0.0
1020,-1.334616562998281,0.25277629275113356,84.94561235712425,0.0
1021,-1.3468890181380913,0.23578935377558186,85.0907734376784,0.0
1022,-1.3539491878812686,0.22172412379959633,85.23706638047102,0.0
1023,-1.3611103318885946,0.20668541264673287,85.38437177816994,0.0
1024,-1.3738430185341572,0.18673210994632736,85.53256854916206,0.0
1025,-1.3967496457418627,0.15863405755890805,85.68153390234701,0.0
1026,-1.432683191187939,0.12053089441448402,85.83114330513902,0.0
1027,-1.4821538351088315,0.07236432269653073,85.98127045480548,0.0
1028,-1.543127673685341,0.01599396089799421,86.13178725327518,0.0
1029,-1.6112680988939496,-0.045036470424358765,86.2825637855528,0.0
1030,-1.680602539236502,-0.10605173661610792,86.43346830188128,0.0
1031,-1.7445223045981306,-0.1620256502965839,86.58436720379609,0.0
1032,-1.7969549456809915,-0.20845444864220242,86.73512503421927,0.0
1033,-1.8335023460082636,-0.24216777408758922,86.88560447174319,0.0
1034,-1.852326824872036,-0.2619307168805314,87.03566632925641,0.0
1035,-1.85459994285437,-0.2687267573558976,87.18516955706505,0.0
1036,-1.844404673361984,-0.2656689594070536,87.33397125066456,0.0
1037,-1.8280898147967863,-0.2575543415965398,87.48192666331649,0.0
1038,-1.8131922728884078,-0.2501405667047972,87.62888922358476,0.0
1039,-1.8071378982421833,-0.24927202695083595,87.7747105579849,0.0
1040,-1.815979110942588,-0.26000456745123934,87.91924051889737,0.0
1041,-1.8434154792828181,-0.2858706624829341,88.06232721789394,0.0
1042,-1.8902756576928978,-0.3283926343429824,88.20381706462243,0.0
1043,-1.9545322775155471,-0.386899230617492,88.34355481139038,0.0
1044,-2.031800660536424,-0.45864307347702077,88.48138360358358,0.0
1045,-2.116167298999719,-0.5391662930459777,88.61714503604857,0.0
1046,-2.201132886763035,-0.6228294546146165,88.75067921556122,0.0
1047,-2.2804539821347194,-0.7034097458697994,88.8818248294954,0.0
1048,-2.3487248358359176,-0.7746868847539612,89.01041922079642,0.0
1049,-2.4016360133115975,-0.8309621225163659,89.13629846935332,0.0
1050,-2.4359498174661374,-0.8674863835799732,89.25929747985312,0.0
1051,-2.449316415753416,-0.880797264061797,89.37925007618723,0.0
1052,-2.4400975546284487,-0.8689739244060734,89.49598910246708,0.0
1053,-2.4073521798211006,-0.8318123021744018,89.60934653069049,0.0
1054,-2.3510654864055027,-0.7709054814823795,89.71915357508551,0.0
1055,-2.272583115418871,-0.6895954586800241,89.82524081314038,0.0
1056,-2.1750822150452205,-0.5927545918091162,89.92743831331099,0.0
1057,-2.0638247672837466,-0.4863667279500836,90.02557576937765,0.0
1058,-1.945945742314122,-0.37691184597444694,90.11948264140284,0.0
1059,-1.829648478855095,-0.27060796120834174,90.20898830322055,0.0
1060,-1.7228838639469772,-0.17261626588350132,90.29392219636516,0.0
1061,-1.6318066431762612,-0.08635243268054263,90.37411399032494,0.0
1062,-1.5594428440663415,-0.01305299495247203,90.44939374898182,0.0
1063,-1.504999693633491,0.04828730026577102,90.51959210307263,0.0
1064,-1.4640901236509536,0.10056000291765338,90.5845404284835,0.0
1065,-1.429877289359753,0.1478119171164702,90.64407103016168,0.0
1066,-1.3948633335215992,0.1942694857402265,90.6980173314024,0.0
1067,-1.3528496758047188,0.24331306442265443,90.74621406824204,0.0
1068,-1.300549549676812,0.29661636266888797,90.78849748866114,0.0
1069,-1.2384470328566684,0.3536378150060393,90.82470555627255,0.0
1070,-1.1707229180379677,0.4115790423210612,90.85467815814403,0.0
1071,-1.104323847276227,0.46582797177018853,90.87825731637524,0.0
1072,-1.0474545149785828,0.5108035133794462,90.89528740302345,0.0
1073,-1.0078719592824767,0.5410374098865055,90.9056153579447,0.0
1074,-0.9913488601809012,0.5522835122832678,90.9090909090909,1.0
1075,-1.000578660975198,0.5424426020532397,90.90447251040318,0.0
1076,-1.0346651196963674,0.512129568730172,90.89073922356084,0.0
1077,-1.0892150607421902,0.46477897371724264,90.86807786106395,0.0
1078,-1.1569616276289418,0.40626987378476836,90.83668020701305,0.0
1079,-1.228791442928769,0.344135195726953,90.79674265107995,0.0
1080,-1.2950217918074332,0.28649067741257317,90.74846582409725,0.0
1081,-1.346757902409186,0.24086284572900205,90.69205423629393,0.0
1082,-1.3771486796334544,0.21310878342751832,90.62771591915572,0.0
1083,-1.3823585772708868,0.20660158717844745,90.5556620718351,0.0
1084,-1.3620976849136703,0.22180824794309734,90.47610671298172,0.0
1085,-1.319610456138855,0.2563192070455818,90.38926633880793,0.0
1086,-1.2611112078210427,0.3053122718391204,90.29535958814569,0.0
1087,-1.1947544107123986,0.3623608042941945,90.19460691519359,0.0
1088,-1.1293172189589973,0.42043970425860233,90.08723027059338,0.0
1089,-1.0728296540531963,0.4729527720121146,89.97345279141648,0.0
1090,-1.0313998150118904,0.5146071406749,89.853498500583,0.0
1091,-1.0084427715050113,0.5419944169572516,89.7275920161768,0.0
1092,-1.00443977716279,0.5537977168532018,89.59595827106403,0.0
1093,-1.0172474001346337,0.5506176058189397,89.4588222431667,0.0
1094,-1.0428681186951179,0.5344836878258138,89.31640869668766,0.0
1095,-1.07650746432829,0.5081775924501037,89.16894193453199,0.0
1096,-1.1136933602105967,0.4745253897224951,89.01664556211834,0.0
1097,-1.151226971001683,0.435816183083203,88.85974226272485,0.0
1098,-1.187769146905301,0.3934687039238845,88.69845358446874,0.0
1099,-1.2239357114385496,0.3480061462067273,88.53299973897386,0.0
1100,-1.2618700047195968,0.2993242348176833,88.36359941173848,0.0
1101,-1.304372120820591,0.24716524243070095,88.19046958417778,0.0
1102,-1.3537757809302626,0.1916582289159167,88.01382536727706,0.0
1103,-1.410851661804762,0.13376646866538855,87.83387984675922,0.0
1104,-1.4740497275189552,0.07550308432922151,87.65084393963748,0.0
1105,-1.5393462901435864,0.019832249502259924,87.46492626199624,0.0
1106,-1.6008267191896464,-0.029746571564651658,87.27633300781599,0.0
1107,-1.6519344718041158,-0.06984963393859583,87.08526783863522,0.0
1108,-1.6871040677567861,-0.0979471186479548,86.89193178381994,0.0
1109,-1.7033395577382517,-0.11301055912613084,86.69652315119387,0.0
1110,-1.7012648084052657,-0.1159073828179723,86.49923744776459,0.0
1111,-1.6852894787031145,-0.10943898789926632,86.3002673102674,0.0
1112,-1.662785347730151,-0.09800448100691025,86.09980244523695,0.0
1113,-1.6424777362013576,-0.08696141730846063,85.89802957830533,0.0
1114,-1.6325177452762794,-0.08182277885515096,85.69513241241908,0.0
1115,-1.638809981316346,-0.08745778618419753,85.49129159466041,0.0
1116,-1.6640753404949207,-0.10744719715858497,85.2866846913536,0.0
1117,-1.7078577283073026,-0.14368991550724133,85.08148617113585,0.0
1118,-1.7673415836205075,-0.19628643575707894,84.8758673956696,0.0
1119,-1.8385721839871734,-0.2636593478341001,84.66999661767471,0.0
1120,-1.9175736716051175,-0.34283104170509787,84.46403898596039,0.0
1121,-2.000972198307571,-0.4297724484803044,84.25815655713936,0.0
1122,-2.0859922140259473,-0.5197597720460534,84.05250831371195,0.0
1123,-2.169980164331064,-0.6077140780643758,83.84725018821183,0.0
1124,-2.249798758054675,-0.6885327252699726,83.64253509311247,0.0
1125,-2.321460026679811,-0.7574367678919299,83.43851295619974,0.0
1126,-2.380239011441242,-0.8103484654074985,83.23533076112406,0.0
1127,-2.4213029743799748,-0.8442826547104648,83.03313259285463,0.0
1128,-2.4406890833248536,-0.857698403282583,82.83205968776657,0.0
1129,-2.4363301467162626,-0.8507299501688407,82.6322504881022,0.0
1130,-2.408792831733589,-0.8252125558594101,82.43384070055772,0.0
1131,-2.3614581990345758,-0.7844457728968379,82.23696335875701,0.0
1132,-2.3000228816632564,-0.7326898654957166,82.0417488893853,0.0
1133,-2.23139373335575,-0.674457476586988,81.84832518176698,0.0
1134,-2.1622331162197157,-0.613723651311036,81.65681766068262,0.0
1135,-2.097524576802227,-0.5532146339310557,81.46734936223288,0.0
1136,-2.0395288136307244,-0.4939367211369157,81.28004101256799,0.0
1137,-1.9873901134067335,-0.43506748324872746,81.09501110931373,0.0
1138,-1.9374788515199126,-0.37425983093993975,80.91237600553714,0.0
1139,-1.8843783733055162,-0.30832024044037865,80.73224999610679,0.0
1140,-1.8222924107600937,-0.23413610733774753,80.5547454063148,0.0
1141,-1.7465798746078285,-0.14966360894213437,80.37997268263983,0.0
1142,-1.6551114270560503,-0.05476182274198815,80.20804048554257,0.0
1143,-1.549174194285748,0.048321589735621506,80.03905578419683,0.0
1144,-1.4337204456697545,0.15494530187918587,79.87312395307198,0.0
1145,-1.3168617001529568,0.25858788429680446,79.71034887029425,0.0
1146,-1.2086468783842659,0.3518107330676543,79.55083301772612,0.0
1147,-1.119314662540143,0.4275025894813234,79.39467758271532,0.0
1148,-1.0573441288645977,0.4801694536462069,79.24198256147704,0.0
1149,-1.0277047173944105,0.5070113334034436,79.09284686408411,0.0
1150,-1.0306956849849052,0.5085579539440748,78.94736842105263,1.0
1151,-1.0616590595957516,0.488715202523998,78.80215160417511,0.0
1152,-1.1116709008699541,0.4541878321902801,78.65384164854875,0.0
1153,-1.1691067593272613,0.41336889942580257,78.50259617840622,0.0
1154,-1.2217871783664687,0.37489636890084754,78.34857149262274,0.0
1155,-1.259278236581307,0.34614850815250325,78.19192246591977,0.0
1156,-1.2748770449817024,0.33196614627048165,78.03280245684287,0.0
1157,-1.2668644705587329,0.3338472160544881,77.87136322242415,0.0
1158,-1.238751911704462,0.349765738944612,77.70775483942643,0.0
1159,-1.1984605862317192,0.37464325766593953,77.5421256320535,0.0
1160,-1.1566063671937534,0.4013722855339868,77.37462210599968,0.0
1161,-1.1242655768680607,0.42218609289449366,77.20538888870131,0.0
1162,-1.1107149520694835,0.43010904146262047,77.03456867564444,0.0
1163,-1.1216377677721419,0.4202180163713783,76.86230218257481,0.0
1164,-1.15816366033046,0.3904964403840838,76.68872810344911,0.0
1165,-1.2168936691758374,0.34215366846374673,76.51398307396126,0.0
1166,-1.2908161232232895,0.27939162390721684,76.33820164047256,0.0
1167,-1.3708158685882381,0.20870233143470393,76.16151623417058,0.0
1168,-1.4473758289627865,0.1378535226804097,75.9840571502785,0.0
1169,-1.5120860280339081,0.07475270774677631,75.80595253213549,0.0
1170,-1.5586902043223179,0.026372148595765657,75.62732835996631,0.0
1171,-1.5835660098201438,-0.002122764784903558,75.44830844415858,0.0
1172,-1.5856971232662311,-0.007955671864072061,75.26901442286595,0.0
1173,-1.5663103059410342,0.008997748054748886,75.0895657637567,0.0
1174,-1.5283918762250137,0.046251973029315885,74.91007976972811,0.0
1175,-1.4762619644125279,0.09901990290151007,74.73067158840978,0.0
1176,-1.4152888431189083,0.16073926256587678,74.55145422528066,0.0
1177,-1.351706657472412,0.22376917316843528,74.37253856022892,0.0
1178,-1.2924054883086735,0.2802081205086018,74.19403336738532,0.0
1179,-1.2445347389926824,0.3227759359601229,74.01604533806697,0.0
1180,-1.2148174204228355,0.34568459191242584,73.83867910667026,0.0
1181,-1.20859692317779,0.34540089437946453,73.66203727935786,0.0
1182,-1.228780816986485,0.3211888818857027,73.48622046538877,0.0
1183,-1.2749487041365937,0.27532258465369625,73.3113273109454,0.0
1184,-1.3429104218917791,0.21288916137500233,73.13745453531746,0.0
1185,-1.4249286687730374,0.14115956516185443,72.96469696930696,0.0
1186,-1.510679902588372,0.06858109216265272,72.79314759572517,0.0
1187,-1.5888567055371694,0.003527722141275169,72.62289759185744,0.0
1188,-1.649149848461739,-0.04699009331910886,72.45403637377764,0.0
1189,-1.6842211799614941,-0.07842392623101274,72.28665164240036,0.0
1190,-1.6912223007168352,-0.0893792470463564,72.12082943116441,0.0
1191,-1.6724604119200095,-0.08175304253135894,71.95665415524736,0.0
1192,-1.6349761803468292,-0.06027585289790224,71.7942086622172,0.0
1193,-1.5890567069330286,-0.03154015794535468,71.63357428403252,0.0
1194,-1.5459948221671593,-0.0027087853400278444,71.47483089030958,0.0
1195,-1.5156331288434133,0.019830363404083354,71.31805694277988,0.0
1196,-1.504314517342679,0.03158269916305964,71.16332955086837,0.0
1197,-1.5137604571316365,0.030607158059264464,71.01072452832818,0.0
1198,-1.541137999313566,0.01758912139442137,70.86031645087387,0.0
1199,-1.580239101964088,-0.004671978024573378,70.71217871476097,0.0
1200,-1.6233940572414547,-0.03222919089323223,70.56638359626562,0.0
1201,-1.6635722904384913,-0.06117982985383939,70.42300231202401,0.0
1202,-1.6961330482499022,-0.08880820112809099,70.28210508019676,0.0
1203,-1.7198514338375677,-0.11441960915683855,70.14376118242977,0.0
1204,-1.737084592812065,-0.1396744895046311,70.00803902658814,0.0
1205,-1.753165071433421,-0.16833717943043802,69.87500621024584,0.0
1206,-1.7752440810686831,-0.2054741481162626,69.74472958491963,0.0
1207,-1.8108375081411283,-0.2562486053449625,69.61727532104068,0.0
1208,-1.8662851947092747,-0.32454293333478396,69.49270897366374,0.0
1209,-1.9452824252924197,-0.4116836130963907,69.3710955489189,0.0
1210,-2.0476366230756553,-0.5155378639184041,69.25249957121646,0.0
1211,-2.168451937009918,-0.6301962969562843,69.13698515122147,0.0
1212,-2.2980014045136508,-0.7463577537131991,69.02461605461974,0.0
1213,-2.4225287532834208,-0.8524049837620061,68.91545577170281,0.0
1214,-2.5260681606760076,-0.9360240369542493,68.80956758780536,0.0
1215,-2.59309075477149,-0.986102375712208,68.70701465463398,0.0
1216,-2.611475532847266,-0.994567193849327,68.60786006253207,0.0
1217,-2.5750972895452646,-0.9578163590292861,68.5121669137316,0.0
1218,-2.4853351229707767,-0.877457068773424,68.41999839664884,0.0
1219,-2.3510551723699225,-0.7601924138751152,68.33141786128641,0.0
1220,-2.1870315874428483,-0.6168584547722664,68.2464888958111,0.0
1221,-2.011194704340567,-0.4607789042990901,68.16527540438332,0.0
1222,-1.8413873000981429,-0.305734788030685,68.08784168631988,0.0
1223,-1.692380538672925,-0.16391468794390712,68.01425251667955,0.0
1224,-1.5737526376351143,-0.04420487602860301,67.9445732283677,0.0
1225,-1.4889450625332006,0.04889710925680171,67.87886979586311,0.0
1226,-1.435497422446688,0.1155871913306721,67.81720892067851,0.0
1227,-1.4062219771058373,0.16026596216633054,67.75965811867388,0.0
1228,-1.3909611797085206,0.1903826762322765,67.70628580934985,0.0
1229,-1.3785695331288812,0.21484415334869073,67.65716140725786,0.0
1230,-1.3588268313149146,0.24227930869400377,67.61235541567197,0.0
1231,-1.3240672310677861,0.2794565155074027,67.5719395226778,0.0
1232,-1.2703624298224734,0.3301091943610892,67.53598669984376,0.0
1233,-1.1981279686046082,0.3943451350582724,67.50457130365066,0.0
1234,-1.1120567521379123,0.4687114160068542,67.477769179867,0.0
1235,-1.020352911549001,0.5468758879799257,67.4556577710699,0.0
1236,-0.9333498711967907,0.6207850253782331,67.43831622752356,0.0
1237,-0.8617260063190262,0.6820822034822397,67.42582552164185,0.0
1238,-0.8146360782961445,0.7235324003827691,67.41826856627529,0.0
1239,-0.7981143048818514,0.7402055852528207,67.41573033707866,1.0
1240,-0.8140558747157594,0.7302209331912539,67.41847849011343,0.0
1241,-0.8599616269529232,0.6949388981119099,67.42663304279004,0.0
1242,-0.9294748356493298,0.638592625252613,67.44006098831913,0.0
1243,-1.0135923466328174,0.5674545005282126,67.45863162163104,0.0
1244,-1.1023194737240694,0.48871758331154874,67.48221633492622,0.0
1245,-1.1864623667413619,0.4093185292902014,67.51068842060614,0.0
1246,-1.2592117101754348,0.3349287644249942,67.54392288114502,0.0
1247,-1.3171809050054082,0.2692940355030042,67.58179624549815,0.0
1248,-1.3606470282324559,0.2140191298626638,67.62418639167608,0.0
1249,-1.392917854293435,0.1687932304795321,67.67097237514491,0.0
1250,-1.4189844287431983,0.13195552923576886,67.72203426274322,0.0
1251,-1.4438401299485992,0.10123305280642132,67.77725297183322,0.0
1252,-1.470961878428755,0.07445908100773767,67.83651011443177,0.0
1253,-1.5013987453688649,0.050105564932114044,67.89968784609074,0.0
1254,-1.5337076821126818,0.027528066680011315,67.96666871932167,0.0
1255,-1.564691692334909,0.00690765121522402,68.0373355413818,0.0
1256,-1.5906389672819525,-0.011043584884777718,68.11157123626144,0.0
1257,-1.608622061934225,-0.02549040544029238,68.1892587107335,0.0
1258,-1.6174336288071764,-0.0358562547427065,68.27028072434652,0.0
1259,-1.6178903147855113,-0.04206408954193061,68.35451976326259,0.0
1260,-1.6124650980063933,-0.04457644406809769,68.44185791786026,0.0
1261,-1.6044282066873388,-0.0442420744015066,68.53217676404138,0.0
1262,-1.5968160431277496,-0.0420152133376467,68.6253572481986,0.0
1263,-1.591568231745147,-0.038647633681391486,68.72127957581785,0.0
1264,-1.5890814253160401,-0.034455938183437854,68.8198231037068,0.0
1265,-1.588269683820935,-0.029239222973564946,68.9208662358573,0.0
1266,-1.5870578163585158,-0.022375967325369103,69.02428632296548,0.0
1267,-1.5831206129890532,-0.013078167067075569,69.12995956564916,0.0
1268,-1.5746442384291268,-0.0007392385545174907,69.23776092141739,0.0
1269,-1.5609204843497184,0.014710352805760024,69.34756401546224,0.0
1270,-1.5426614718759335,0.03252605553947546,69.45924105535657,0.0
1271,-1.5220070792517624,0.05101769390088429,69.5726627497571,0.0
1272,-1.5022638849106398,0.06759812373718325,69.68769823122427,0.0
1273,-1.4874526325037805,0.0790103897809189,69.80421498328508,0.0
1274,-1.481755005400065,0.08169911760399584,69.92207877187673,0.0
1275,-1.4889492952473302,0.07226878161073991,70.04115358132236,0.0
1276,-1.5119142465385695,0.04796049507136059,70.16130155500117,0.0
1277,-1.5522605335024502,0.00707978468269832,70.28238294088715,0.0
1278,-1.6101192067181662,-0.05068194735099893,70.40425604214073,0.0
1279,-1.684082839644138,-0.12407328962913525,70.52677717294863,0.0
1280,-1.7712721397186937,-0.21027801070803098,70.64980061981532,0.0
1281,-1.8674994809908811,-0.3050822731825325,70.77317860851942,0.0
1282,-1.967518227343631,-0.4031984276744046,70.89676127695485,0.0
1283,-2.0653661829111987,-0.4987136104883252,71.02039665408464,0.0
1284,-2.1548144557408713,-0.5856174025255905,71.14393064523999,0.0
1285,-2.2299118172940418,-0.6583522122930964,71.26720702400318,0.0
1286,-2.2855765914262243,-0.7123244734036955,71.3900674309155,0.0
1287,-2.3181502858683727,-0.7443161306463025,71.51235137925501,0.0
1288,-2.3258081138525846,-0.7527456519495712,71.63389626812913,0.0
1289,-2.3087340400690612,-0.7377459792541468,71.75453740312766,0.0
1290,-2.269013582243679,-0.7010515116638871,71.87410802477963,0.0
1291,-2.2102638149695344,-0.645713630211223,71.9924393450548,0.0
1292,-2.137083339138873,-0.5756895459857223,72.10936059214487,0.0
1293,-2.0544408945524864,-0.4953675745662002,72.2246990637539,0.0
1294,-1.9671169278890386,-0.40909976462793685,72.33828018911856,0.0
1295,-1.8792740136722728,-0.32080864736332604,72.44992759996819,0.0
1296,-1.7941819955641758,-0.2337194767293187,72.55946321062322,0.0
1297,-1.7140881378585193,-0.1502453412551738,72.66670730741555,0.0
1298,-1.640215427289746,-0.07202387635099694,72.77147864759834,0.0
1299,-1.572885990603167,-7.564024461267915e-05,72.87359456789423,0.0
1300,-1.5117769517002249,0.06496951991479555,72.97287110280978,0.0
1301,-1.4562986955372725,0.12264577098186394,73.06912311282166,0.0
1302,-1.4060354931273702,0.17249213477513659,73.16216442251401,0.0
1303,-1.3611277038004366,0.2140130203027592,73.25180796871963,0.0
1304,-1.322442162075187,0.24677997304461546,73.33786595868717,0.0
1305,-1.2914067636183324,0.27065573965186673,73.42015003826492,0.0
1306,-1.2694843759951664,0.2860805994702698,73.49847147005724,0.0
1307,-1.2574025970003064,0.29433043659198865,73.57264132147348,0.0
1308,-1.254385235289688,0.29764684664920976,73.64247066255027,0.0
1309,-1.2576892077322412,0.2991579138894861,73.70777077338808,0.0
1310,-1.2626983265565905,0.30255305814451056,73.76835336100042,0.0
1311,-1.2636655545970117,0.3115372295923728,73.82403078532971,0.0
1312,-1.2549758913962046,0.329153037592208,73.8746162941384,0.0
1313,-1.2326026579383167,0.357106353177095,73.91992426643716,0.0
1314,-1.195330859516224,0.395247069156722,73.95977046406314,0.0
1315,-1.1453683872926463,0.4413356433386937,73.99397229097288,0.0
1316,-1.0881473534055692,0.491171746487287,74.02234905976421,0.0
1317,-1.031366330512599,0.5390870528200734,74.04472226489149,0.0
1318,-0.9835446382755487,0.5787284798965884,74.06091586198836,0.0
1319,-0.9524721140151707,0.6039992247275944,74.07075655266208,0.0
1320,-0.9439129898178799,0.609995519010726,74.07407407407408,1.0
1321,-0.9607921730718166,0.5937814596076543,74.07132408524151,0.0
1322,-1.0029265880142793,0.5548783552719196,74.06315834077573,0.0
1323,-1.0672320585928288,0.49539847262098535,74.0497048726901,0.0
1324,-1.1482718442120317,0.41981319954699964,74.03109383160678,0.0
1325,-1.239009058889695,0.3344009818395678,74.00745730531128,0.0
1326,-1.3316509432991845,0.24646290470179025,73.97892913991829,0.0
1327,-1.4185000766787488,0.16341961046425704,73.94564476401167,0.0
1328,-1.4927453380830855,0.09191200569862816,73.90774101609719,0.0
1329,-1.5491371289691895,0.037021757508813924,73.86535597568455,0.0
1330,-1.5845018691472326,0.0017086371768089414,73.81862879829033,0.0
1331,-1.5980586604687437,-0.013466914891088588,73.76769955463104,0.0
1332,-1.5915025462679675,-0.0103035166090642,73.71270907425053,0.0
1333,-1.5688173050551226,0.00739120956439715,73.6537987938042,0.0
1334,-1.5357898647418033,0.03441105378311045,73.59111061019786,0.0
1335,-1.4992338450248022,0.06493471151196374,73.5247867387575,0.0
1336,-1.4659945994661974,0.09336668203949924,73.45496957658328,0.0
1337,-1.4418845780235896,0.11510713429187652,73.3818015712203,0.0
1338,-1.430752779826248,0.12712990102833416,73.30542509475661,0.0
1339,-1.4338950207124512,0.12827725186672317,73.22598232344002,0.0
1340,-1.4499525843304073,0.11922837885610948,73.14361512288434,0.0
1341,-1.4753410345457982,0.1021576522329079,73.05846493891863,0.0
1342,-1.505129606648844,0.08015708117571956,72.97067269411376,0.0
1343,-1.534185696395575,0.05654233649997013,72.88037869000495,0.0
1344,-1.5583309286629266,0.034182510579972125,72.78772251501209,0.0
1345,-1.5752403410536608,0.01498488556471006,72.6928429580455,0.0
1346,-1.5848649187524775,-0.000371354083921277,72.59587792776989,0.0
1347,-1.5892702006113855,-0.012415944745322816,72.49696437748722,0.0
1348,-1.5919388191271655,-0.02261027144977773,72.39623823558604,0.0
1349,-1.5967377559236031,-0.0328942768200141,72.29383434149496,0.0
1350,-1.6068476969469492,-0.04517260266957135,72.18988638706652,0.0
1351,-1.62395415241769,-0.060858481705693454,72.08452686330975,0.0
1352,-1.6479060119397284,-0.08056886492084137,71.97788701238048,0.0
1353,-1.6768931321156884,-0.10401918941935828,71.870096784732,0.0
1354,-1.7080380091682856,-0.1301144981534447,71.76128480132132,0.0
1355,-1.7381904687889969,-0.15718963821178716,71.65157832076176,0.0
1356,-1.7646853333284684,-0.1833259611243815,71.54110321130675,0.0
1357,-1.7858660620108777,-0.2066699167863923,71.42998392754687,0.0
1358,-1.801266408972682,-0.22569741488298736,71.31834349169831,0.0
1359,-1.8114474477742692,-0.23939801535552727,71.20630347935862,0.0
1360,-1.817585150478012,-0.2473831093367303,71.0939840096044,0.0
1361,-1.820975074864105,-0.24994137538986205,70.98150373930392,0.0
1362,-1.8226470747098693,-0.24806653659368547,70.86897986151793,0.0
1363,-1.8232491883251838,-0.24346710065348837,70.75652810786164,0.0
1364,-1.8232648918027825,-0.2385424863413561,70.64426275470193,0.0
1365,-1.823493760147418,-0.2362865938077292,70.5322966330653,0.0
1366,-1.8255957546219668,-0.24007110403684978,70.42074114213379,0.0
1367,-1.832425186352588,-0.25327533182829237,70.30970626620841,0.0
1368,-1.8479017002637044,-0.2787682399793388,70.19930059502249,0.0
1369,-1.8762933175708576,-0.3183027160651607,70.08963134729082,0.0
1370,-1.9209931839970253,-0.37193591708098733,69.98080439738342,0.0
1371,-1.9830934513195178,-0.4376225412939206,69.87292430501755,0.0
1372,-2.0602132037163727,-0.5111236092868533,69.76609434786492,0.0
1373,-2.1460489283791997,-0.5863246415195602,69.66041655697688,0.0
1374,-2.230955429049534,-0.6559705071969171,69.55599175493388,0.0
1375,-2.3035664778627507,-0.712719590906156,69.45291959663189,0.0
1376,-2.353121513391879,-0.750325778606808,69.35129861262281,0.0
1377,-2.3718979548346617,-0.7647019405339223,69.25122625493283,0.0
1378,-2.3570597526796586,-0.754623074640827,69.15279894528679,0.0
1379,-2.3113642963109067,-0.7218951666323572,69.05611212567472,0.0
1380,-2.242487716334161,-0.6709329478270905,68.96126031120112,0.0
1381,-2.1611323591772904,-0.6078269757036756,68.86833714516533,0.0
1382,-2.078437117786965,-0.5391019206712141,68.77743545632705,0.0
1383,-2.003403948555065,-0.47044135340559545,68.6886473183187,0.0
1384,-1.941022906279543,-0.40566043872761504,68.60206411117227,0.0
1385,-1.8915429518666071,-0.34614586311072365,68.51777658493648,0.0
1386,-1.8509849637800362,-0.29086927384611166,68.43587492536643,0.0
1387,-1.8126473895746842,-0.23694629163157666,68.35644882167611,0.0
1388,-1.769120352830224,-0.1805913567095484,68.2795875363514,0.0
1389,-1.7142569799495588,-0.11823746861281648,68.20537997702877,0.0
1390,-1.6446442407818727,-0.047565279475352606,68.13391477045376,0.0
1391,-1.5603123578372062,0.0317809087783682,68.06528033854038,0.0
1392,-1.464643672991466,0.11793416413364272,67.99956497656203,0.0
1393,-1.363621152512306,0.20704378374060506,67.93685693351249,0.0
1394,-1.2646567454256668,0.293948620497124,67.87724449468473,0.0
1395,-1.1752593554615804,0.3731368486074857,67.82081606652466,0.0
1396,-1.1017668250465806,0.43979320832482083,67.76766026382582,0.0
1397,-1.0483117711512249,0.4907238906364778,67.71786599934153,0.0
1398,-1.0161445429995506,0.5249772733455087,67.67152257590067,0.0
1399,-1.0034038685853652,0.5440385859918554,67.628719781124,0.0
1400,-1.0053921043058887,0.5515569350307034,67.58954798484885,0.0
1401,-1.0153566027710068,0.5526501486960763,67.55409823938135,0.0
1402,-1.0256939988470084,0.5529119749052808,67.5224623827075,0.0
1403,-1.0293956918202127,0.5573036477618459,67.49473314480679,0.0
1404,-1.0214727596787947,0.5691371033411965,67.47100425722475,0.0
1405,-1.0000692448487358,0.5893445904330741,67.45137056607535,0.0
1406,-0.9670113215084147,0.6161800895862106,67.43592814865777,0.0
1407,-0.9276427926847388,0.6454198850331587,67.42477443388795,0.0
1408,-0.8899435683065927,0.6710369422714196,67.41800832676113,0.0
1409,-0.8630844785427666,0.6862340950610265,67.41573033707866,1.0
1410,-0.8557009340465104,0.6846521034038313,67.51413860226181,0.0
1411,-0.8742349867141403,0.6615342681280227,67.8033736428453,0.0
1412,-0.9216807383417129,0.6146364326600435,68.27662370304273,0.0
1413,-0.9969760576175629,0.5447183374309535,68.92963068455094,0.0
1414,-1.0951410328051119,0.45552976704498493,69.76034710687773,0.0
1415,-1.2081085126370614,0.35329719130521775,70.76867295739876,0.0
1416,-1.3260600393738575,0.24580566494330164,71.95625059963542,0.0
1417,-1.4389964369550459,0.14124004165340198,73.32630046937383,0.0
1418,-1.538248559332897,0.046987183988948134,74.88348304693251,0.0
1419,-1.617669841221426,-0.0313983874306861,76.6337739713275,0.0
1420,-1.6743355847560502,-0.09089715599166731,78.58433940125607,0.0
1421,-1.7086813780926677,-0.1312885483297993,80.74339795211516,0.0
1422,-1.724116984485584,-0.15494551660480144,83.12005379135688,0.0
1423,-1.7262283745646132,-0.1662074959022077,85.72408275231456,0.0
1424,-1.7217173503572147,-0.17044748121749512,88.56564961053492,0.0
1425,-1.7172305698073425,-0.17299681890083288,91.65492996637002,0.0
1426,-1.7182170545327053,-0.1781125484698264,95.0016045946432,0.0
1427,-1.7279467037428047,-0.18816396381116327,98.61418794618368,0.0
1428,-1.7468289983416267,-0.20317840853317973,102.49914633849939,0.0
1429,-1.772175303633293,-0.22082590280784978,106.65975641357863,0.0
1430,-1.798519577793177,-0.23684657628786066,111.09465264405273,0.0
1431,-1.8185275511175978,-0.24584604071504013,115.79601715716613,0.0
1432,-1.8243887050161773,-0.242315882282859,120.74738052111238,0.0
1433,-1.809437676113246,-0.2216931794737529,125.92103466218164,0.0
1434,-1.7696494739793656,-0.1812646045831381,131.27511641257894,0.0
1435,-1.7046447262454951,-0.12075081018448627,136.75051018970711,0.0
1436,-1.6179434209951815,-0.042470431150261875,142.26784625007397,0.0
1437,-1.5163940981141848,0.0489330993809276,147.72503446917477,0.0
1438,-1.4089236335425046,0.14713329589310903,152.99595519731275,0.0
1439,-1.3049314330750135,0.24499474395130885,157.93108740695266,0.0
1440,-1.2127329422551494,0.3355086763872302,162.36092027873698,0.0
1441,-1.1384151377448892,0.41262354790376765,166.10287466125666,0.0
1442,-1.0853184591818141,0.4718440386929108,168.9720652557308,0.0
1443,-1.0541602443988194,0.510534616980739,170.79552538960962,0.0
1444,-1.0436346931798122,0.5279318297564022,171.42857142857144,1.0
1445,-1.0512218650361587,0.5249256818769443,171.35092226994686,0.0
1446,-1.073937333548552,0.5037026229175774,171.12079470366714,0.0
1447,-1.108838746409234,0.4673464609554126,170.74299698462485,0.0
1448,-1.1532300289187125,0.4194727756399974,170.22304461213267,0.0
1449,-1.2046156779602881,0.3639369874031116,169.56707550453552,0.0
1450,-1.260520911257114,0.3046185935815438,168.7817610853478,0.0
1451,-1.3183028663270966,0.24525549315782752,167.8742153181364,0.0
1452,-1.3750528645398263,0.18929006558037317,166.8519036160803,0.0
1453,-1.4276545395897067,0.13969458291346792,165.72255338782668,0.0
1454,-1.473028325148787,0.09876410033269489,164.49406777627883,0.0
1455,-1.5085529578354944,0.06789263717493563,163.17444391413747,0.0
1456,-1.5325994624195742,0.04737379813515866,161.77169677189997,0.0
1457,-1.545048778765145,0.03628121847120762,160.29378942214996,0.0
1458,-1.5476196700636602,0.03248166864381993,158.74857029841664,0.0
1459,-1.5438454930604888,0.032813496651241586,157.14371779592622,0.0
1460,-1.5386238801412335,0.03342985423575785,155.48669235154614,0.0
1461,-1.5374004759893458,0.030268641863902962,153.78469595552681,0.0
1462,-1.545180566076173,0.019579816149296325,152.0446388908456,0.0
1463,-1.5656292681819133,-0.0015754436679552425,150.27311336799758,0.0
1464,-1.6004900407460392,-0.03493573069967951,148.47637362354322,0.0
1465,-1.6494385395506683,-0.0808208017397884,146.66032197811737,0.0
1466,-1.7103474872347022,-0.13811001507784368,144.8305003016455,0.0
1467,-1.7798273474974555,-0.20440839326603055,142.99208630738272,0.0
1468,-1.853862490690808,-0.2763613052150692,141.14989408899595,0.0
1469,-1.9283839625121826,-0.3500615680881856,139.3083783230559,0.0
1470,-1.9996837934000686,-0.4214893995380601,137.4716415798777,0.0
1471,-2.0646505792715746,-0.48693333862217714,135.64344421571616,0.0
1472,-2.1208661884263003,-0.5433536614587143,133.82721635622516,0.0
1473,-2.1666340319164075,-0.5886632925019927,132.02607152248424,0.0
1474,-2.2010064633341266,-0.621910830277175,130.2428214947868,0.0
1475,-2.2238484129081018,-0.6433550434103481,128.47999205410557,0.0
1476,-2.2359295425703167,-0.6544219192698155,126.739839285378,0.0
1477,-2.2389944443419556,-0.6575377461408985,125.02436616945103,0.0
1478,-2.235734746667944,-0.655838546662561,123.33533923093576,0.0
1479,-2.2295891869714994,-0.6527695415621576,121.67430504681491,0.0
1480,-2.2243322828490872,-0.651607425424678,120.0426064550941,0.0
1481,-2.223474567814612,-0.654959238643124,118.44139833392184,0.0
1482,-2.229570586621249,-0.6643085473606368,116.87166284938262,0.0
1483,-2.24358770376924,-0.6796861795725335,115.33422409465815,0.0
1484,-2.26450220851476,-0.6995343489433823,113.82976206458312,0.0
1485,-2.2892477121701984,-0.720808529442119,112.35882592798892,0.0
1486,-2.31305755154609,-0.7393240194686097,110.92184657584663,0.0
1487,-2.3301494705435335,-0.7503105448850258,109.51914843633728,0.0
1488,-2.33462896993504,-0.749097418658555,108.15096055883791,0.0
1489,-2.3214522550562324,-0.7318226228365039,106.81742697766576,0.0
1490,-2.2872862523058584,-0.6960485367849316,105.51861637351341,0.0
1491,-2.2311201695316094,-0.6411780883468208,104.25453105605735,0.0
1492,-2.154515643941773,-0.5685966499768226,103.02511529544846,0.0
1493,-2.0614344397509075,-0.4815116028592561,101.83026303349004,0.0
1494,-1.9576559676514231,-0.38451446394708116,100.6698250074492,0.0
1495,-1.8498807952910792,-0.28293955662301257,99.54361532079737,0.0
1496,-1.744687405130835,-0.18212866922302068,98.45141749586854,0.0
1497,-1.6475438470056447,-0.08672587811446147,97.39299004358794,0.0
1498,-1.5620625075430665,-0.00011785903136696252,96.36807158516714,0.0
1499,-1.4896304174215773,0.07589531861813809,95.37638556007356,0.0
1500,-1.4294652701628223,0.14115909069096244,94.41764455375012,0.0
1501,-1.3790573649779483,0.19696353693483615,93.49155427754573,0.0
1502,-1.334878585060246,0.24563845420251929,92.5978172321834,0.0
1503,-1.2931893493817057,0.2900311766454438,91.73613608488552,0.0
1504,-1.250767253125191,0.3329657938657894,90.90621678903757,0.0
1505,-1.2054195933599006,0.37677430756374813,90.10777147403752,0.0
1506,-1.1562131070696606,0.42296595296634354,89.34052113177407,0.0
1507,-1.103433145671163,0.47206729585494567,88.60419812503102,0.0
1508,-1.0483454868989863,0.5236309058981687,87.89854854204248,0.0
1509,-0.9928613821583414,0.5763816556140401,87.22333442044507,0.0
1510,-0.9391992155162258,0.6284518228204926,86.57833586300058,0.0
1511,-0.8896054302569207,0.6776508482653493,85.96335306670977,0.0
1512,-0.846159791782772,0.7217215252549832,85.37820828631524,0.0
1513,-0.8106602813757348,0.7585482093828452,84.82274775271112,0.0
1514,-0.7845681783282609,0.7863000819692108,84.29684356644836,0.0
1515,-0.7689925850590927,0.8035095270497976,83.80039558635906,0.0
1516,-0.7646986766344036,0.8090991614417068,83.33333333333334,1.0
1517,-0.7721284209494442,0.8023790942625965,82.8818584235641,0.0
1518,-0.7914237372637769,0.7830378955336996,82.43231141634745,0.0
1519,-0.8224414202855274,0.7511468459652937,81.9848484387712,0.0
1520,-0.8647492639814226,0.7071884417519256,81.53961880111812,0.0
1521,-0.917595406236789,0.6521085829446914,81.09676516758586,0.0
1522,-0.9798488747368874,0.5873796047078863,80.65642372955323,0.0
1523,-1.0499191830349803,0.5150508395224455,80.2187243808052,0.0
1524,-1.1256759416786368,0.4377572591462319,79.78379089416661,0.0
1525,-1.2044026534332606,0.3586570571569971,79.3517410990355,0.0
1526,-1.2828268676802008,0.2812769729450623,78.92268705934158,0.0
1527,-1.3572664653552746,0.20925945019002606,78.49673525149413,0.0
1528,-1.4239159323815935,0.14602632217555822,78.0739867419159,0.0
1529,-1.4792667239337398,0.09439586574210967,77.65453736379506,0.0
1530,-1.5206152160216586,0.05620884043432545,77.23847789271761,0.0
1531,-1.5465685847424944,0.03202945149330402,76.82589422087396,0.0
1532,-1.557428425725122,0.020985113651079468,76.41686752956241,0.0
1533,-1.555332439163854,0.020792908841835073,76.01147445973987,0.0
1534,-1.5440770034403355,0.027992360448682474,75.60978728039619,0.0
1535,-1.5286200828015981,0.03836838005031304,75.21187405455362,0.0
1536,-1.5143471965063204,0.04751200521284571,74.81779880271594,0.0
1537,-1.5062402960919254,0.05143749306784362,74.42762166361466,0.0
1538,-1.5081021918171003,0.047158926422682074,74.04139905211902,0.0
1539,-1.521963763671594,0.033131493332307416,73.65918381419765,0.0
1540,-1.5477594120772686,0.009482277705472525,73.28102537883659,0.0
1541,-1.5833168099817565,-0.022010511445767683,72.90696990683605,0.0
1542,-1.624672830100499,-0.05818855951888388,72.53706043642401,0.0
1543,-1.6666881463829166,-0.09499057380560683,72.17133702563909,0.0
1544,-1.7038795883254443,-0.12805627429813263,71.80983689144942,0.0
1545,-1.7313289047575042,-0.15335754011047428,71.45259454558615,0.0
1546,-1.745484471233361,-0.16775533323611455,71.09964192708232,0.0
1547,-1.7446789869151118,-0.16939840664767106,70.75100853151842,0.0
1548,-1.7292550550041128,-0.15791230226684716,70.40672153698559,0.0
1549,-1.7013034336966997,-0.13436739097226452,70.06680592678687,0.0
1550,-1.6641295623583965,-0.10105374260682848,69.73128460890447,0.0
1551,-1.6216233618539262,-0.06112025893129766,69.40017853226922,0.0
1552,-1.577692850890809,-0.018150478399974523,69.07350679987461,0.0
1553,-1.5358524749284583,0.02425347313104459,68.75128677878432,0.0
1554,-1.4989785181724837,0.06282154106496213,68.4335342070874,0.0
1555,-1.4691983558485042,0.09486608093716967,68.12026329786056,0.0
1556,-1.4478779057158477,0.11842128155908574,67.81148684020113,0.0
1557,-1.4356896105626775,0.1322820448640027,67.5072162973985,0.0
1558,-1.4327492534174355,0.13596658676421378,67.20746190231543,0.0
1559,-1.4387907793385823,0.1296322079740492,66.91223275005306,0.0
1560,-1.4533208149005497,0.11397062791401788,66.62153688797748,0.0
1561,-1.4756899111229815,0.0901003004049246,66.33538140318653,0.0
1562,-1.5050535475878497,0.05946188790822889,66.05377250749883,0.0
1563,-1.5402599483384234,0.023713646911080848,65.77671562004844,0.0
1564,-1.5797570294436334,-0.015380808795979695,65.50421544756936,0.0
1565,-1.6216208371988943,-0.056077659208457795,65.2362760624569,0.0
1566,-1.663760415686776,-0.09678863453865624,64.9729009786923,0.0
1567,-1.70426917509172,-0.13621549904377372,64.7140932257192,0.0
1568,-1.7418117459149487,-0.17346416695499783,64.45985542036084,0.0
1569,-1.7758991696552802,-0.20811793373832213,64.210189836867,0.0
1570,-1.8069355917070193,-0.24025473035979356,63.96509847518134,0.0
1571,-1.8360078713224595,-0.2704037294852279,63.72458312751882,0.0
1572,-1.864498650639452,-0.29944811644100805,63.48864544334431,0.0
1573,-1.89368146928298,-0.32848918088541956,63.2572869928431,0.0
1574,-1.9244603100814,-0.3586895955624633,63.03050932897465,0.0
1575,-1.9573363755713655,-0.3911112097009455,62.808314048200515,0.0
1576,-1.9925584341054554,-0.42655786645719335,62.590702849978385,0.0
1577,-2.0303076541097695,-0.4654305460388513,62.377677595113546,0.0
1578,-2.070745853065829,-0.5076031181396359,62.16924036305989,0.0
1579,-2.1138357582633662,-0.5523318124890815,61.96539350826223,0.0
1580,-2.158982772949098,-0.5982168406418882,61.766139715632605,0.0
1581,-2.2046719961795174,-0.6432357064283225,61.571482055253,0.0
1582,-2.248311386417316,-0.6848610855932922,61.381424036397625,0.0
1583,-2.286419161023997,-0.7202615484195066,61.195969660968366,0.0
1584,-2.3151468672644713,-0.7465646291966733,61.01512347643739,0.0
1585,-2.330981915592919,-0.7611452350152019,60.83889062839186,0.0
1586,-2.331394902168241,-0.7618944640488936,60.66727691277636,0.0
1587,-2.315221424225084,-0.7474279732619507,60.50028882792943,0.0
1588,-2.282679926407805,-0.7172079655844839,60.33793362651217,0.0
1589,-2.2350729949463397,-0.6715733658988151,60.18021936742748,0.0
1590,-2.1743343785833664,-0.6116915581868709,60.027154967830626,0.0
1591,-2.102620394714972,-0.5394559278846203,59.878750255332754,0.0
1592,-2.0220924892115764,-0.4573536871020697,59.735016020501305,0.0
1593,-1.934927999745409,-0.36831981280452836,59.595964069763156,0.0
1594,-1.8434827887915777,-0.27558066142878007,59.46160727881833,0.0
1595,-1.7504626911810706,-0.18248134772739874,59.331959646675166,0.0
1596,-1.6589637380652207,-0.0922891445842961,59.207036350420076,0.0
1597,-1.572303316244931,-0.00797233820077109,59.08685380083835,0.0
1598,-1.4936531015476786,0.06803241588907816,58.971429699005945,0.0
1599,-1.425563564195388,0.13403656393053665,58.86078309397569,0.0
1600,-1.3695133691020451,0.18926278699809895,58.75493444168535,0.0
1601,-1.3256151901796684,0.2339178723353293,58.6539056652198,0.0
1602,-1.2925674632704351,0.2691497963203513,58.55772021656384,0.0
1603,-1.2678755719222048,0.2968838021720714,58.46640313998788,0.0
1604,-1.2482967810686256,0.31955631112764094,58.379981137214216,0.0
1605,-1.230409505773184,0.33978685401449116,58.298482634517704,0.0
1606,-1.2111809126319861,0.36004108113583594,58.22193785192195,0.0
1607,-1.1884116361520063,0.3823389034109464,58.150378874658344,0.0
1608,-1.1609708098594624,0.4080508319387761,58.083839727064344,0.0
1609,-1.1287912097164174,0.43780573170545656,58.02235644910509,0.0
1610,-1.0926590313102102,0.47150981390486935,57.965967175711945,0.0
1611,-1.0538864011592646,0.5084556822850178,57.91471221914195,0.0
1612,-1.0139786684232335,0.5474864268484868,57.868634154571915,0.0
1613,-0.9743935358407505,0.5871755360554993,57.82777790915372,0.0
1614,-0.9364406889894208,0.6259883563468407,57.79219085476927,0.0
1615,-0.9013082283869622,0.6624022108562909,57.76192290473725,0.0
1616,-0.8701519046888312,0.6949762114495307,57.73702661473868,0.0
1617,-0.8441664363264133,0.722374650342507,57.71755728824407,0.0
1618,-0.82458177220001,0.7433573568764622,57.70357308674187,0.0
1619,-0.8125783347984175,0.7567558970544364,57.695135145086994,0.0
1620,-0.8091667226094386,0.7614564676255783,57.69230769230769,1.0
1621,-0.8151004776136344,0.7564094973613273,57.70932208484899,0.0
1622,-0.8308708216793167,0.7406824241392169,57.75969614562686,0.0
1623,-0.8567782561580617,0.7135651920150663,57.8425075704502,0.0
1624,-0.8930163937005189,0.6747268612175065,57.956933884959035,0.0
1625,-0.9396734202468798,0.6244064687864728,58.10224250702315,0.0
1626,-0.9965788148867177,0.5636040532976678,58.27778173992205,0.0
1627,-1.0629941949348785,0.49422297458536046,58.48297255017315,0.0
1628,-1.1372380797091721,0.41910810251349373,58.71730100220203,0.0
1629,-1.2164026759867703,0.3419313464052043,58.9803112372109,0.0
1630,-1.29633082161154,0.2668987334394005,59.27159889614359,0.0
1631,-1.3719608791091016,0.19828964377917946,59.590804897014465,0.0
1632,-1.438035026082661,0.13988179502269246,59.93760948542927,0.0
1633,-1.4900438546006616,0.09435452184632892,60.311726484184554,0.0
1634,-1.5251933211980269,0.06278641577455851,60.71289767364388,0.0
1635,-1.5431567551627217,0.044362604920642756,61.14088723937329,0.0
1636,-1.5464140925395455,0.036378383252731905,61.595476227465625,0.0
1637,-1.5400614910806707,0.03457298387468982,62.07645695126255,0.0
1638,-1.5310743889678071,0.033760153718454394,62.58362729594939,0.0
1639,-1.5271145541967046,0.02865564379482377,63.1167848698968,0.0
1640,-1.535081160854009,0.014751957698455165,63.67572095379505,0.0
1641,-1.5597008515569917,-0.010928747718943754,64.260214200714,0.0
1642,-1.6024964239361856,-0.049354682555461826,64.87002404236547,0.0
1643,-1.661427828980647,-0.09937470176111782,65.50488375920023,0.0
1644,-1.7313474179299402,-0.15799787381274294,66.16449317469541,0.0
1645,-1.805186177648803,-0.22099679690619117,66.84851093745746,0.0
1646,-1.875564180060578,-0.2836991764284664,67.55654635876519,0.0
1647,-1.9363828056349446,-0.3417946316152907,68.28815077811328,0.0
1648,-1.9839651972168542,-0.39198797574561695,69.0428084354085,0.0
1649,-2.0174649511662768,-0.4323745281039325,69.81992683595499,0.0
1650,-2.038503710291226,-0.4624848905114648,70.61882660349447,0.0
1651,-2.050235379705377,-0.48302668202763716,71.43873082760355,0.0
1652,-2.056182833021893,-0.49541847938867667,72.27875392496216,0.0
1653,-2.0592079152206195,-0.5012508372541229,73.13789004966152,0.0
1654,-2.0608703276803704,-0.5018135369022488,74.0150011060696,0.0
1655,-2.0612649808972217,-0.49779948974620725,74.90880443904027,0.0
1656,-2.05927405107888,-0.48924405340826127,75.81786030061892,0.0
1657,-2.053081385317429,-0.4756979536964114,76.74055921996734,0.0
1658,-2.040784418752817,-0.45657657897030157,77.67510943401228,0.0
1659,-2.0209771900022346,-0.43158906790787427,78.61952457019318,0.0
1660,-1.9932269329666377,-0.40113367456216176,79.57161180934746,0.0
1661,-1.9583951525181833,-0.366552958507653,80.52896079572562,0.0
1662,-1.9187562084634684,-0.3301709756604032,81.48893360160966,0.0
1663,-1.8778609682642269,-0.295079282839414,82.44865609496212,0.0
1664,-1.8401077997982795,-0.26469135971235197,83.40501109856442,0.0
1665,-1.8100339749608474,-0.2421366309319575,84.3546337664467,0.0
1666,-1.791419113876047,-0.2296058252808612,85.29390963592257,0.0
1667,-1.7863699861785582,-0.22778019116272874,86.21897583868542,0.0
1668,-1.7945998905997511,-0.23547227334119414,87.125725969318,0.0
1669,-1.8131048834309222,-0.24957436879722242,88.0098191110485,0.0
1670,-1.8363711147530315,-0.26535687293994686,88.86669350331245,0.0
1671,-1.8571367809440467,-0.27709229382349304,89.69158530030363,0.0
1672,-1.8676034170265219,-0.27891515205320466,90.47955281106933,0.0
1673,-1.8608741287313597,-0.2657774053574346,91.2255065271438,0.0
1674,-1.8323212416651868,-0.2343348621721306,91.92424513132035,0.0
1675,-1.7805781766393838,-0.18360804483400542,92.57049754015462,0.0
1676,-1.7079226100189575,-0.115299584563409,93.15897086386096,0.0
1677,-1.6199606876256192,-0.03371087527426672,93.68440397289581,0.0
1678,-1.5246993370466584,0.054730045217095125,94.14162614526862,0.0
1679,-1.431249442024552,0.14225419765806313,94.52562003924344,0.0
1680,-1.348479697462968,0.22073044275025627,94.83158800158377,0.0
1681,-1.2839077380431452,0.2826956600091339,95.05502049286142,0.0
1682,-1.2429858316289426,0.32229729763218373,95.19176520123438,0.0
1683,-1.2287728776754243,0.33603029499258785,95.23809523809524,1.0
1684,-1.2418619530386814,0.3231821768829113,95.22267166870918,0.0
1685,-1.2804106247449687,0.28593618573574026,95.17688073490183,0.0
1686,-1.3402022660957382,0.22911926939651794,95.10148365241734,0.0
1687,-1.4147952586543362,0.15961919743135422,94.99729330196341,0.0
1688,-1.4959100928962736,0.08553361286646308,94.86516946511927,0.0
1689,-1.5741971710162772,0.015152166989414323,94.70601399145724,0.0
1690,-1.640409497415676,-0.04409400013974559,94.52076593872431,0.0
1691,-1.6868232820139337,-0.08656183720332361,94.31039672583942,0.0
1692,-1.7085900900811521,-0.10905531572802027,94.07590533597528,0.0
1693,-1.7046452871601194,-0.11109740330884478,93.81831360418238,0.0
1694,-1.6778754390528132,-0.09476091684866282,93.53866162094937,0.0
1695,-1.6344400072085994,-0.06408558752116383,93.23800327984429,0.0
1696,-1.5823810456249725,-0.02419260029004154,92.91740199401805,0.0
1697,-1.5298544112504544,0.01972598493467058,92.57792660293337,0.0
1698,-1.483414030976697,0.06333505641950286,92.22064748727135,0.0
1699,-1.4467569063974668,0.10380902534288688,91.84663290661467,0.0
1700,-1.4202121086828994,0.14007696147624563,91.45694557125806,0.0
1701,-1.4010752739488168,0.17262093280846474,91.05263945639321,0.0
1702,-1.3846951474483624,0.2028924414298846,90.63475686398831,0.0
1703,-1.366046059848358,0.23250273761741286,90.20432573495977,0.0
1704,-1.3413994125699218,0.262397988172507,89.76235721173327,0.0
1705,-1.309666140748432,0.29223551188494823,89.3098434490272,0.0
1706,-1.2730423290544057,0.32013017778978337,88.84775566867191,0.0
1707,-1.2367533058702733,0.34285101058792006,88.3770424525047,0.0
1708,-1.2079263657212378,0.35643803770116733,87.8986282658516,0.0
1709,-1.1938651729301983,0.35710492123759696,87.41341220281751,0.0
1710,-1.2001729504496832,0.3422192957962455,86.9222669435452,0.0
1711,-1.229216903999771,0.31112775936270015,86.4260379127618,0.0
1712,-1.2793269754729586,0.26562189764690647,85.9255426282925,0.0
1713,-1.3449143123013663,0.20991809776546017,85.42157022777096,0.0
1714,-1.4174519161487367,0.15012885507102108,84.91488116149905,0.0
1715,-1.4870595141509626,0.09331253803809768,84.40620703928481,0.0
1716,-1.5443274607614694,0.04627813497711443,83.89625061910398,0.0
1717,-1.582009450153845,0.014373079132705989,83.38568592556717,0.0
1718,-1.596285788474995,0.00048678933657875234,82.8751584864161,0.0
1719,-1.587409411087186,0.004461235206386215,82.3652856756025,0.0
1720,-1.559663609416492,0.02302268944526803,81.85665715190859,0.0
1721,-1.5206662431432318,0.050251943738142936,81.34983538253155,0.0
1722,-1.480144355251074,0.07851224682058792,80.84535624156636,0.0
1723,-1.4483735378397649,0.09967281300420208,80.34372967386841,0.0
1724,-1.4345241732150167,0.10641498858990386,79.84544041534897,0.0
1725,-1.4451753879306197,0.09339636336502971,79.35094876134389,0.0
1726,-1.4832409010874166,0.058076718696130805,78.86069137529041,0.0
1727,-1.5474955754607427,0.0010731140156682514,78.3750821305414,0.0
1728,-1.6327991727172348,-0.07400216706035939,77.89451297873428,0.0
1729,-1.7309935735918562,-0.16117378308581204,77.41935483870968,0.0
1730,-1.8323196274647675,-0.2530760612385993,76.94995850053542,0.0
1731,-1.9270865707413387,-0.3420808634592725,76.48665553973477,0.0
1732,-2.0072609596597655,-0.42137671287947875,76.02975923733825,0.0
1733,-2.0676478330301853,-0.485817324950383,75.57956550187598,0.0
1734,-2.1064227328552576,-0.5324145480400263,75.1363537898996,0.0
1735,-2.124925257708333,-0.5604290199356399,74.70038802206977,0.0
1736,-2.12680755682944,-0.5710934409941432,74.27191749226469,0.0
1737,-2.1167956321776265,-0.5670697826199242,73.85117776756029,0.0
1738,-2.099417731703758,-0.5517789567034772,73.43839157729994,0.0
1739,-2.0780469947011233,-0.5287435733107668,73.03376968981507,0.0
1740,-2.054488423170045,-0.501055106297067,72.63751177567639,0.0
1741,-2.02914540877959,-0.47102794703724865,72.24980725665101,0.0
1742,-2.0015958938411345,-0.44005054979929836,71.87083613981362,0.0
1743,-1.971273544636252,-0.4086031785969131,71.50076983651257,0.0
1744,-1.937943525014051,-0.37639178746141083,71.13977196612487,0.0
1745,-1.9017900780701127,-0.34254896258415835,70.78799914474925,0.0
1746,-1.8631371908146885,-0.3058684281715095,70.44560175918595,0.0
1747,-1.8220098980419082,-0.2650578848305628,70.11272472673593,0.0
1748,-1.7778253361915655,-0.2190052119623962,69.78950824152376,0.0
1749,-1.7294418562447744,-0.16704990147563334,69.47608850820842,0.0
1750,-1.6756211529387102,-0.10923692718228087,69.17259846409651,0.0
1751,-1.6157547578622415,-0.04651223849138253,68.87916849081385,0.0
1752,-1.5505667688910325,0.019191695404650405,68.59592711682744,0.0
1753,-1.4824909729044733,0.08502701493116979,68.32300171223982,0.0
1754,-1.4155347416056432,0.14748207391615015,68.06051917740508,0.0
1755,-1.3546301502147986,0.20280089126997275,67.80860662704151,0.0
1756,-1.3046530783208323,0.24751778978968292,67.56739207164077,0.0
1757,-1.2693929552901049,0.2790224751546333,67.3370050981018,0.0
1758,-1.2507491153163244,0.2960558424508525,67.11757755164716,0.0
1759,-1.2483324129090274,0.299042909549617,66.90924422121604,0.0
1760,-1.2595139732281306,0.29019449878047354,66.71214353067144,0.0
1761,-1.2798436971645963,0.27334709702507676,66.52641823831024,0.0
1762,-1.3036972807305296,0.253552240365247,66.35221614732946,0.0
1763,-1.325008958496725,0.2364650092622005,66.1896908300776,0.0
1764,-1.3379876783852602,0.22761042437823362,66.03900236911257,0.0
1765,-1.3377642930166123,0.23162416594867286,65.90031811829957,0.0
1766,-1.3209490905845909,0.2515696878699465,65.77381348741251,0.0
1767,-1.2860823166510988,0.28842801077197155,65.65967275396105,0.0
1768,-1.233943636284366,0.34083985699708436,65.55808990624749,0.0
1769,-1.1676677273624156,0.4051527793317047,65.46926952197532,0.0
1770,-1.09260726631421,0.4757893704031625,65.39342768708188,0.0
1771,-1.0158967363645945,0.5459087310763551,65.33079295986026,0.0
1772,-0.9457003297909707,0.6082866033057645,65.28160738587495,0.0
1773,-0.890176159565931,0.6562969561361626,65.24612756966621,0.0
1774,-0.856259713107413,0.6848481872079587,65.22462580978859,0.0
1775,-0.848454377986003,0.6911193011642052,65.21739130434783,1.0
1776,-0.8678876108613669,0.6749616860224568,65.22384993907825,0.0
1777,-0.9119045339672461,0.6388813837490346,65.24300715935313,0.0
1778,-0.9743918372831444,0.5875889396785704,65.27454548116982,0.0
1779,-1.0468549856907658,0.5271859240901079,65.31816049145095,0.0
1780,-1.120057872135681,0.46413133783233707,65.3735596717223,0.0
1781,-1.1858528429931867,0.40417934577939424,65.44046128189956,0.0
1782,-1.238752010811101,0.3514889440874617,65.51859329811185,0.0
1783,-1.2768509594223973,0.30807209290519966,65.6076923990455,0.0
1784,-1.3018938087150156,0.27367617498359337,65.70750299579313,0.0
1785,-1.3185032172267892,0.2461054456736369,65.81777630064788,0.0
1786,-1.3328150564264138,0.22189572337091298,65.9382694306959,0.0
1787,-1.3508933298758685,0.19718772704295645,66.06874454243929,0.0
1788,-1.3773249692866996,0.16861200853694752,66.20896799402783,0.0
1789,-1.414309617152936,0.13400759767771353,66.3587095319994,0.0
1790,-1.461399133984855,0.09284224688013021,66.51774149972641,0.0
1791,-1.5158569267073507,0.046271386467674064,66.68583806504371,0.0
1792,-1.5734544988319548,-0.0031515079782859223,66.86277446479595,0.0
1793,-1.6294460780051925,-0.0520347812768473,67.0483262642898,0.0
1794,-1.6794778914543393,-0.09685631076000467,67.24226862987477,0.0
1795,-1.720276247450938,-0.13467944304013788,67.44437561310376,0.0
1796,-1.750068714013811,-0.16374604594612358,67.65441944514691,0.0
1797,-1.7687714568468953,-0.1838444664463319,67.872169840349,0.0
1798,-1.7779938068862633,-0.1963922704595109,68.09739330803436,0.0
1799,-1.7808786211289518,-0.2042218106561209,68.329852471876,0.0
1800,-1.7817544420285187,-0.21110475719920602,68.56930539635782,0.0
1801,-1.7855662158823518,-0.22109431480301556,68.81550492007212,0.0
1802,-1.7970950920638171,-0.2377957217322288,69.06819799581122,0.0
1803,-1.8200606006145585,-0.2636916566495095,69.32712503763086,0.0
1804,-1.8562818456294077,-0.29964510570008585,69.59201927528682,0.0
1805,-1.9051151751483222,-0.34467618893093865,69.86260611667531,0.0
1806,-1.9633559423640168,-0.3960635166178438,70.13860251914113,0.0
1807,-2.025690613159564,-0.4497617158537758,70.41971637075847,0.0
1808,-2.0856410058751402,-0.5010658109532963,70.70564588293468,0.0
1809,-2.136802717342205,-0.5454030205749917,70.99607899594045,0.0
1810,-2.174092873067566,-0.5791047921718941,71.2906927992272,0.0
1811,-2.194716328880277,-0.6000135513539401,71.58915296865685,0.0
