,PPG_Raw,PPG_Clean,PPG_Rate,PPG_Peaks
0,-0.9917477316649184,-0.15283549514339403,115.41235874008173,0.0
1,-1.02401345416457,-0.1746232002772682,115.41235874008173,0.0
2,-1.057231198450785,-0.1984818128129826,115.41235874008173,0.0
3,-1.0928188657590656,-0.2262917665382128,115.41235874008173,0.0
4,-1.1322393721652162,-0.2596011232118298,115.41235874008173,0.0
5,-1.17688900004341,-0.2994341791102708,115.41235874008173,0.0
6,-1.2278654349642992,-0.34610076881909063,115.41235874008173,0.0
7,-1.285633625865941,-0.3990393776725564,115.41235874008173,0.0
8,-1.3496639994330746,-0.45673778346981764,115.41235874008173,0.0
9,-1.4181665150690745,-0.5167737701580638,115.41235874008173,0.0
10,-1.4880559760574994,-0.5760033024981632,115.41235874008173,0.0
11,-1.5552373978681517,-0.6308961916820743,115.41235874008173,0.0
12,-1.615201881978319,-0.6779854233597099,115.41235874008173,0.0
13,-1.6638118889063704,-0.714364294139338,115.41235874008173,0.0
14,-1.6980803289955677,-0.7381439978461755,115.41235874008173,0.0
15,-1.7167431922579188,-0.7487798667310499,115.41235874008173,0.0
16,-1.720488360258433,-0.7471896565833566,115.41235874008173,0.0
17,-1.711801642943926,-0.7356199998148073,115.41235874008173,0.0
18,-1.6944833553712544,-0.7172614464912399,115.41235874008173,0.0
19,-1.672945485847608,-0.695660063580473,115.41235874008173,0.0
20,-1.6514145342640865,-0.6740156043097967,115.41235874008173,0.0
21,-1.6331522361345774,-0.6544851201153539,115.41235874008173,0.0
22,-1.6197866889337804,-0.6376209756056079,115.41235874008173,0.0
23,-1.610835073317743,-0.6220605586134149,115.41235874008173,0.0
24,-1.6034989533676605,-0.604551506416042,115.41235874008173,0.0
25,-1.592814411636106,-0.5803442106168719,115.41235874008173,0.0
26,-1.5722238290874273,-0.5439194534761942,115.41235874008173,0.0
27,-1.5345843255213611,-0.4899533887380166,115.41235874008173,0.0
28,-1.473530626517932,-0.41436723198903885,115.41235874008173,0.0
29,-1.3849823111309636,-0.3152777716591825,115.41235874008173,0.0
30,-1.2684706374684833,-0.19366713494853308,115.41235874008173,0.0
31,-1.1279176410047296,-0.053629965079357855,115.41235874008173,0.0
32,-0.9715758537238404,0.09787145325187047,115.41235874008173,0.0
33,-0.8110332997237073,0.25172210740609047,115.41235874008173,0.0
34,-0.6594516154286251,0.39772648115983544,115.41235874008173,0.0
35,-0.5294409261458177,0.525856589528482,115.41235874008173,0.0
36,-0.4310893916185373,0.627464005775204,115.41235874008173,0.0
37,-0.3706101796583774,0.6962590308446922,115.41235874008173,0.0
38,-0.34986662890318476,0.7289153933327617,115.41235874008173,1.0
39,-0.3667676775138502,0.7252390606308715,115.68546707728191,0.0
40,-0.41628821917277653,0.6879240636245297,115.96385301768953,0.0
41,-0.4917391286338705,0.6219866895955157,116.24753678173192,0.0
42,-0.5859207419927538,0.5340084857748388,116.5365394179868,0.0
43,-0.6919217318373984,0.43132438829048414,116.83088279907327,0.0
44,-0.8035104169951327,0.3212704926372298,117.13058961772633,0.0
45,-0.915227804712353,0.21056824355363934,117.43568338304426,0.0
46,-1.0223677701372058,0.10488135095287898,117.7461884168969,0.0
47,-1.121001842987175,0.008548853927999686,118.06212985048424,0.0
48,-1.2081078716825164,-0.07552263256435107,118.38353362103364,0.0
49,-1.2817561108985944,-0.14583294297935678,118.71042646862453,0.0
50,-1.3412477708477586,-0.20215493821103672,119.04283593312964,0.0
51,-1.3871097521592763,-0.245318229759397,119.38079035126081,0.0
52,-1.4209076657456663,-0.27693420583797235,119.72431885370798,0.0
53,-1.4449095387808943,-0.2990885377449086,120.07345136236061,0.0
54,-1.461680024744853,-0.31403070106500447,120.42821858759827,0.0
55,-1.4736937811452302,-0.3238923117887219,120.78865202564022,0.0
56,-1.483033093613053,-0.3304648158924277,121.15478395594067,0.0
57,-1.4911978685705511,-0.33506079583822007,121.52664743861807,0.0
58,-1.4990250847501057,-0.3384717565931574,121.90427631190627,0.0
59,-1.50670033647264,-0.3410199535589768,122.28770518961402,0.0
60,-1.5138456101158548,-0.34268491654142713,122.67696945858117,0.0
61,-1.5196752643587998,-0.3432698339509199,123.0721052761171,0.0
62,-1.523213187929355,-0.3425623003185992,123.47314956740914,0.0
63,-1.5235493850457078,-0.3404414213217051,123.8801400228864,0.0
64,-1.5200860485589995,-0.33689144009547134,124.29311509552531,0.0
65,-1.5126961377404675,-0.3319016862667705,124.71211399808249,0.0
66,-1.501711595551382,-0.3252618675441124,125.13717670023992,0.0
67,-1.4876876509021346,-0.31629543621652545,125.56834392564767,0.0
68,-1.4709539134679173,-0.3036040297046193,126.00565714884789,0.0
69,-1.45104696181042,-0.2849134842786174,126.44915859206489,0.0
70,-1.426197469444174,-0.2571084244590602,126.89889122184407,0.0
71,-1.3930879644526155,-0.21651370046484536,127.35489874552312,0.0
72,-1.3470775952376635,-0.1594291549322404,127.8172256075179,0.0
73,-1.2829923655480764,-0.08285886642911365,128.2859169854049,0.0
74,-1.1964127724446607,0.01468726304304338,128.76101878578166,0.0
75,-1.085198184895445,0.13248484143828804,129.24257763988606,0.0
76,-0.9508372769585454,0.2671520646192774,129.73064089895476,0.0
77,-0.79917681694187,0.41260987352746425,130.22525662929957,0.0
78,-0.6401967123925526,0.5605080189937577,130.726473607082,0.0
79,-0.4867510069272632,0.7010821578837569,131.23434131276275,0.0
80,-0.3525068479806478,0.8243102369371812,131.7489099252043,0.0
81,-0.2495760223500708,0.9211659915289907,132.270230315403,0.0
82,-0.18644638690143225,0.9847428377224352,132.79835403982682,0.0
83,-0.16673730757746705,1.0110498525636653,133.33333333333334,1.0
84,-0.18905191761281537,0.99935519886076,133.89642318990406,0.0
85,-0.24786871002344898,0.9520510017249496,134.5074497011503,0.0
86,-0.33512047233341946,0.8741108278948927,135.16431774681664,0.0
87,-0.4419487832005512,0.7722819863174634,135.86491166453732,0.0
88,-0.5601452721807553,0.6541844717054939,136.60707743864913,0.0
89,-0.6829749405089584,0.5274742316687739,137.3886052619093,0.0
90,-0.8053384389744721,0.3991808363838154,138.2072124278443,0.0
91,-0.9234606237150846,0.2752669020307916,139.06052653663932,0.0
92,-1.034408241141075,0.16039854411649046,139.94606902306577,0.0
93,-1.1357164061018221,0.05787769523145969,140.86123904124244,0.0
94,-1.225278803427852,-0.03032532087784859,141.80329776825488,0.0
95,-1.3015003359217308,-0.10348972197626652,142.76935321694708,0.0
96,-1.363589983805049,-0.16203862294022703,143.75634567758217,0.0
97,-1.4118241481547429,-0.20740864388358166,144.76103393845125,0.0
98,-1.4476390569228452,-0.24187447778902976,145.77998246668258,0.0
99,-1.4734883503057683,-0.2683029299441283,146.80954976209492,0.0
100,-1.4924884636776607,-0.2898205931504941,147.84587812841585,0.0
101,-1.5079335958712252,-0.3094005018174449,148.8848851368388,0.0
102,-1.522776007886699,-0.3293999265428801,149.92225708579943,0.0
103,-1.5391428363907371,-0.35110718320341333,150.95344478689816,0.0
104,-1.5579239484711063,-0.3743735809910291,151.97366202875313,0.0
105,-1.578447656788867,-0.3974121891361602,152.97788708670768,0.0
106,-1.5982785668105655,-0.4168343738124393,153.96086765503298,0.0
107,-1.6132131157888372,-0.42796676325757993,154.9171295777202,0.0
108,-1.6175787722320056,-0.42544734931613726,155.8409897422195,0.0
109,-1.6049246399914023,-0.4040456922021886,156.72657347563052,0.0
110,-1.5691072736358187,-0.35959849229060603,157.56783674305967,0.0
111,-1.505641869184368,-0.28991059414855197,158.35859339153322,0.0
112,-1.4130505909965465,-0.1954551037910098,159.09254760876692,0.0
113,-1.2938544740323015,-0.07972319498492526,159.76333167355764,0.0
114,-1.1548726835446597,0.05087444127438431,160.3645489635823,0.0
115,-1.0066324233999893,0.18757450542444815,160.8898220578522,0.0
116,-0.86192736911543,0.3202275758308486,161.3328456268677,0.0
117,-0.7338181073965362,0.4385161923870247,161.68744364667796,0.0
118,-0.6335480287124926,0.5332260543854617,161.94763030778884,0.0
119,-0.5688762376358113,0.5973623072428055,162.1076738215882,0.0
120,-0.5431891606232873,0.6269360038213345,162.16216216216216,1.0
121,-0.5555006466438338,0.6213123421880411,162.07913513773101,0.0
122,-0.6011901257448741,0.5830951201711525,161.83428169554375,0.0
123,-0.6731613033524418,0.5176014939180514,161.43461561745377,0.0
124,-0.7630800866968638,0.4320412988165862,160.88794254115555,0.0
125,-0.8624480036303668,0.3345467616482788,160.20272567137428,0.0
126,-0.9634124242878872,0.23320051442103873,159.38795027095952,0.0
127,-1.0593292124116627,0.13518812114185308,158.45299020110082,0.0
128,-1.145136894497044,0.046164949507206274,157.40747938156352,0.0
129,-1.21758331928016,-0.030114605461255467,156.26119058005457,0.0
130,-1.2753048272122947,-0.0918976055123226,155.02392344497608,0.0
131,-1.3187323187180298,-0.13928863945129696,153.70540319560175,0.0
132,-1.3498064714839808,-0.17391269437556517,152.31519090170593,0.0
133,-1.3715210217899427,-0.1984520170237656,150.86260583954692,0.0
134,-1.387358995720133,-0.21613054144517266,149.35666001630017,0.0
135,-1.4007195229069427,-0.2302164845336841,147.80600461893766,0.0
136,-1.414437363561786,-0.24360226322396,146.2188878699699,0.0
137,-1.4304715899952976,-0.2585028236636929,144.6031235613607,0.0
138,-1.449794110528516,-0.27629168323089026,142.966069386199,0.0
139,-1.4724593978818667,-0.2974720438626602,141.3146140900702,0.0
140,-1.4977998684396736,-0.321761796429708,139.6551724137931,0.0
141,-1.524676484258263,-0.34825883512334405,137.99368678882942,0.0
142,-1.5517213746997198,-0.3756481359874194,136.33563476861656,0.0
143,-1.577530530217591,-0.40241418190789724,134.68604122598384,0.0
144,-1.6007896116438516,-0.427029812220782,133.04949441192124,0.0
145,-1.6203377558205272,-0.44810293860572253,131.43016504829757,0.0
146,-1.6351898693657834,-0.4644732640988164,129.83182771156177,0.0
147,-1.6445446046116174,-0.47526023069992285,128.25788385179803,0.0
148,-1.6477999863095953,-0.4798699119818779,126.71138587840713,0.0
149,-1.6445826451602124,-0.4779724022756944,125.19506182761994,0.0
150,-1.6347786442980856,-0.46946297474210597,123.71134020618557,0.0
151,-1.6185458449778725,-0.4544205310680274,122.2623746787075,0.0
152,-1.5962945220051867,-0.4330759546634352,120.85006833250776,0.0
153,-1.568637964266517,-0.40580069942895636,119.47609731328127,0.0
154,-1.5363270364208501,-0.37312173244336055,118.14193367716042,0.0
155,-1.5001870084184863,-0.33576231489168373,116.84886735038883,0.0
156,-1.4610742242083372,-0.2946991797693784,115.59802712700372,0.0
157,-1.4198677802041288,-0.2512166158493075,114.3904006682659,0.0
158,-1.3775048756900414,-0.20692913285726527,113.22685349563446,0.0
159,-1.3350526081546956,-0.1637399796845492,112.1081469924654,0.0
160,-1.2937841804448145,-0.1237061653226805,111.03495544893762,0.0
161,-1.2552035454844734,-0.0887941607340019,110.00788220057187,0.0
162,-1.2209530629708398,-0.06053430246656369,109.02747492368078,0.0
163,-1.192553136285947,-0.03961308687085768,108.09424016171435,0.0
164,-1.1709630253665262,-0.025474671768801943,107.20865716524429,0.0
165,-1.1560140088717847,-0.016027076590617417,106.3711911357341,0.0
166,-1.1458392209722377,-0.007555283642695754,105.58230596970179,0.0
167,-1.1364884333500789,0.0050746276998109435,104.84247660580897,0.0
168,-1.1219410887511665,0.027881227321026075,104.1522010831829,0.0
169,-1.0946880746331575,0.06693120819024004,103.51201242527526,0.0
170,-1.0469301251236527,0.12730449982770145,102.92249047013978,0.0
171,-0.9722560882433355,0.21203170243170621,102.38427377554807,0.0
172,-0.8674668087233365,0.3212122397252251,101.8980717362425,0.0
173,-0.7340703345873058,0.45151498211651664,101.46467706126353,0.0
174,-0.5789611729599726,0.5962067435511403,101.08497877215446,0.0
175,-0.41394912443833687,0.7457559614044874,100.75997589846256,0.0
176,-0.25410128161262,0.8889398250324264,100.49079206594182,0.0
177,-0.11521659316478207,1.0142720665758451,100.27869119594874,0.0
178,-0.011038679319785897,1.111494745360965,100.1250945625893,0.0
179,0.04908340419881955,1.1728612955464475,100.03159948829513,0.0
180,0.06150102738549943,1.193985308025702,100.0,1.0
181,0.02826406842836289,1.1741280439090502,100.02022694579041,0.0
182,-0.04407591982629634,1.115921482080984,100.0799062914739,0.0
183,-0.1464155221733255,1.024640372287703,100.17760037717474,0.0
184,-0.2691961802436514,0.9072171562623659,100.31194863049832,0.0
185,-0.4040824884227871,0.7712202116032929,100.48165697197523,0.0
186,-0.5448650758297918,0.6239871598881035,100.68548793245871,0.0
187,-0.687516209245813,0.4720347141253605,100.92225138055623,0.0
188,-0.8295872833502388,0.3207784232446689,101.190795771494,0.0
189,-0.9693004485865548,0.1745155293091356,101.4899998404768,0.0
190,-1.104719681137776,0.03657225184677257,101.81876467391402,0.0
191,-1.2332967553567158,-0.09049734445721175,102.1760061011009,0.0
192,-1.3519141411342208,-0.2047528143844573,102.56064735728967,0.0
193,-1.4573523516389641,-0.30479743260968784,102.97161197674592,0.0
194,-1.5469622384787667,-0.3897960355430194,103.40781688152738,0.0
195,-1.6192722927770025,-0.459540914676138,103.86816563848352,0.0
196,-1.6743158973044765,-0.5145079080015043,104.35154186347788,0.0
197,-1.7135894050647154,-0.5558496063050137,104.85680275818761,0.0
198,-1.7396897287602227,-0.5852953075494576,105.38277277112567,0.0
199,-1.7557743734659423,-0.6049585187201909,105.92823738083827,0.0
200,-1.7650097871810615,-0.6170820446181056,106.49193700561815,0.0
201,-1.7701334873744228,-0.6237698927716095,107.07256105059214,0.0
202,-1.7731850679278955,-0.6267602333008031,107.66874210972408,0.0
203,-1.775398916538454,-0.6272845199792275,108.27905034714648,0.0
204,-1.7772207991300701,-0.626037840039095,108.90198808929438,0.0
205,-1.7784125455990147,-0.6232596466817739,109.53598466655357,0.0
206,-1.7782273702688518,-0.6188978315705114,110.1793915505154,0.0
207,-1.7756506716350573,-0.612807955899648,110.83047784039492,0.0
208,-1.7696922227116716,-0.6049279711446369,111.48742615963675,0.0
209,-1.7596855517002297,-0.5953702943224337,112.14832903109362,0.0
210,-1.7455151732772702,-0.5843891336057888,112.81118580627876,0.0
211,-1.727676174611148,-0.572210252843747,113.47390023089751,0.0
212,-1.7070917432833765,-0.5587483483721696,114.13427873495318,0.0
213,-1.6846746604665672,-0.5432760448696419,114.79002954096848,0.0
214,-1.6607040787282983,-0.5241382031555628,115.43876268800472,0.0
215,-1.6341751979913346,-0.49861584634998835,116.0779910719064,0.0
216,-1.6023402349166942,-0.46302860791628603,116.70513260323649,0.0
217,-1.5606677715457715,-0.41312201715484087,117.31751358337215,0.0
218,-1.5033818487248072,-0.34472245540897484,117.9123733958603,0.0
219,-1.4245967488945528,-0.254571700047709,118.4868706040595,0.0
220,-1.3198660770603605,-0.14119260245157744,119.03809053700155,0.0
221,-1.1877794102080501,-0.005605474813485473,119.5630544330136,0.0
222,-1.031145497089795,0.1482765281959217,120.05873019472128,0.0
223,-0.8573545634931348,0.3136931374837502,120.52204478945212,0.0
224,-0.6777159767814496,0.48155907867469505,120.94989830571731,0.0
225,-0.5058608079235856,0.6413994941779271,121.33917964942965,0.0
226,-0.35557952192595127,0.7825482663192064,121.68678383301146,0.0
227,-0.23863098873182373,0.8954046513276541,121.9896307769149,0.0
228,-0.1630515174338066,0.9725358327232675,122.24468550684401,0.0
229,-0.1323203578452443,1.0094519742014312,122.44897959183673,1.0
230,-0.14546996122169142,1.0049539056503118,122.62638133265978,0.0
231,-0.19796211636268451,0.9610411096775724,122.80262473002828,0.0
232,-0.28297163574966694,0.88244676675853,122.97760241458766,0.0
233,-0.3926765746258547,0.775919709042699,123.1512059665995,0.0
234,-0.5192469599943195,0.6493921029512766,123.32332593477877,0.0
235,-0.6554037518637461,0.5111589435010179,123.49385185722072,0.0
236,-0.7946075545828596,0.36916156681236567,123.66267228445922,0.0
237,-0.9310567270728924,0.23042641986480378,123.82967480469627,0.0
238,-1.059688632627106,0.10067472838054486,123.99474607124165,0.0
239,-1.1763001896060128,-0.015904297176528137,124.15777183219946,0.0
240,-1.2777879106027368,-0.11673364060318286,124.31863696243585,0.0
241,-1.3624131139176845,-0.20079931790307193,124.47722549786083,0.0
242,-1.4299626410312445,-0.26848671087490933,124.63342067205429,0.0
243,-1.4817039253142081,-0.3213175610260964,124.78710495526327,0.0
244,-1.5201036103026089,-0.3616084566693446,124.93816009579567,0.0
245,-1.5483568231731017,-0.3920816814720694,125.08646716383164,0.0
246,-1.569828501402751,-0.41547003535342886,125.23190659767126,0.0
247,-1.5875226931882045,-0.434164033844262,125.37435825243331,0.0
248,-1.6036737941136257,-0.4499488632579978,125.5137014512163,0.0
249,-1.6195128145751132,-0.46386778296230824,125.64981503872949,0.0
250,-1.635222143137875,-0.476229036576555,125.78257743739657,0.0
251,-1.6500654701346233,-0.4867478280957714,125.91186670593174,0.0
252,-1.6626642751560232,-0.49478829698368665,126.0375606003818,0.0
253,-1.671378871332454,-0.49964824374035666,126.15953663762465,0.0
254,-1.6747326536072513,-0.5008169593162428,126.27767216130889,0.0
255,-1.6717959577379307,-0.4981379723036632,126.39184441021382,0.0
256,-1.6624344576810655,-0.4918256113496669,126.50193058900494,0.0
257,-1.6473402381024347,-0.48231560076020885,126.60780794135341,0.0
258,-1.6278043516105805,-0.46997056303346707,126.70935382538288,0.0
259,-1.6052479777315118,-0.4547032563152605,126.80644579140163,0.0
260,-1.5805916540747698,-0.43561371846504116,126.89896166187091,0.0
261,-1.5535988532805403,-0.41075149294090607,126.98677961355567,0.0
262,-1.5223732612399163,-0.3771037248705705,127.0697782617964,0.0
263,-1.48320365208792,-0.33087216384274787,127.14783674683571,0.0
264,-1.4309145820136568,-0.2680417007671546,127.22083482212555,0.0
265,-1.3597801399304925,-0.18517152603803916,127.28865294453591,0.0
266,-1.2649008942670161,-0.08027388106080717,127.35117236637794,0.0
267,-1.1437713365753022,0.046397412704795,127.4082752291492,0.0
268,-0.9976375479789162,0.19183154926238977,127.4598446589008,0.0
269,-0.8322216239923095,0.35016263755743793,127.50576486312113,0.0
270,-0.6575030561116266,0.5130557076110364,127.5459212290225,0.0
271,-0.48648437789715765,0.6705439346941998,127.5802004231128,0.0
272,-0.333163920435055,0.8121860955206821,127.6084904919254,0.0
273,-0.21019212170872678,0.928341834402475,127.63068096377636,0.0
274,-0.12680200996192936,1.011336426703898,127.6466629514101,0.0
275,-0.08752867292640865,1.0563132220898108,127.65632925539032,0.0
276,-0.0919889939957385,1.0616433403894812,127.65957446808511,1.0
277,-0.1356699957191386,1.028858870452871,127.64239062233636,0.0
278,-0.21138982741886042,0.9621721112755753,127.59174162208812,0.0
279,-0.3109480946160853,0.8677153784611529,127.50901758209038,0.0
280,-0.42651015405111453,0.7526683476209723,127.39565142051553,0.0
281,-0.5514400125987546,0.6244300258104754,127.25311197881238,0.0
282,-0.6805266673535163,0.4899494120527182,127.08289734016545,0.0
283,-0.8097501697107117,0.35526971550703873,126.88652839002656,0.0
284,-0.935845735393435,0.22528431415279737,126.66554265653885,0.0
285,-1.0559279666218713,0.10366294932601976,126.42148846300002,0.0
286,-1.167350262425382,-0.007109445829299815,126.15591941890958,0.0
287,-1.2678383832031181,-0.10563335602033097,125.87038927070274,0.0
288,-1.3558045239744985,-0.19146796170349467,125.56644712806369,0.0
289,-1.43066790832799,-0.2649888946949917,125.24563307679765,0.0
290,-1.49300776671734,-0.3272273337275153,124.90947418467337,0.0
291,-1.544449123762804,-0.3796833639778123,124.55948090246089,0.0
292,-1.5872935909217754,-0.4241128519373873,124.19714385861197,0.0
293,-1.6240049400086414,-0.4622989302338312,123.82393104267568,0.0
294,-1.6567030843447696,-0.4958303178146889,123.44128536961618,0.0
295,-1.6868004391895237,-0.5259140546654851,123.05062261469935,0.0
296,-1.7148511086382,-0.5532476538177118,122.6533297065326,0.0
297,-1.7406092324226314,-0.5779662750779766,122.25076336415894,0.0
298,-1.7632365551984868,-0.5996677413774564,121.84424906280422,0.0
299,-1.7815745549389141,-0.6175061745288413,121.43508031193,0.0
300,-1.7944027556946702,-0.6303369146374959,121.0245182286286,0.0
301,-1.8006326043099972,-0.6368924482932637,120.6137913890809,0.0
302,-1.7994217608308267,-0.635970444294422,120.20409594075583,0.0
303,-1.7902230383346658,-0.6266183540004984,119.7965959582318,0.0
304,-1.7727966222621823,-0.6083016798629823,119.39242402593733,0.0
305,-1.7472134386262181,-0.5810430293767723,118.99268203171363,0.0
306,-1.7138685875449242,-0.5455161299153899,118.59844215587229,0.0
307,-1.6735133716250923,-0.5030746319889271,118.21074804132749,0.0
308,-1.6273029215034274,-0.45569285470108134,117.83061613141133,0.0
309,-1.5768394579354483,-0.4057983480355052,117.45903716310615,0.0
310,-1.5241685586214089,-0.3559873500120484,117.09697780463651,0.0
311,-1.4716673284372275,-0.3086349734883866,116.74538242764139,0.0
312,-1.4217656585951792,-0.26544020201649043,116.40517500548297,0.0
313,-1.3764770292222408,-0.22697589369850268,116.07726113062994,0.0
314,-1.3367820737430047,-0.19233750035260314,115.76253014547976,0.0
315,-1.3019897943067709,-0.1589916382605373,115.4618573824473,0.0
316,-1.2692713060599605,-0.12290938170139898,115.17610651064732,0.0
317,-1.2335891576738969,-0.07902650333231032,114.90613198803524,0.0
318,-1.1882046260445231,-0.022008394273861448,114.65278161945184,0.0
319,-1.1258224070883114,0.05277667418977583,114.41689922264158,0.0
320,-1.0402410289565522,0.14823790782537172,114.19932740600015,0.0
321,-0.9281691699502365,0.2646956768237581,114.00091046355408,0.0
322,-0.7907222296723172,0.39936311775351774,113.82249739450965,0.0
323,-0.6341075476359044,0.5463171529347405,113.66494505663701,0.0
324,-0.46917652560044537,0.6970074275433326,113.5291214648053,0.0
325,-0.3098337578278145,0.8412391888406201,113.41590924817656,0.0
326,-0.17064579373985697,0.9684621250148917,113.32620928192937,0.0
327,-0.06425402711257527,1.0691291562014236,113.26094451194858,0.0
328,0.0007360741161387008,1.1358757803165627,113.22106399372636,0.0
329,0.02087098375977953,1.1643155916603498,113.20754716981132,1.0
330,-0.0022329120295838363,1.1533384851810784,113.2116164638163,0.0
331,-0.06301381257010961,1.1049098026099242,113.22370313072017,0.0
332,-0.15369678517980334,1.0234714527526938,113.24362778605854,0.0
333,-0.2660836805331136,0.9151142516126782,113.27121409505204,0.0
334,-0.39291881299372794,0.7867102808214985,113.30628852827398,0.0
335,-0.5285568647027536,0.6451656306125112,113.34868012556531,0.0
336,-0.6689215693200814,0.4968914159719853,113.39822026772593,0.0
337,-0.8109661189521932,0.3475162075974824,113.45474245554574,0.0
338,-0.9519632276760676,0.20179834646079672,113.5180820957722,0.0
339,-1.088945115685156,0.06365828382923353,113.58807629364047,0.0
340,-1.2185050938380775,-0.06375470561561786,113.66456365162358,0.0
341,-1.3370123176761792,-0.17802470864953462,113.74738407408555,0.0
342,-1.4411356781164224,-0.27748508135003574,113.83637857754806,0.0
343,-1.5284695836016977,-0.3612734934550056,113.93138910630618,0.0
344,-1.598031864773547,-0.4293842178876327,114.03225835315172,0.0
345,-1.6504626940540585,-0.48266792950980464,114.13882958498719,0.0
346,-1.6878651927679253,-0.5227411239718401,114.25094647313345,0.0
347,-1.7133475409830559,-0.5517929070016779,114.36845292815705,0.0
348,-1.7304091670648396,-0.5723070250555002,114.49119293906253,0.0
349,-1.742336588360122,-0.5867421910033277,114.6190104167141,0.0
350,-1.7517414532385427,-0.5972272242375524,114.75174904137187,0.0
351,-1.7603081029037777,-0.6053265660017245,114.88925211424414,0.0
352,-1.7687499834514375,-0.6119176643453028,115.03136241297646,0.0
353,-1.7769261205840123,-0.6171987319804906,115.17792205101472,0.0
354,-1.7840507671765535,-0.6208189085845358,115.3287723407972,0.0
355,-1.7889389524614419,-0.622098198809161,115.48375366074599,0.0
356,-1.7902558147037768,-0.620286006597707,115.64270532604505,0.0
357,-1.7867604134275943,-0.6147977014777368,115.80546546320784,0.0
358,-1.7775388196365298,-0.6053703228910261,115.97187088845217,0.0
359,-1.7622013601640034,-0.5920919995404517,116.14175698991573,0.0
360,-1.7409871227690248,-0.5752842452702662,116.31495761376011,0.0
361,-1.7147009601156789,-0.5552493112116317,116.49130495422558,0.0
362,-1.6844283659499435,-0.5319310733236235,116.67062944771325,0.0
363,-1.651037147794347,-0.5045700080547083,116.85275967098436,0.0
364,-1.614562687537335,-0.47145190851546437,117.03752224358092,0.0
365,-1.573651766146853,-0.4298482519991983,117.22474173458471,0.0
366,-1.525275971538348,-0.3762192115118895,117.41424057384346,0.0
367,-1.4649000536702765,-0.30669972698123815,117.60583896780773,0.0
368,-1.3871994803783403,-0.217823230341103,117.79935482013171,0.0
369,-1.2872770308181334,-0.10737094115424989,117.99460365720454,0.0
370,-1.1621607847996325,0.024815546434932056,118.19139855878909,0.0
371,-1.012224209477027,0.17623865852711768,118.38955009395652,0.0
372,-0.842110967012293,0.3415230862291959,118.58886626251432,0.0
373,-0.6608162698145364,0.5126609559100405,118.78915244213651,0.0
374,-0.4807758406258392,0.6797250699145375,118.9902113414123,0.0
375,-0.3160908088916138,0.8319524127214808,119.19184295903915,0.0
376,-0.18027859646113556,0.9590187222434465,119.39384454939312,0.0
377,-0.08408958575597264,1.0522821536006464,119.59601059471684,0.0
378,-0.033912278210349193,1.1057811709577476,119.7981327841708,0.0
379,-0.03111553792829306,1.1168267236525438,120.0,1.0
380,-0.07240928841438544,1.0861166272994538,120.21496642122662,0.0
381,-0.15103121248977552,1.0173976615236575,120.45577966068093,0.0
382,-0.2583660440100084,0.916783581144688,120.72132566084628,0.0
383,-0.38553074578026003,0.7918861330000271,121.0104983283485,0.0
384,-0.524532174817115,0.6509232494870085,121.32219463903601,0.0
385,-0.6687971087935072,0.5019381770053487,121.65530994607438,0.0
386,-0.8131162108034307,0.3522096155008882,122.00873347630261,0.0
387,-0.9532403761276977,0.20787471188162873,122.38134400380265,0.0
388,-1.0854460902815388,0.07374080280798476,122.77200569317331,0.0
389,-1.2063267257868273,-0.04676200685483212,123.17956410840762,0.0
390,-1.312910611884418,-0.15153631330540873,123.60284238657961,0.0
391,-1.4030312279746757,-0.23971512503297682,124.04063757877115,0.0
392,-1.4757542088726765,-0.31151683455556384,124.49171716382928,0.0
393,-1.5316413495603665,-0.36805916338987454,124.95481574364837,0.0
394,-1.5727010521620042,-0.41113204222539357,125.42863193171928,0.0
395,-1.6019994896700729,-0.4429386121847633,125.91182544967893,0.0
396,-1.6230332098415594,-0.46582787558579036,126.40301444951643,0.0
397,-1.6390447361519553,-0.4820537691658598,126.90077308192691,0.0
398,-1.6524736551939563,-0.4935965648073914,127.40362933403162,0.0
399,-1.6646806685495843,-0.5020705639352917,127.91006316226742,0.0
400,-1.6759879093035919,-0.5087193357023503,128.41850494865457,0.0
401,-1.685981935068093,-0.5144730673524458,128.92733431083167,0.0
402,-1.6939566438634999,-0.5200210051036784,129.43487929815032,0.0
403,-1.69934563812749,-0.5258437866437367,129.93941600768872,0.0
404,-1.7020046185054127,-0.5321605297598271,130.4391686552081,0.0
405,-1.7022444968300439,-0.5387734105824906,130.93231013677087,0.0
406,-1.7005770381652934,-0.5448320960377817,131.41696311688548,0.0
407,-1.6972110178207038,-0.5485813042364299,131.89120167856885,0.0
408,-1.6914181998430653,-0.5471844871900908,132.3530535695399,0.0
409,-1.6809570563144882,-0.5367239762234759,132.80050307680412,0.0
410,-1.6617754140875503,-0.5124563529528795,133.23149455908452,0.0
411,-1.6281912037050263,-0.46935199495399615,133.64393666283473,0.0
412,-1.5736626548910757,-0.4028786193657981,134.03570724287732,0.0
413,-1.4921100080155347,-0.30991618059109005,134.4046590030063,0.0
414,-1.3795661227613838,-0.18963421296706023,134.74862586515007,0.0
415,-1.235765531266687,-0.044140593268978054,135.06543006790832,0.0
416,-1.0652006907593348,0.12126648757223663,135.35288998647616,0.0
417,-0.8772405883856612,0.2983444294679404,135.60882865620442,0.0
418,-0.6851326969060465,0.4766529168303246,135.8310829713958,0.0
419,-0.5040356995068694,0.6446983224888388,136.01751351952683,0.0
420,-0.34854073785772366,0.7912859473676565,136.16601499906676,0.0
421,-0.2303090713862295,0.9068454563872994,136.2745271566303,0.0
422,-0.156413536960615,0.9845037319432867,136.34104616657822,0.0
423,-0.12873837607861663,1.0207385474159079,136.36363636363637,1.0
424,-0.14446181985386378,1.0155388842502937,136.32278542793574,0.0
425,-0.1973412741966137,0.9720980638079788,136.202211520353,0.0
426,-0.27933991392000834,0.8961485713279452,136.0050775228942,0.0
427,-0.3821183560652167,0.7950943133517706,135.7347775960533,0.0
428,-0.49804990743681565,0.6771009713438949,135.39490179690765,0.0
429,-0.6206419373312722,0.5502745625198351,134.98920086393088,0.0
430,-0.7444741340357168,0.42200773252753276,134.52155168118725,0.0
431,-0.8649141338373195,0.29852099328079684,133.99592387708105,0.0
432,-0.9778929951633182,0.1845869791471639,133.41634794983545,0.0
433,-1.0799229742254937,0.08340701605855966,132.78688524590163,0.0
434,-1.1683752012758974,-0.0033906600017532262,132.11160005088743,0.0
435,-1.2418838529687426,-0.07565089422159546,131.39453398738613,0.0
436,-1.3006683822584266,-0.13449843850017734,130.63968285200943,0.0
437,-1.3465875777384484,-0.1820567304360455,129.85097596634776,0.0
438,-1.382838047913513,-0.22109097601143474,129.03225806451613,0.0
439,-1.4133388556307012,-0.2546031172799007,128.1872736940724,0.0
440,-1.4419531054779242,-0.28542272024462234,127.31965406778436,0.0
441,-1.4717497088452693,-0.31584775732881304,126.43290627107216,0.0
442,-1.504491255253885,-0.34738714147029226,125.53040470382574,0.0
443,-1.540458517907936,-0.38064141964407694,124.61538461538463,0.0
444,-1.5786185980699559,-0.4153326013620212,123.69093757730684,0.0
445,-1.6170488340041556,-0.450465352280213,122.76000872960063,0.0
446,-1.6534723636944038,-0.4845773785959384,121.82539563173238,0.0
447,-1.685756206097348,-0.5160229392082502,120.88974854932303,0.0
448,-1.7122612978445884,-0.5432329877988682,119.95557201036654,0.0
449,-1.7319949748625991,-0.5649075975174954,119.0252274704347,0.0
450,-1.7445770834858154,-0.5801170158893445,118.10093693409966,0.0
451,-1.7500757248048675,-0.5883111883629321,117.18478738918081,0.0
452,-1.748790815455564,-0.5892581450603267,116.27873592094197,0.0
453,-1.741061712357187,-0.5829449946129528,115.3846153846154,0.0
454,-1.727151453512727,-0.569479392183637,114.50414052626671,0.0
455,-1.7072234263012989,-0.5490245257258812,113.63891445374755,0.0
456,-1.6813919002098352,-0.5217889170309316,112.79043537108053,0.0
457,-1.6498106465840159,-0.4880765802192679,111.96010350089568,0.0
458,-1.6127677368612718,-0.44838635621354983,111.14922813036021,0.0
459,-1.5707700626495797,-0.4035342437225048,110.3590347263096,0.0
460,-1.524613776844704,-0.3547615416873407,109.5906720749438,0.0
461,-1.4754386480691852,-0.3037865599169982,108.84521941046205,0.0
462,-1.4247567904517922,-0.25276025207590563,108.12369350537016,0.0
463,-1.3744351244306825,-0.204097632830278,107.42705570291777,0.0
464,-1.32660082797772,-0.16017752211730335,106.75621887924423,0.0
465,-1.2834344588081616,-0.12293155799750805,106.11205432937183,0.0
466,-1.246824152960052,-0.09337574309142761,105.49539857724479,0.0
467,-1.2178847726331534,-0.07116778316259764,104.9070601156309,0.0
468,-1.1963987003209882,-0.054293113781840874,104.34782608695653,0.0
469,-1.1802976584628477,-0.038983633001685725,103.8184689211082,0.0
470,-1.1653555521588417,-0.019949857521440267,103.31975295099073,0.0
471,-1.1452776626884826,0.009041595030257976,102.85244103126716,0.0
472,-1.1123325062689664,0.05428200358404764,102.41730119031665,0.0
473,-1.0585681588896325,0.12103875126618557,102.01511335012596,0.0
474,-0.9774899769894064,0.21245570813010295,101.64667615368977,0.0
475,-0.8658853525795268,0.3286492018885601,101.31281394464568,0.0
476,-0.7253300227972809,0.4662038512792235,101.01438394943796,0.0
477,-0.5628799431104928,0.6182137215550252,100.75228371843096,0.0
478,-0.39059662809025225,0.7749137917100857,100.52745888923363,0.0
479,-0.22385836487405036,0.924825468270025,100.34091134323035,0.0
480,-0.07878129970343911,1.05622700771116,100.19370783514796,0.0
481,0.0306272388600767,1.1586847744819078,100.0869891856626,0.0
482,0.09485741476242254,1.22436531122158,100.02198013884532,0.0
483,0.11023599628665005,1.2488969121324902,100.0,1.0
484,0.07894158765581494,1.2316507779683028,100.00630202492415,0.0
485,0.007803050963003628,1.1754394460257869,100.02490902131848,0.0
486,-0.09369212709498795,1.0857508833558809,100.05537868308124,0.0
487,-0.21558279410693246,0.9697202881261127,100.09727626459144,0.0
488,-0.34922942141618,0.835069728482245,100.15017355500724,0.0
489,-0.48831633902464844,0.6892160433733876,100.21364790095502,0.0
490,-0.6289403191061678,0.5386736544923953,100.2872812744842,0.0
491,-0.7689570876448458,0.38878563853942083,100.37065938353493,0.0
492,-0.906962692050019,0.24373097120858894,100.46337082251182,0.0
493,-1.0413437151620355,0.10670029600113234,100.5650062608802,0.0
494,-1.1697365734236949,-0.01988233413414825,100.67515766800403,0.0
495,-1.2890432960206017,-0.13419092034210128,100.79341757272995,0.0
496,-1.395937143120525,-0.23493294090763123,100.91937835648956,0.0
497,-1.487628155640559,-0.32138475487597207,101.05263157894737,0.0
498,-1.5625911844231106,-0.3934798261517788,101.19276733546148,0.0
499,-1.62099719276315,-0.45188264976421844,101.33937364585387,0.0
500,-1.6647092948095126,-0.49798730668771485,101.49203587420449,0.0
501,-1.6968601259104545,-0.5338059453470184,101.65033617959214,0.0
502,-1.7211603843383136,-0.5617480816083124,101.8138529979013,0.0
503,-1.7411552478685803,-0.5843241923370731,101.98216055500495,0.0
504,-1.759629832304177,-0.60382729686651,102.15482841181166,0.0
505,-1.7782842584977847,-0.6220500413861618,102.3314210418363,0.0
506,-1.7976939672908587,-0.6400838169171422,102.51149744211585,0.0
507,-1.8174855107512728,-0.6582263006160823,102.69461077844309,0.0
508,-1.836619145609246,-0.6760016212651663,102.88030806603425,0.0
509,-1.8536785566031606,-0.692279133186049,103.06812988687797,0.0
510,-1.8671067369712586,-0.7054658183755544,103.25761014513547,0.0
511,-1.8753717930420888,-0.7137437775387192,103.44827586206895,0.0
512,-1.8770795980160533,-0.7153258807639304,103.63964701207445,0.0
513,-1.8710637564357535,-0.7087061795109487,103.83123640147572,0.0
514,-1.8564776160762686,-0.6928843093513564,104.02254959180594,0.0
515,-1.8328953784324251,-0.6675434702303065,104.21308486935385,0.0
516,-1.8004111908141949,-0.6331601407371485,104.40233326278693,0.0
517,-1.759715547270897,-0.5910225498436175,104.58977861067878,0.0
518,-1.7121275386175498,-0.5431370470577759,104.77489768076397,0.0
519,-1.6595619055140554,-0.492009697871029,104.95716034271726,0.0
520,-1.6044058956960374,-0.44030630367759643,105.13602979620475,0.0
521,-1.5492774050410183,-0.39041709625764054,105.31096285588183,0.0
522,-1.4966453002618896,-0.3439793904469752,105.48141029491259,0.0
523,-1.4483241636419997,-0.30143666478042436,105.64681724845994,0.0
524,-1.4049061162588328,-0.26172829612498455,105.80662367844143,0.0
525,-1.365248336787765,-0.2222029091081002,105.96026490066225,0.0
526,-1.3261780616763221,-0.1788247624062831,106.1071721752244,0.0
527,-1.2825873127080487,-0.126696246760511,106.24677336086731,0.0
528,-1.2280473508669605,-0.06085621106456415,106.37849363362125,0.0
529,-1.1559650275192384,0.0227543482335002,106.501756269851,0.0
530,-1.061138906126437,0.12632411896541085,106.6159834934316,0.0
531,-0.941395372314027,0.24939335750362074,106.72059738643433,0.0
532,-0.7988649978008123,0.38844488388519627,106.81502086230876,0.0
533,-0.6404672173353396,0.5369856779201905,106.8986787001266,0.0
534,-0.47733689171203847,0.6861478516420685,106.97099863801047,0.0
535,-0.32321369193416155,0.8257298602739356,107.03141252340336,0.0
536,-0.19212897942717977,0.9455019903780302,107.07935751735104,0.0
537,-0.09594929024870674,1.0365397958314782,107.11427734946813,0.0
538,-0.04238725988755191,1.0923420578371206,107.13562361974792,0.0
539,-0.033954258864845197,1.1095388768242906,107.14285714285714,1.0
540,-0.06805637543736195,1.0880882648484076,107.12188684441963,0.0
541,-0.13811814011557297,1.030971842458816,107.05973808267484,0.0
542,-0.2353524833795556,0.9435028663551202,106.95762141305875,0.0
543,-0.3506554185838958,0.8324273211935072,106.81683005436179,0.0
544,-0.476125571245286,0.7050164498070939,106.63873082695902,0.0
545,-0.6058773503881244,0.5683166106602328,106.42475501577825,0.0
546,-0.7360691044430738,0.4286532613440087,106.17638925104727,0.0
547,-0.8643148692749935,0.2914027364317663,105.89516649355359,0.0
548,-0.9888111082072436,0.16097281258325652,105.58265720390628,0.0
549,-1.1075476986867654,0.04089008101862432,105.24046076733934,0.0
550,-1.2178908626302178,-0.06611221087216068,104.87019723715474,0.0
551,-1.3166652058381725,-0.15808101458031643,104.47349945118667,0.0
552,-1.4006801959537745,-0.2339266329994088,104.05200556686954,0.0
553,-1.4675006138319175,-0.2935663850935119,103.60735205178865,0.0
554,-1.5161914634736509,-0.3380500955044875,103.14116715814065,0.0
555,-1.5477876058031772,-0.36957328838975295,102.6550649014631,0.0
556,-1.5653287943109309,-0.3913005649232258,102.15063955641536,0.0
557,-1.5734239727515391,-0.4069658610657365,101.6294606753956,0.0
558,-1.5774244762593501,-0.42027648048015387,101.0930686294166,0.0
559,-1.582366930780013,-0.4342084241043816,100.54297066498307,0.0
560,-1.5918854140403391,-0.45032595728063657,99.98063746572986,0.0
561,-1.6072963284609307,-0.4682763201979753,99.40750020330216,0.0
562,-1.6270397221999353,-0.4855946613591372,98.82494805836865,0.0
563,-1.646621955722929,-0.4979055363133214,98.23432618973678,0.0
564,-1.6591423984334663,-0.49953378135104387,97.63693412724783,0.0
565,-1.65639563663935,-0.48445334915429256,97.03402456242691,0.0
566,-1.630423550373443,-0.4474254229339726,96.4268025097018,0.0
567,-1.5752663534653955,-0.3851245359023954,95.81642481033215,0.0
568,-1.4885607370602798,-0.2970373462987274,95.20399995095353,0.0
569,-1.3725976064867145,-0.18594937757269203,94.59058816878537,0.0
570,-1.23451763356076,-0.05790663272058033,93.97720181602453,0.0
571,-1.0855010089631087,0.07836241018941506,93.36480595669578,0.0
572,-0.9390659556335853,0.21247473218487828,92.7543191702086,0.0
573,-0.8088507714072445,0.33369492074341883,92.14661453703134,0.0
574,-0.7064173888510082,0.4322876583833938,91.54252078319665,0.0
575,-0.6396058881810459,0.5006965084066235,90.94282356175985,0.0
576,-0.6117811939768769,0.534370408630441,90.34826685081025,0.0
577,-0.6220170867614174,0.5321365456102227,89.75955444915478,0.0
578,-0.6659805607000472,0.496106675219589,89.17735155233036,0.0
579,-0.7371245380863806,0.4311824994737158,88.6022863931311,0.0
580,-0.8278168983652858,0.34427918158110743,88.0349519323438,0.0
581,-0.9301903805646056,0.24340845015426787,87.4759075868554,0.0
582,-1.0366935524497591,0.13675701739357393,86.925680983714,0.0
583,-1.1404580618766091,0.03187110976212237,86.38476973008734,0.0
584,-1.2356215121880545,-0.06497585611727719,85.85364319035807,0.0
585,-1.3176740980603083,-0.14918989948616568,85.33274426282205,0.0
586,-1.3837909000843271,-0.21802580545597244,84.82249114961083,0.0
587,-1.4330367288539523,-0.27053405780952167,84.3232791145422,0.0
588,-1.4663261243335044,-0.3073227275857302,83.83548222461363,0.0
589,-1.4860866656789347,-0.3301898348839692,83.35945507179335,0.0
590,-1.4956744679446912,-0.34169370197046983,82.89553447263737,0.0
591,-1.4986786025235241,-0.34473164443141174,82.44404114407001,0.0
592,-1.4982883744720583,-0.3421884466924601,82.00528135441385,0.0
593,-1.4968719129119543,-0.3366951461238577,81.57954854944946,0.0
594,-1.49584145043089,-0.3305088060158328,81.16712495392866,0.0
595,-1.4957911243224935,-0.3254915616564741,80.76828314956316,0.0
596,-1.4968185102872853,-0.3231405129829946,80.38328763106935,0.0
597,-1.4989003056506263,-0.32460688188811015,80.01239634237577,0.0
598,-1.5021880010868567,-0.33064838402074803,79.65586219559589,0.0
599,-1.5071128222971264,-0.34148356001532065,79.31393457584502,0.0
600,-1.5142326739797611,-0.35655613011054316,78.98686083543919,0.0
601,-1.5238153469336444,-0.3742617718567363,78.67488778146387,0.0
602,-1.5352311416690894,-0.3917266526451945,78.37826316114804,0.0
603,-1.5463139366181589,-0.4047441540373968,78.0972371499287,0.0
604,-1.552917104055701,-0.40796451900642255,77.83206384755341,0.0
605,-1.5489058454514089,-0.39538926227676296,77.58300278804647,0.0
606,-1.5267640233233006,-0.36115427457996724,77.35032046986993,0.0
607,-1.4788472046826333,-0.3005071330531678,77.13429191314835,0.0
608,-1.3991107658424002,-0.2108152809199601,76.93520225140679,0.0
609,-1.2849390603336157,-0.09240306937551328,76.7533483659057,0.0
610,-1.1385742127703573,0.050977822230113046,76.58904057134943,0.0
611,-0.9676605160524334,0.21218430643966074,76.44260436251705,0.0
612,-0.7846117954793694,0.3812684278653946,76.31438223221826,0.0
613,-0.6048356131517393,0.5465454612061211,76.204735571937,0.0
614,-0.44420362881426706,0.6959716702020666,76.11404666759928,0.0
615,-0.3164064255079614,0.8185943231893011,76.04272080411567,0.0
616,-0.2308700575427197,0.9058253586234235,75.99118849371715,0.0
617,-0.19172024671442697,0.9523349788370973,75.95990784465633,0.0
618,-0.19793413306987806,0.9564485590054291,75.94936708860759,1.0
619,-0.24445546255339215,0.9200347711492464,75.99710495161969,0.0
620,-0.32380170522596546,0.847967096748139,76.1377952750423,0.0
621,-0.42763623650493726,0.7473030856511574,76.36812074082734,0.0
622,-0.5479083444388164,0.6263458201525366,76.68532033285145,0.0
623,-0.6774046712524835,0.49373350734493293,77.08711513720237,0.0
624,-0.8098051021604223,0.3576597802264029,77.57164363778448,0.0
625,-0.9395018512520155,0.22527720461313555,78.13740435760192,0.0
626,-1.0614703629813846,0.10229524938112672,78.78320404050127,0.0
627,-1.1713784471607376,-0.007240124537144316,79.50810982720236,0.0
628,-1.2659432204452763,-0.10100545209034859,80.31140407248958,0.0
629,-1.3433805438449729,-0.17831509170714832,81.19254059218653,0.0
630,-1.4037147319270897,-0.2399076706691579,82.15110123044094,0.0
631,-1.4487570447121767,-0.287621849780647,83.18675170911308,0.0
632,-1.481691902280009,-0.3239912129163781,84.2991957694832,0.0
633,-1.5063633927988622,-0.35180413687580786,85.4881266490765,0.0
634,-1.5264628924928825,-0.3736878213763587,86.75317495993168,0.0
635,-1.5448425632417533,-0.39177897262962635,88.09385205614353,0.0
636,-1.5631214673526141,-0.4075326326610352,89.5094880057286,0.0
637,-1.5816451583212237,-0.42169571262725336,90.9991633236506,0.0
638,-1.5997513559130758,-0.43443786717163707,92.56163368955666,0.0
639,-1.6162208100408288,-0.44559731683027975,94.19524697761176,0.0
640,-1.6297704248745248,-0.4549715616440996,95.89785208104915,0.0
641,-1.6394691031881194,-0.4625695210449164,97.666699237119,0.0
642,-1.6450031419996027,-0.46874633661370885,99.49833186747313,0.0
643,-1.6467611434246845,-0.4741651324638219,101.38847036461833,0.0
644,-1.6457322354391566,-0.4795681936793644,103.3318887973113,0.0
645,-1.6432182556897952,-0.485387033935203,105.322286195759,0.0
646,-1.6403681566363872,-0.4912680771381593,107.3521549263889,0.0
647,-1.6375710343401833,-0.49562815953481965,109.4126496832086,0.0
648,-1.6337994014698942,-0.49537174043157317,111.49346180316584,0.0
649,-1.6260625315626644,-0.48589157400686606,113.58270493238737,0.0
650,-1.6091806382577618,-0.4614331038820477,115.66681947873664,0.0
651,-1.5760897935635196,-0.4158332371465205,117.7305047004994,0.0
652,-1.5188088738166472,-0.34355764127131727,119.75668857807028,0.0
653,-1.4300378727785794,-0.2408755937814714,121.72654662844738,0.0
654,-1.3051380110253539,-0.1069497141609143,123.61958134168451,0.0
655,-1.1440328845926648,0.05540023858111828,125.41377370102411,0.0
656,-0.9524580400905382,0.2394630648992303,127.08581703686777,0.0
657,-0.742055504515143,0.4350438680869465,128.61144101974583,0.0
658,-0.5290818161075647,0.6294985423532705,129.96582974298022,0.0
659,-0.3319037915232716,0.8092443043232089,131.12413252422888,0.0
660,-0.1678510443415776,0.9614868131585561,132.06205938553643,0.0
661,-0.050220994127483244,1.0758515526541943,132.75654549864862,0.0
662,0.013802624861039819,1.1456253148384188,133.1864608015255,0.0
663,0.023838195713370407,1.1683988313373221,133.33333333333334,1.0
664,-0.01446038483864244,1.1460315828368066,133.2863638769074,0.0
665,-0.09128370692551348,1.0840007023062812,133.14733472569282,0.0
666,-0.19505537824905803,0.9903123405514758,132.91933391463388,0.0
667,-0.31466580362891045,0.8742193187291362,132.60577618973903,0.0
668,-0.4410296409701619,0.7449925483595914,132.21036137498774,0.0
669,-0.5677247931974401,0.610942235529133,131.73703180658896,0.0
670,-0.6907874322584088,0.47879876281316996,131.18992958890712,0.0
671,-0.8079818596423455,0.3534691077641432,130.57335436950675,0.0
672,-0.917956576195184,0.23810721966734427,129.89172226032377,0.0
673,-1.0196239252260608,0.13439150490808166,129.14952645173634,0.0
674,-1.1119161848988548,0.04289317025841033,128.3512999799962,0.0
675,-1.1938721947418802,-0.03656123411115067,127.50158101960464,0.0
676,-1.2648814212307806,-0.10459422601930599,126.60488098390935,0.0
677,-1.3248938089526645,-0.16207236272820008,125.66565563216713,0.0
678,-1.374474672545654,-0.20998604716683283,124.68827930174565,0.0
679,-1.4146900388432395,-0.24939191630812452,123.67702231170126,0.0
680,-1.4468922699312634,-0.2813911461721405,122.63603151982198,0.0
681,-1.4725050294935733,-0.3071208037779223,121.56931396004744,0.0
682,-1.4928809422982574,-0.32774274198471554,120.48072344122933,0.0
683,-1.509251130359527,-0.34442194473266247,119.37394995136617,0.0
684,-1.5227371900319047,-0.3582919959275071,118.25251168334816,0.0
685,-1.5343757901039916,-0.3704093065307684,117.1197494782532,0.0
686,-1.54511635035457,-0.3817004534930727,115.97882346957782,0.0
687,-1.5557793162260836,-0.3929089710671009,114.83271170558731,0.0
688,-1.5669880231430415,-0.4045492578017829,113.68421052631578,0.0
689,-1.5790994240460299,-0.41687558884104564,112.53593647571458,0.0
690,-1.5921575086499618,-0.42987312678241535,111.39032953715089,0.0
691,-1.6058850524585675,-0.4432751265027242,110.24965749106407,0.0
692,-1.6197210387469065,-0.4566065064897301,109.11602120633502,0.0
693,-1.632903545549719,-0.4692493536695492,107.9913606911447,0.0
694,-1.6445880713922394,-0.4805217807020339,106.87746174420218,0.0
695,-1.6539792024350748,-0.48975891632639823,105.77596306272031,0.0
696,-1.660445444162869,-0.49638442302046226,104.68836367900035,0.0
697,-1.6635901810326754,-0.499962976791337,103.6160306126271,0.0
698,-1.6632662930020101,-0.5002281216925493,102.56020663982375,0.0
699,-1.6595398892046802,-0.4970847914185406,101.52201809528452,0.0
700,-1.652620738275228,-0.490590298979745,100.50248263465994,0.0
701,-1.6427804494379248,-0.4809206133868624,99.50251689773854,0.0
702,-1.630277756672621,-0.46832964290331497,98.52294402320413,0.0
703,-1.6153069790493546,-0.4531080764613468,97.56450097564502,0.0
704,-1.5979804069876529,-0.4355458015167081,96.62784565426641,0.0
705,-1.5783459355528755,-0.41589916173884345,95.71356376054763,0.0
706,-1.5564292369312795,-0.3943625678838275,94.82217540894345,0.0
707,-1.5322809068624408,-0.3710441196150346,93.95414147071777,0.0
708,-1.5060083587933595,-0.3459471199408894,93.1098696461825,0.0
709,-1.4777794138299958,-0.3189629541040718,92.28972026507249,0.0
710,-1.4477951410112695,-0.28988422325900504,91.4940118185865,0.0
711,-1.4162402816565371,-0.25844827331088993,90.72302622984135,0.0
712,-1.3832303223859133,-0.2244184863379385,89.97701387218945,0.0
713,-1.3487838696357675,-0.18770290082679333,89.25619834710744,0.0
714,-1.312851655263404,-0.14849737090336299,88.5607810352401,0.0
715,-1.2754217696808603,-0.10742585521762943,87.89094543573857,0.0
716,-1.2366931175822118,-0.06563750654356204,87.24686131032118,0.0
717,-1.1972741882890934,-0.02481391298283181,86.6286886495627,0.0
718,-1.158336147961187,0.012955308058958975,86.03658147982922,0.0
719,-1.1216393115954215,0.0454516350985206,85.47069153006973,0.0
720,-1.0893643197363057,0.07075251486568696,84.93117177839079,0.0
721,-1.063712590197743,0.08775228227162996,84.41817989901836,0.0
722,-1.046292221270671,0.09668856319675523,83.93188163092952,0.0
723,-1.0373719646489374,0.09955370669710861,83.47245409015025,0.0
724,-1.0351587138754923,0.10026310987425302,83.04008904850082,0.0
725,-1.0353152117309015,0.10447497266409952,82.63499620246284,0.0
726,-1.0309567994327622,0.11901092917613126,82.25740645687738,0.0
727,-1.013318966726463,0.15090752266341712,81.90757524939949,0.0
728,-0.9731528487995295,0.2062192477490542,81.58578594307127,0.0
729,-0.9026943930292387,0.2887731655430058,81.29235331607768,0.0
730,-0.797816531116033,0.39911990113053375,81.02762717976323,0.0
731,-0.659799965514176,0.5339185214275792,80.79199615837051,0.0
732,-0.4961406413322475,0.6859274578351494,80.58589166677412,0.0
733,-0.3200026367121071,0.8446598680844019,80.40979212579666,0.0
734,-0.1482931795130324,0.9976240141602697,80.26422745859438,0.0
735,0.0012378029218817511,1.1319409146396227,80.14978391618257,0.0
736,0.11315144774430431,1.2360461290060933,80.06710928555466,0.0
737,0.17692099051498192,1.301163299972637,80.01691854016897,0.0
738,0.18835622989348838,1.3222897506678613,80.0,1.0
739,0.14959521430415756,1.2985452031179205,80.03699626780609,0.0
740,0.06781690101754803,1.232874288135478,80.14609966084008,0.0
741,-0.0468537330263292,1.1312259869002907,80.32475045594494,0.0
742,-0.18362964126644912,1.0014262750821405,80.57070919009651,0.0
743,-0.33295453493306615,0.8519943873457563,80.8820141517196,0.0
744,-0.48761348069487637,0.6911257578513015,81.25694334232661,0.0
745,-0.6429424644218981,0.5259896884223763,81.69397998869793,0.0
746,-0.7962883705439531,0.3623920638802653,82.19178082191782,0.0
747,-0.9460588510349542,0.20476094134017164,82.74914644740298,0.0
748,-1.0907598607387148,0.056348549741187026,83.36499321573949,0.0
749,-1.2283482975483537,-0.08048066841755736,84.03832607253503,0.0
750,-1.3560706996153247,-0.20399050034440758,84.76821192052981,0.0
751,-1.4707769140374731,-0.3129124341947499,85.55375307215117,0.0
752,-1.5695458424716973,-0.40640035229904636,86.39406040834692,0.0
753,-1.6503768190783665,-0.484069910984103,87.28822589238146,0.0
754,-1.712700562999852,-0.5460658618025606,88.23529411764706,0.0
755,-1.7575403881350473,-0.5930995412389575,89.23423259867106,0.0
756,-1.787278829575634,-0.6264189963516004,90.28390054664081,0.0
757,-1.8051149782237337,-0.6477055052050699,91.38301590724863,0.0
758,-1.8143910698852994,-0.6589200155627104,92.53012048192771,0.0
759,-1.8179947292321346,-0.6621405896968305,93.72354300620096,0.0
760,-1.8180010691285768,-0.6594318021543503,94.96136012364761,0.0
761,-1.8156264308551322,-0.6527702126353438,96.24135527377251,0.0
762,-1.8114581757594435,-0.6440232866172845,97.5609756097561,0.0
763,-1.8058389417054894,-0.6349524524377068,98.91728718051922,0.0
764,-1.799243938765302,-0.6271942734980794,100.30692875334684,0.0
765,-1.7925033157567767,-0.622173731504288,101.72606482056378,0.0
766,-1.7867785231695306,-0.6209219855891233,103.1703385276733,0.0
767,-1.7832801518279962,-0.6238037522455634,104.63482548089615,0.0
768,-1.7827893839069813,-0.6301982035347152,106.11398963730569,0.0
769,-1.785096566042681,-0.6382112251167942,107.60164274643385,0.0
770,-1.7884927486293043,-0.6445155348024372,109.09090909090911,0.0
771,-1.7894501992206067,-0.6444109142556838,110.57419755419377,0.0
772,-1.7826149401870781,-0.6321668793506071,112.04318331023416,0.0
773,-1.7612076592955406,-0.6016577139823001,113.48880166243362,0.0
774,-1.7178767068130039,-0.5472341254931321,114.90125673249553,0.0
775,-1.64595635742275,-0.4647107981237789,116.27004778350761,0.0
776,-1.540960289334353,-0.35230091851399614,117.58401592283549,0.0
777,-1.4020153630011731,-0.2113118602218511,118.8314137340799,0.0
778,-1.2328644421603134,-0.04643950118667192,120.00000000000003,0.0
779,-1.0420890714422977,0.13443812692755136,121.07716107164325,0.0
780,-0.842348294893857,0.3209747663220694,122.05005959475568,0.0
781,-0.6486782446237677,0.50148260568181,122.90581022014625,0.0
782,-0.47617728498055867,0.6642901116665918,123.63168061815841,0.0
783,-0.3376122695276301,0.7990999312116832,124.21531463229722,0.0
784,-0.24153403120912956,0.8981170323616984,124.6449728150613,0.0
785,-0.19135175461565615,0.9567695010324324,124.90978398983485,0.0
786,-0.18552892505460755,0.9739340515473139,125.0,1.0
787,-0.21873034256895205,0.9516817212073141,124.99679049995069,0.0
788,-0.2834902076463418,0.894649849814221,124.9873400329053,0.0
789,-0.37187444042025164,0.8092027728820534,124.97191693041295,0.0
790,-0.47669859213976445,0.7025553266127595,124.95079102541591,0.0
791,-0.5920853462845066,0.5820033520414898,124.92423340129689,0.0
792,-0.7134052856842199,0.45434823418851356,124.89251615177038,0.0
793,-0.8368423994541552,0.3255381405842831,124.8559121519141,0.0
794,-0.9589011792735728,0.20049592111975387,124.81469484059514,0.0
795,-1.0761192392603216,0.0830747194516214,124.76913801450473,0.0
796,-1.185108592137038,-0.023920124987109354,124.71951563397772,0.0
797,-1.2828846172248274,-0.11868640154998902,124.6661016407357,0.0
798,-1.3673183270516043,-0.20037411693914658,124.60916978765952,0.0
799,-1.4375065345587872,-0.2690207321753726,124.54899348066317,0.0
800,-1.493901691252843,-0.3254520854624825,124.48584563271231,0.0
801,-1.5381479278137988,-0.3711299026059937,124.41999853000198,0.0
802,-1.5726808919100252,-0.4079398312436998,124.35172371028251,0.0
803,-1.6002195714422704,-0.4379325774128823,124.2812918533,0.0
804,-1.623287598715336,-0.4630480606619197,124.20897268329557,0.0
805,-1.6438605491974496,-0.4848630933819443,124.13503488348987,0.0
806,-1.663175413354523,-0.5044042050125725,124.05974602246206,0.0
807,-1.6816890120229022,-0.5220589176946838,123.98337249231882,0.0
808,-1.699148053808826,-0.5376030857746399,123.90617945853646,0.0
809,-1.714732120028167,-0.5503418797389588,123.82843082134961,0.0
810,-1.72724160812688,-0.5593408908695505,123.7503891885524,0.0
811,-1.7353159368357498,-0.5637048108677684,123.67231585957195,0.0
812,-1.7376758228125246,-0.5628472492364072,123.59447082067146,0.0
813,-1.7333802764634216,-0.5566894858396361,123.51711275113742,0.0
814,-1.7220698911078474,-0.5457310493336085,123.4404990403071,0.0
815,-1.7041382320280603,-0.5309527803377969,123.36488581529433,0.0
816,-1.680750042125833,-0.5135433543740595,123.29052797927571,0.0
817,-1.6536299080594152,-0.4944799824923676,123.21767926020588,0.0
818,-1.6245892113623661,-0.474036523931353,123.1465922698383,0.0
819,-1.5948360615555697,-0.4513278459207742,123.07751857293725,0.0
820,-1.5642021893248088,-0.4240170100205444,123.01070876657845,0.0
821,-1.5304971968191756,-0.38830244172342454,122.9464125694486,0.0
822,-1.489237989849358,-0.33926127959649777,122.8848789210689,0.0
823,-1.4339735623931418,-0.2715558907672999,122.82635609088359,0.0
824,-1.357313906153751,-0.18042506543564976,122.77109179717257,0.0
825,-1.2525821121985024,-0.06279888094157918,122.71933333576722,0.0
826,-1.1157840794245453,0.08168102489802825,122.67132771856849,0.0
827,-0.9474069930970933,0.24996664789216166,122.62732182189026,0.0
828,-0.7534982889176473,0.43542309673377866,122.58756254467477,0.0
829,-0.5455928024702124,0.6282582778156279,122.55229697665307,0.0
830,-0.3393385803444775,0.8165335332015553,122.52177257655119,0.0
831,-0.15204442589335226,0.987598067985507,122.49623736047259,0.0
832,0.00028940340405491857,1.1296921590962485,122.47594010061887,0.0
833,0.10571604682679935,1.2334229407973623,122.4611305345433,0.0
834,0.1581710118303722,1.2928441247704543,122.45205958516866,0.0
835,0.1579603900498419,1.3059608357149977,122.44897959183673,1.0
836,0.11087545951360843,1.274609244528592,122.44897959183673,0.0
837,0.026286260715942075,1.203794046585505,122.44897959183673,0.0
838,-0.08517877754504788,1.100671005957381,122.44897959183673,0.0
839,-0.21371113755896548,0.9734123396843919,122.44897959183673,0.0
840,-0.35165942892276947,0.8301814418498563,122.44897959183673,0.0
841,-0.4939183064668701,0.6783797009566651,122.44897959183673,0.0
842,-0.6374770972856704,0.5242348147758706,122.44897959183673,0.0
843,-0.7804699278481179,0.3727056267896799,122.44897959183673,0.0
844,-0.9211604871583932,0.22760854053021118,122.44897959183673,0.0
845,-1.057238146930318,0.09184029898503276,122.44897959183673,0.0
846,-1.185637476656762,-0.03241676551580733,122.44897959183673,0.0
847,-1.3028845455486069,-0.14357838186067656,122.44897959183673,0.0
848,-1.405789961431713,-0.24064652748207666,122.44897959183673,0.0
849,-1.49220586830376,-0.32326808995803796,122.44897959183673,0.0
850,-1.5615678815607825,-0.3918008548763854,122.44897959183673,0.0
851,-1.6150410852105692,-0.4473213801477174,122.44897959183673,0.0
852,-1.6552374978790545,-0.49153093146324756,122.44897959183673,0.0
853,-1.6856132577369063,-0.5265513992925188,122.44897959183673,0.0
854,-1.7097395183395678,-0.5546402766771324,122.44897959183673,0.0
855,-1.730650701680813,-0.5778808979656503,122.44897959183673,0.0
856,-1.750416985188416,-0.5979141579390562,122.44897959183673,0.0
857,-1.769996569824181,-0.6157694344610447,122.44897959183673,0.0
858,-1.7893357415036437,-0.6318290500163948,122.44897959183673,0.0
859,-1.807630183088875,-0.6459291154615772,122.44897959183673,0.0
860,-1.8236501294681622,-0.6575677081958465,122.44897959183673,0.0
861,-1.8360562533498799,-0.6661658433013402,122.44897959183673,0.0
862,-1.8436708914949254,-0.6713124813053034,122.44897959183673,0.0
863,-1.8456957898048179,-0.6729246004118754,122.44897959183673,0.0
864,-1.841867754790965,-0.6712678360313619,122.44897959183673,0.0
865,-1.8325208295366306,-0.6668110950882072,122.44897959183673,0.0
866,-1.818499343541506,-0.659926480449131,122.44897959183673,0.0
867,-1.8008676118866065,-0.6504879547773486,122.44897959183673,0.0
868,-1.7804049614545343,-0.6374601666118459,122.44897959183673,0.0
869,-1.7569535104512477,-0.6185929774898656,122.44897959183673,0.0
870,-1.728776387070855,-0.5903381803384995,122.44897959183673,0.0
871,-1.6921526894706327,-0.5480767334993215,122.44897959183673,0.0
872,-1.6414490550724858,-0.4866878361983889,122.44897959183673,0.0
873,-1.5698394317169007,-0.40141370817751576,122.44897959183673,0.0
874,-1.470685946177385,-0.2888921838247116,122.44897959183673,0.0
875,-1.3393706549632147,-0.14816420232001967,122.44897959183673,0.0
876,-1.175148758116875,0.01856453931892979,122.44897959183673,0.0
877,-0.9824723162992206,0.20560557330897689,122.44897959183673,0.0
878,-0.771287280519692,0.40403629342977143,122.44897959183673,0.0
879,-0.5560518795141906,0.6025251508833149,122.44897959183673,0.0
880,-0.35359469999743576,0.7886180018847315,122.44897959183673,0.0
881,-0.18029677297798025,0.9502645044197737,122.44897959183673,0.0
882,-0.04930558286695293,1.077305928490904,122.44897959183673,0.0
883,0.031514553146609066,1.1626527295938442,122.44897959183673,0.0
884,0.060416883222789375,1.2029506020491634,122.44897959183673,1.0
885,0.04127381364490287,1.1986488854336752,122.44767959959773,0.0
886,-0.01800007945769732,1.1535145854946225,122.44380431070404,0.0
887,-0.1075817219867103,1.0737454769514407,122.43739099362026,0.0
888,-0.2178153758715013,0.9669002402134405,122.42847722005867,0.0
889,-0.34071157595130536,0.8408699339375523,122.4171008496028,0.0
890,-0.4705889213356059,0.7030676626012147,122.4033000144748,0.0
891,-0.6038728738392708,0.5599306244284459,122.38711310445652,0.0
892,-0.7383158646123182,0.4167370320838104,122.36857875197288,0.0
893,-0.8720342308219394,0.2776652759213838,122.34773581734625,0.0
894,-1.0027448289294223,0.14598182102850824,122.32462337423055,0.0
895,-1.127452829147837,0.024243280008383383,122.29928069523231,0.0
896,-1.2426498018958978,-0.08556972004333036,122.27174723772696,0.0
897,-1.3448953569052486,-0.18201909515976739,122.24206262987731,0.0
898,-1.431534695181556,-0.26425853985548364,122.21026665686105,0.0
899,-1.5012821086445929,-0.3321132256559884,122.17639924731402,0.0
900,-1.5544748491826437,-0.3861270478790785,122.1405004599953,0.0
901,-1.5929357355110898,-0.42752739839319465,122.10261047067999,0.0
902,-1.6195192576859496,-0.4580866813659616,122.06276955928537,0.0
903,-1.6375031001110836,-0.47989434687502575,122.02101809723533,0.0
904,-1.6500011667058332,-0.4950821292545149,121.9773965350681,0.0
905,-1.6595267572987802,-0.5055606320458246,121.93194539029176,0.0
906,-1.6677606994919536,-0.5128242812832581,121.88470523549171,0.0
907,-1.6755156167450052,-0.5178654501639322,121.83571668669384,0.0
908,-1.6828531755911287,-0.5212120633050958,121.78502039198705,0.0
909,-1.689303319936381,-0.5230727080400008,121.73265702040842,0.0
910,-1.6941388624953346,-0.5235458653328594,121.67866725109376,0.0
911,-1.6966632195516083,-0.5228310809693488,121.62309176269629,0.0
912,-1.6964692909637011,-0.5213739492081717,121.56597122307576,0.0
913,-1.693624315475252,-0.5198859348867348,121.5073462792599,0.0
914,-1.688731597967102,-0.5192042283379453,121.4472575476804,0.0
915,-1.6828208882238425,-0.5199932037792365,121.38574560468426,0.0
916,-1.6770346276194947,-0.5223319097786268,121.32285097732236,0.0
917,-1.6721164488028328,-0.5252729783987724,121.25861413441574,0.0
918,-1.667771043580209,-0.5264873881921811,121.19307547790068,0.0
919,-1.6620365951081664,-0.5221169340719134,121.12627533445271,0.0
920,-1.6508680260729838,-0.506935212368405,121.05825394739014,0.0
921,-1.6281451540986074,-0.4748671769175087,120.9890514688568,0.0
922,-1.586273210975862,-0.4198431189576727,120.91870795228411,0.0
923,-1.5174234598297922,-0.3368792460557549,120.8472633451316,0.0
924,-1.4152784852002964,-0.22320347779708102,120.77475748190604,0.0
925,-1.276941495815845,-0.07920244978118847,120.70123007745731,0.0
926,-1.1045147603527088,0.09102979816664725,120.62672072055115,0.0
927,-0.905830364979991,0.27970349419982243,120.55126886771659,0.0
928,-0.6939743577723969,0.47596462746796686,120.47491383736765,0.0
929,-0.485560215218051,0.6670793472364877,120.39769480419695,0.0
930,-0.2980812654829198,0.8399842061806493,120.3196507938402,0.0
931,-0.14696690638191398,0.9829319278781281,120.24082067780964,0.0
932,-0.0430695489660567,1.0869383241307367,120.16124316869404,0.0
933,0.008819844980080663,1.1467781883266466,120.08095681562409,0.0
934,0.01013670484752614,1.1613758296243635,120.0,1.0
935,-0.032531762418047845,1.1335641154134055,119.90628979674128,0.0
936,-0.1093671810063694,1.0693119691403516,119.78842418725138,0.0
937,-0.20952167549249326,0.976613927810393,119.64747893592379,0.0
938,-0.32303793639225187,0.8642768201501622,119.48454809336131,0.0
939,-0.44208223290236803,0.7408233777709033,119.30074005542674,0.0
940,-0.5613387125393969,0.6136713587217415,119.09717378284304,0.0
941,-0.6776796686441423,0.4886610099520222,118.87497519765803,0.0
942,-0.7894189606763771,0.36991842998218194,118.63527377022324,0.0
943,-0.8955170422269242,0.259978686339008,118.37919930774217,0.0
944,-0.9950315131144158,0.1600621007859515,118.10787895295094,0.0
945,-1.0869444666290795,0.07040037504346458,117.82243439912197,0.0
946,-1.1703216569180444,-0.009462856863835911,117.52397932536134,0.0
947,-1.244635762991738,-0.0804340129368798,117.21361705410732,0.0
948,-1.3100517470842343,-0.14369601273000082,116.89243843085156,0.0
949,-1.3675223962753809,-0.20057906540096976,116.56151992439936,0.0
950,-1.41864219195699,-0.25244975431629624,116.22192194446617,0.0
951,-1.4653107060867376,-0.3005998071132974,115.87468737207537,0.0
952,-1.5093226643593471,-0.3461302514369454,115.52084029707474,0.0
953,-1.5520118250115271,-0.38984068571950975,115.1613849561224,0.0
954,-1.594036877529958,-0.43214179921870527,114.79730486369817,0.0
955,-1.6353356910935237,-0.4730098479369793,114.4295621280684,0.0
956,-1.6752199536583894,-0.5119954152842855,114.05909694365869,0.0
957,-1.7125553902150368,-0.5482883952745585,113.68682725096069,0.0
958,-1.7459746728999457,-0.5808303153636633,113.3136485549032,0.0
959,-1.7740874309380237,-0.6084568872492383,112.9404338925458,0.0
960,-1.7956683857733646,-0.6300498011270366,112.56803394098971,0.0
961,-1.809812633904187,-0.6446776106420822,112.19727725653559,0.0
962,-1.8160482172403882,-0.6517102408129039,111.8289706363418,0.0
963,-1.8143957811287919,-0.650898527350962,111.46389959413548,0.0
964,-1.805366968685925,-0.6424172194709968,111.10282894189594,0.0
965,-1.7898987301162903,-0.6268750505507057,110.74650346985098,0.0
966,-1.7692308962557848,-0.6052972749064708,110.39564871760045,0.0
967,-1.7447487013731064,-0.579083853711063,110.05097182969294,0.0
968,-1.7178258290779775,-0.5499408752687485,109.71316248952587,0.0
969,-1.6897081895018653,-0.5197758663147128,109.38289392601617,0.0
970,-1.661465743982987,-0.4905426703278411,109.06082398808209,0.0
971,-1.6340082072830886,-0.46402233846943364,108.74759628259325,0.0
972,-1.6081199349559083,-0.441536121696024,108.44384137207565,0.0
973,-1.5844373094080175,-0.423606142298408,108.1501780291004,0.0
974,-1.5632872620228375,-0.409606214609207,107.8672145449394,0.0
975,-1.5443411874163877,-0.39747323897864945,107.5955500907347,0.0
976,-1.5261157709054298,-0.38356919978138176,107.335776130102,0.0
977,-1.5054555172702868,-0.36278486291277023,107.0884778827757,0.0
978,-1.4772253685009478,-0.3289512044236251,106.85423583959955,0.0
979,-1.4344759268302347,-0.2755719934322203,106.63362732988232,0.0
980,-1.3692744308747262,-0.19681797189838465,106.42722814286904,0.0
981,-1.2742118733766474,-0.08864548249688692,106.2356142058344,0.0
982,-1.1443442320600161,0.050158553520270266,106.0593633220878,0.0
983,-0.9790945328148579,0.21722677716198097,105.89905697299646,0.0
984,-0.7835355823246407,0.40635024071118653,105.7552821889906,0.0
985,-0.5685592228418695,0.6078197528229885,105.62863349542147,0.0
986,-0.3497142929752592,0.8093663079620961,105.51971494010692,0.0
987,-0.14488052836827703,0.9975696651331316,105.42914221043411,0.0
988,0.028694051769625882,1.1594987950004698,105.3575448490008,0.0
989,0.1572608019813937,1.2842931582300168,105.30556857798744,0.0
990,0.23263801835340994,1.3644051537905675,105.27387774377071,0.0
991,0.2530165918933631,1.3962992353241297,105.26315789473685,1.0
992,0.22241251972622042,1.3805224076609588,105.28136942411543,0.0
993,0.14904683950638078,1.3211928736476877,105.33503585883403,0.0
994,0.043190499920241904,1.2250651074304204,105.42275421414578,0.0
995,-0.08491562172606747,1.1003946190857805,105.54317969809819,0.0
996,-0.2265702719322597,0.955832503435075,105.69501689951761,0.0
997,-0.3752989340871264,0.7995333911820659,105.8770115340778,0.0
998,-0.526743793723023,0.638579145643408,106.0879426774576,0.0
999,-0.6780035715287371,0.4787301278693624,106.32661542440408,0.0
1000,-0.8267814742128823,0.32444072176822586,106.59185392125907,0.0
1001,-0.970687532887799,0.17903297102671312,106.88249472737314,0.0
1002,-1.1069275357580703,0.04491704743285416,107.19738046798228,0.0
1003,-1.232439090063576,-0.07622615862630056,107.5353537477052,0.0
1004,-1.344364450967167,-0.1833407768033279,107.89525129994327,0.0
1005,-1.440637174250599,-0.27596523642882176,108.27589835323829,0.0
1006,-1.5204410064036857,-0.3542380865498134,108.6761032011458,0.0
1007,-1.5843722712941437,-0.4188917041215304,109.09465196748367,0.0
1008,-1.6342625081940656,-0.47119400219387,109.53030356397788,0.0
1009,-1.6727410967336216,-0.5128209835402557,109.98178484239004,0.0
1010,-1.7026923279484585,-0.5456700488614935,110.44778594821224,0.0
1011,-1.726768538456198,-0.5716460602037595,110.92695588797086,0.0
1012,-1.74707020660474,-0.5924630357037347,111.41789832710737,0.0
1013,-1.7650251828623003,-0.6095020168315266,111.91916764029298,0.0
1014,-1.78142813611947,-0.6237519859646654,112.42926524087287,0.0
1015,-1.7965646274769054,-0.6358400777170605,112.94663622089728,0.0
1016,-1.8103500806658241,-0.6461349088635493,113.46966633783386,0.0
1017,-1.8224502282206434,-0.6548874337992775,113.99667938851785,0.0
1018,-1.8323908141637582,-0.6623611512179712,114.52593501510559,0.0
1019,-1.8396833919136097,-0.6689005963638953,115.05562699166993,0.0
1020,-1.8439760256492093,-0.6748957518234042,115.58388204350898,0.0
1021,-1.8451897090016272,-0.6806209102899867,116.10875925411455,0.0
1022,-1.8435523214726333,-0.6859581383576783,116.62825011693491,0.0
1023,-1.8394291030492678,-0.690053291794468,117.14027929042157,0.0
1024,-1.832896249381988,-0.690988558013586,117.64270611522285,0.0
1025,-1.8231082156725216,-0.685579222978776,118.1333269516138,0.0
1026,-1.8076360617976857,-0.6694031120401917,118.60987839317619,0.0
1027,-1.7820522391888178,-0.6371417335472133,119.07004140919808,0.0
1028,-1.740054465516666,-0.5832524925275456,119.51144646310667,0.0
1029,-1.6743233882878696,-0.5029107604262787,119.93167964734113,0.0
1030,-1.578097904271535,-0.39307729355806,120.32828986630815,0.0
1031,-1.4471804386151628,-0.2534837555583234,120.69879708836257,0.0
1032,-1.2818486232620518,-0.08730872354991684,121.04070167508792,0.0
1033,-1.0880575024232242,0.09864848859123071,121.35149478153193,0.0
1034,-0.8774362503360771,0.2944001121650875,121.62866980456025,0.0
1035,-0.6659026206695108,0.4877873363450438,121.86973483827651,0.0
1036,-0.4711359488862184,0.6659309255941984,122.07222607574147,0.0
1037,-0.30951390531078826,0.8168604846517916,122.23372207531388,0.0
1038,-0.19329294546950945,0.9310219113952484,122.35185878821926,0.0
1039,-0.12873628876317814,1.002386957307476,122.42434522189798,0.0
1040,-0.11560260531538619,1.0289777282386177,122.44897959183673,1.0
1041,-0.1480132365881781,1.0127489075657423,122.41716438543253,0.0
1042,-0.21634771981134446,0.9589072471639826,122.32303933642665,0.0
1043,-0.3095826624100914,0.874856625617706,122.16871915655382,0.0
1044,-0.4174411118581794,0.7690122284544991,121.95648061804557,0.0
1045,-0.5318536440236721,0.6497196978373742,121.6887417218543,0.0
1046,-0.6474925731734514,0.5244525978989418,121.3680407400313,0.0
1047,-0.7614379428438545,0.3993664279277934,120.9970154069533,0.0
1048,-0.8722743718697944,0.27918849541199453,120.57838251072081,0.0
1049,-0.9790340585814366,0.16734699916289092,120.11491810940754,0.0
1050,-1.0803735251218114,0.06620710570463006,119.60943856794141,0.0
1051,-1.174229096519576,-0.022709170204589096,119.06478258122729,0.0
1052,-1.2580002243331514,-0.09859763176447794,118.48379431858116,0.0
1053,-1.32912995490614,-0.161356713518136,117.86930779444876,0.0
1054,-1.3858413449358316,-0.2116384437469414,117.22413254141921,0.0
1055,-1.4277684497335865,-0.2508832372797003,116.55104063429137,0.0
1056,-1.4562771040184774,-0.2812497643929142,115.85275508885198,0.0
1057,-1.4743688354980244,-0.30537758188032355,115.13193963640236,0.0
1058,-1.486164719607682,-0.32597142927439476,114.39118985513562,0.0
1059,-1.4960535392657135,-0.34525750127215893,113.63302562231473,0.0
1060,-1.5076560993206316,-0.36441635122626204,112.85988483685222,0.0
1061,-1.5228079864491713,-0.38312856931014505,112.07411835026899,0.0
1062,-1.5407937655425301,-0.39936739315020686,111.27798603499124,0.0
1063,-1.5580618215981987,-0.40953418038646067,110.47365391234554,0.0
1064,-1.5685893357703657,-0.4089644338969957,109.66319225822625,0.0
1065,-1.564938745130253,-0.3927482703723671,108.84857460199927,0.0
1066,-1.5398647943093782,-0.3567296631671506,108.03167753352656,0.0
1067,-1.488143365213249,-0.2984940029499701,107.21428123399991,0.0
1068,-1.4081696882534651,-0.21813933121495774,106.39807064831892,0.0
1069,-1.302876142044364,-0.1186593524973045,105.58463721980569,0.0
1070,-1.1796701917899457,-0.005840341696464121,104.77548111190306,0.0
1071,-1.049355668787238,0.1123275358913576,103.97201384596016,0.0
1072,-0.9242914976055255,0.22662495062449856,103.17556128909091,0.0
1073,-0.8162593302492935,0.3277890376216362,102.38736693124862,0.0
1074,-0.7345768828369291,0.40770003705816127,101.60859539595556,0.0
1075,-0.6848855492240854,0.46037111258129004,100.84033613445379,0.0
1076,-0.6688043543688723,0.482595667713053,100.0836072583083,0.0
1077,-0.6843702570332881,0.4741821711525865,99.33935947062258,0.0
1078,-0.7269782150304656,0.43778506720058974,98.60848006096285,0.0
1079,-0.7904613119534251,0.3784035336744441,97.89179693378921,0.0
1080,-0.8680202337825418,0.30265681587193427,97.19008264462809,0.0
1081,-0.9528707698991679,0.2179540928150106,96.50405842237528,0.0
1082,-1.0386424446880311,0.13166465532540672,95.83439815997957,0.0
1083,-1.1196553014568296,0.05037094285197121,95.18173235932852,0.0
1084,-1.1911964922103353,-0.02073737549923106,94.54665201943932,0.0
1085,-1.249840230236414,-0.07828938124122187,93.92971246006391,0.0
1086,-1.2937623017816247,-0.12095299309707164,93.3314370755642,0.0
1087,-1.3229467685777758,-0.14943252879603255,92.75232101641402,0.0
1088,-1.3391884177550486,-0.1662373919919902,92.192834797966,0.0
1089,-1.3458447482170506,-0.1752308051099917,91.65342783820115,0.0
1090,-1.3473517455304207,-0.18098952503375357,91.13453192808431,0.0
1091,-1.3485595283010503,-0.18803296103281017,90.63656463990154,0.0
1092,-1.353959552338166,-0.20000888556890775,90.1599326805836,0.0
1093,-1.3668774868243918,-0.21894667754463804,89.70503519854715,0.0
1094,-1.3887146507093755,-0.2447005133134908,89.27226705403947,0.0
1095,-1.4183457163674393,-0.27469747835525604,88.86202206437963,0.0
1096,-1.451812697473621,-0.3040750017653572,88.47469623687624,0.0
1097,-1.4824702609900728,-0.32623840794053494,88.11069100359876,0.0
1098,-1.5017044795371455,-0.3337985135109044,87.77041647361156,0.0
1099,-1.500245777337282,-0.3197727488782806,87.45429471978336,0.0
1100,-1.4699341396012815,-0.2788672818869451,87.16276311888527,0.0
1101,-1.405614881556486,-0.20861904624303843,86.8962777654297,0.0
1102,-1.3067183090247483,-0.1101787323857426,86.65531698161257,0.0
1103,-1.1780755920022108,0.011436212171095334,86.44038494784765,0.0
1104,-1.0296746615156593,0.1477015763411032,86.2520154807699,0.0
1105,-0.875329104013345,0.2875310609120359,86.09077598828696,0.0
1106,-0.7305299959128709,0.4186663370355464,85.95727163433426,0.0
1107,-0.6099683487044709,0.5292872495182259,85.8521497495103,0.0
1108,-0.5252788094300815,0.6095751540193306,85.77610452781131,0.0
1109,-0.48345314326762656,0.6529732773120285,85.72988205434459,0.0
1110,-0.48615974648289806,0.6569476316639672,85.71428571428572,1.0
1111,-0.5299708503008124,0.6231457807121761,85.73419770742439,0.0
1112,-0.607318955662282,0.5569577954345667,85.79299202496684,0.0
1113,-0.7079142217941468,0.4665824708534264,85.88932961552057,0.0
1114,-0.8203469040027674,0.36177479659218126,86.02195964401893,0.0
1115,-0.9336395260972677,0.2524873589232586,86.18970814692639,0.0
1116,-1.038566655290819,0.14761629142121355,86.39146750938178,0.0
1117,-1.128606373405403,0.0540261109448071,86.6261866374827,0.0
1118,-1.2004285276941395,-0.024033067936884145,86.89286171513669,0.0
1119,-1.2538755971504871,-0.08507531612470312,87.19052744886974,0.0
1120,-1.2914642696022511,-0.13012673667596203,87.51824871610556,0.0
1121,-1.3175231555840756,-0.16216111814932072,87.875112543064,0.0
1122,-1.3371576970113794,-0.1853501319898623,88.26022034787522,0.0
1123,-1.355264122808358,-0.20426597810354727,88.67268039301959,0.0
1124,-1.3757818624944038,-0.22316072419613492,89.11160039900942,0.0
1125,-1.401287730178078,-0.24541382942707757,89.5760802785173,0.0
1126,-1.4329292187730036,-0.27319643093159923,90.065204957102,0.0
1127,-1.47060867751346,-0.3073577649026693,90.5780372534372,0.0
1128,-1.5132917577132023,-0.34750396451030463,91.11361079865017,0.0
1129,-1.559325119195532,-0.39221749988122684,91.67092298114854,0.0
1130,-1.606692781776293,-0.43935778964924005,92.24892791026471,0.0
1131,-1.6531936436603094,-0.4863876533100874,92.84652939927828,0.0
1132,-1.6965653431572454,-0.5306818943514096,93.46257397596997,0.0
1133,-1.7346006600337032,-0.5697887149034914,94.09584393689016,0.0
1134,-1.7652970073693441,-0.6016282947566449,94.7450504700429,0.0
1135,-1.7870488169666605,-0.6246239458975897,95.40882687973114,0.0
1136,-1.7988490641205839,-0.6377696011175595,96.08572195689493,0.0
1137,-1.8004328193272008,-0.6406435919189128,96.77419354838712,0.0
1138,-1.792295322505668,-0.6333830468591963,97.47260238923343,0.0
1139,-1.7755557254524943,-0.616635248191693,98.17920627293451,0.0
1140,-1.7516977319803098,-0.5915006174223723,98.89215464616778,0.0
1141,-1.7222693260074164,-0.5594754727490172,99.60948372567707,0.0
1142,-1.6886415345548385,-0.5223914727574057,100.32911224647569,0.0
1143,-1.6519044394284128,-0.48233517810967863,101.04883796146561,0.0
1144,-1.6129261540764275,-0.4415202205359548,101.7663350228612,0.0
1145,-1.572532834842497,-0.40208220185950333,102.47915238500187,0.0
1146,-1.5317038431407695,-0.36577782848301243,103.18471337579618,0.0
1147,-1.491638127787344,-0.33359673426448977,103.88031658964206,0.0
1148,-1.4535581365938706,-0.30533341741503656,104.5631382576529,0.0
1149,-1.4181893799520955,-0.2792082453818547,105.2302362507819,0.0
1150,-1.384980860980163,-0.2516566580174352,105.87855586734923,0.0
1151,-1.3512828679479614,-0.21740979565980303,106.50493754790999,0.0
1152,-1.311821089202747,-0.16995727018841553,107.10612664675057,0.0
1153,-1.2588365104484713,-0.10241232876659098,107.6787853700256,0.0
1154,-1.183148230392771,-0.008702088759946075,108.2195069652024,0.0
1155,-1.076133654341541,0.11509662736872539,108.7248322147651,0.0
1156,-0.9322687945778608,0.2695327194606828,109.19126824893443,0.0
1157,-0.7515577536865681,0.4509492291983065,109.61530964761005,0.0
1158,-0.5410532963976987,0.6512821809838506,109.99346175124477,0.0
1159,-0.31482710132348374,0.8586156447529816,110.32226604464157,0.0
1160,-0.09217306088734672,1.0584622530413916,110.59832741779904,0.0
1161,0.10562086544462244,1.2355750719546643,110.8183430453509,0.0
1162,0.2591283336162816,1.375969964570764,110.97913256263706,0.0
1163,0.3542625913607768,1.4687827313742872,111.07766915412122,0.0
1164,0.3845056432517442,1.5076185276449219,111.1111111111111,1.0
1165,0.3514163764916892,1.4911640874649383,111.08388616233059,0.0
1166,0.2634481905058166,1.422995947233756,111.00310260523824,0.0
1167,0.13354441286253138,1.3106873034243924,110.87020794323445,0.0
1168,-0.023763210854377905,1.1644496009566687,110.68678645740334,0.0
1169,-0.19499551361240527,0.9956118596290645,110.45454545454547,0.0
1170,-0.3695227222366177,0.8152304903648374,110.17530114582311,0.0
1171,-0.5402446129920261,0.633045710284063,109.85096433776594,0.0
1172,-0.7032287644213967,0.45688501441484575,109.48352610844185,0.0
1173,-0.8566593791376765,0.29249436851726723,109.07504363001745,0.0
1174,-0.9995831917501092,0.1436857980211018,108.6276262852034,0.0
1175,-1.1309095123725634,0.012646303962686678,108.14342220972168,0.0
1176,-1.2489607391271003,-0.09973799365745067,107.62460537644694,0.0
1177,-1.351642203817287,-0.19363789349269367,107.07336331975014,0.0
1178,-1.43708020312522,-0.27014194960361043,106.49188558126163,0.0
1179,-1.5044295430654366,-0.3311807744677381,105.88235294117645,0.0
1180,-1.5545157792190472,-0.37943315344734724,105.24692748270138,0.0
1181,-1.5900526386567082,-0.41812876240539865,104.58774352158554,0.0
1182,-1.6153236797065031,-0.45069474677958715,103.90689941812136,0.0
1183,-1.6353810188962097,-0.48025051882943715,103.20645027572685,0.0
1184,-1.6549421295339268,-0.5090187863402232,102.48840151834669,0.0
1185,-1.677233797547523,-0.5377715600658213,101.75470332850941,0.0
1186,-1.7030425457711764,-0.565451932471639,101.00724591897472,0.0
1187,-1.7301976540815034,-0.5890975323846847,100.24785560348384,0.0
1188,-1.7536468917486787,-0.6041408597512233,99.47829162613847,0.0
1189,-1.7661876843970252,-0.6050853855720014,98.70024370430542,0.0
1190,-1.7597882676166012,-0.586471375667595,97.91533023657632,0.0
1191,-1.727288245662189,-0.5439719014765532,97.12509712509713,0.0
1192,-1.66414027510494,-0.4754158512797883,96.33101716039947,0.0
1193,-1.5697916303356956,-0.3815331709987133,95.53448991659013,0.0
1194,-1.4483452915587312,-0.2662606915250266,94.73684210526315,0.0
1195,-1.3082927188549294,-0.136526654480204,93.9393283376682,0.0
1196,-1.16133980595646,-0.0015312432876568305,93.14313224638235,0.0
1197,-1.0205841748428464,0.12836303052377665,92.3493679198818,0.0
1198,-0.8984667574246852,0.2429446587776562,91.55908160589352,0.0
1199,-0.8049565283339986,0.33345018712289504,90.77325364213671,0.0
1200,-0.7463250889120807,0.3936355723877206,89.99280057595391,0.0
1201,-0.7246720521153238,0.42046180737820477,89.21857743731935,0.0
1202,-0.7381517372991899,0.4143094157682795,88.45138013272802,0.0
1203,-0.7817034256501969,0.37871906078533324,87.69194793047002,0.0
1204,-0.8480416795993675,0.31972988987515344,86.94096601073345,0.0
1205,-0.9287091432890349,0.24494165545183408,86.19906805682469,0.0
1206,-1.0150813966179906,0.16245542816440536,85.46683886651978,0.0
1207,-1.0992823296295744,0.07985061348777547,84.7448169651451,0.0
1208,-1.1749834617169141,0.0033364423918582214,84.0334972044165,0.0
1209,-1.238027471905791,-0.06282055377256775,83.33333333333333,0.0
1210,-1.2867751057632817,-0.11653928483311715,82.64474052952491,0.0
1211,-1.3220729079374947,-0.1578354765553718,81.96809788137766,0.0
1212,-1.3468007782749734,-0.18844973556604158,81.30375081303751,0.0
1213,-1.3650677930433233,-0.2112800903782975,80.65201344598505,0.0
1214,-1.3812351419686422,-0.22973005662884383,80.01317089232795,0.0
1215,-1.3990037702928606,-0.2470859185091806,79.38748147625432,0.0
1216,-1.4207815933101384,-0.26601874085588223,78.77517888124981,0.0
1217,-1.4474491688985256,-0.28827202108276007,78.17647422170977,0.0
1218,-1.4785139296679373,-0.3145530904188648,77.5915580384854,0.0
1219,-1.5125326360941593,-0.34460537906877886,77.02060221870047,0.0
1220,-1.5476274538547696,-0.3774085139271977,76.46376184086978,0.0
1221,-1.5819335373897012,-0.4114395893832586,75.9211769469564,0.0
1222,-1.6138788009615397,-0.44493283133449585,75.39297424352613,0.0
1223,-1.6422772279561333,-0.4760927372327333,74.87926873460816,0.0
1224,-1.6662822019723653,-0.5032410136812082,74.3801652892562,0.0
1225,-1.6852751468736733,-0.5249026454773762,73.89576014713467,0.0
1226,-1.698756440429867,-0.53985463535196,73.42614236573591,0.0
1227,-1.7062768138631812,-0.5471681927384765,72.97139521307649,0.0
1228,-1.7074203548123743,-0.5462702655168664,72.53159750992756,0.0
1229,-1.701837735600581,-0.5370350269306994,72.10682492581601,0.0
1230,-1.6893277501700257,-0.5198943161092149,71.69715123319101,0.0
1231,-1.6699644959571962,-0.4959337479012482,71.30264952429688,0.0
1232,-1.6442566482259187,-0.466924648209625,70.9233933954268,0.0
1233,-1.6133032410388368,-0.43523720234777885,70.55945810336176,0.0
1234,-1.5788838373544816,-0.40359167820483166,70.21092169893095,0.0
1235,-1.5434008887530335,-0.37463370793838147,69.87786614276479,0.0
1236,-1.509592432885262,-0.35036348273900997,69.56037840845855,0.0
1237,-1.4799682524552542,-0.3314995457614633,69.25855157852494,0.0
1238,-1.4559983678000765,-0.3169035808257651,68.97248593869567,0.0
1239,-1.4371880654681135,-0.30321893258728394,68.70229007633588,0.0
1240,-1.420278585874442,-0.2848696313586394,68.4480819889717,0.0
1241,-1.3988769819655746,-0.25452107195034035,68.20999020919976,0.0
1242,-1.3638048324115646,-0.204020196597104,67.98815495255938,0.0
1243,-1.3043389897643192,-0.12572530337774715,67.78272929530507,0.0
1244,-1.2102978503771529,-0.014026803296443346,67.59388038942974,0.0
1245,-1.0746406749215822,0.1332208192992757,67.4217907227616,0.0
1246,-0.8959781830938398,0.3136622342438806,67.26665943250191,0.0
1247,-0.6802548243584496,0.5200622518456698,67.12870368119445,0.0
1248,-0.440957327956342,0.7407342596839098,67.00816010483054,0.0
1249,-0.197554811439978,0.9607650368192671,66.90528634361233,0.0
1250,0.027607143888989993,1.1638533401155173,66.8203626668309,0.0
1251,0.21323690252374092,1.3344408642307584,66.75369370438497,0.0
1252,0.34284813917900664,1.4597453782840935,66.7056102986874,0.0
1253,0.40737957885007625,1.531326472554894,66.67647149210418,0.0
1254,0.4060896916406304,1.5459196176424617,66.66666666666667,1.0
1255,0.34565384582808006,1.5054362801240673,66.70176661852281,0.0
1256,0.23788407404486012,1.4162040914728922,66.80538433582977,0.0
1257,0.09680621271964349,1.287667006746012,66.97528879744529,0.0
1258,-0.06410052257576716,1.1308473405886241,67.20960075704895,0.0
1259,-0.23385652703917753,0.9568755363446599,67.50675067506751,0.0
1260,-0.40480238772347826,0.7758275750463488,67.86544183117249,0.0
1261,-0.5723370773157368,0.5959998728704194,68.28461756972315,0.0
1262,-0.733936461730109,0.4236317501302331,68.76343179034305,0.0
1263,-0.8879689765688961,0.2629883032094019,69.30122191914488,0.0
1264,-1.0327833132685016,0.11666286419447383,69.89748369058714,0.0
1265,-1.166343075028689,-0.01404638693895427,70.55184714142729,0.0
1266,-1.2864209670085323,-0.1287961276372408,71.26405327130509,0.0
1267,-1.3911470397593835,-0.22794889436171212,72.03393086279361,0.0
1268,-1.4796047203109455,-0.3124156043600299,72.86137298028275,0.0
1269,-1.5522005608645586,-0.38355239661501445,73.74631268436578,0.0
1270,-1.6106618459369015,-0.44306222793348515,74.68869750878339,0.0
1271,-1.6576748864669324,-0.49286261439517387,75.68846225265011,0.0
1272,-1.6963021575720274,-0.5349064579898449,76.74549964390087,0.0
1273,-1.7293699750065212,-0.5709715254823192,77.85962843309055,0.0
1274,-1.7589962005247612,-0.6024556840865123,79.03055848261327,0.0
1275,-1.7863538709284945,-0.6302233964868482,80.25785242828157,0.0
1276,-1.8116789189020073,-0.6545431182280556,81.54088351178102,0.0
1277,-1.8344619355513434,-0.6751380355775384,82.87878921824307,0.0
1278,-1.8537336781074558,-0.6913491324685327,84.27042040827334,0.0
1279,-1.8683615464641041,-0.7023852996613544,85.71428571428572,0.0
1280,-1.8773053770242112,-0.7076146016346586,87.20849108380386,0.0
1281,-1.8798168328107072,-0.7068371135420105,88.75067450512626,0.0
1282,-1.8755917485601188,-0.7004751300742719,90.33793615155575,0.0
1283,-1.8648892221775875,-0.689622635317994,91.96676443755578,0.0
1284,-1.848611642061877,-0.6759138026668795,93.63295880149812,0.0
1285,-1.8283025083642492,-0.6612000174287614,95.33155042149258,0.0
1286,-1.8059841008457538,-0.6470644376368577,97.0567225368298,0.0
1287,-1.783755233715085,-0.6342472140539865,98.80173258718266,0.0
1288,-1.7631245639549047,-0.6220944198899535,100.55883898786858,0.0
1289,-1.7441644263050027,-0.6081682032315125,102.31923601637108,0.0
1290,-1.7246974304553537,-0.5881534754619635,104.07300096579745,0.0
1291,-1.6998169695257324,-0.5561602771437217,105.80905838402764,0.0
1292,-1.6620430486961424,-0.5054511888533388,107.51516680619746,0.0
1293,-1.6023021983439991,-0.4295301053751741,109.17793382943786,0.0
1294,-1.511705319287945,-0.32343208624952713,110.78286558345646,0.0
1295,-1.3838276164432883,-0.18497899294782955,112.31445651783254,0.0
1296,-1.2169516916871084,-0.015736106438679925,113.75632485166176,0.0
1297,-1.015617477049313,0.1785641877532737,115.0913979154646,0.0
1298,-0.790910984936703,0.3882744128461263,116.302149884008,0.0
1299,-0.5592314525791571,0.6007684214036032,117.37089201877934,0.0
1300,-0.3397220324836512,0.8019252124544325,118.28011253958444,0.0
1301,-0.15097468600469133,0.9779026633993821,119.01285973620405,0.0
1302,-0.007857302944719292,1.1168802303403544,119.55315811622482,0.0
1303,0.08073591805812161,1.2104600122339433,119.88644356065936,0.0
1304,0.11271746630552698,1.2544962510246194,120.0,1.0
1305,0.09217009905470656,1.2492517300546457,119.99726808128392,0.0
1306,0.027596950714706466,1.1989210313089786,119.98921778594955,0.0
1307,-0.07033678819824196,1.1106792864532644,119.97606827866616,0.0
1308,-0.19092767215589918,0.993484124611655,119.95803987116554,0.0
1309,-0.32493201731605703,0.8568672656921432,119.93535383977849,0.0
1310,-0.46521802584310357,0.7099074171484117,119.90823225050644,0.0
1311,-0.606648564383931,0.5604980804252079,119.87689779182062,0.0
1312,-0.7454978515662913,0.414938663947292,119.84157361535767,0.0
1313,-0.8787921648769289,0.27780834150647915,119.80248318465384,0.0
1314,-1.0038946224131935,0.15204353628801892,119.75985013203727,0.0
1315,-1.1184725681143741,0.03913392524021331,119.71389812377443,0.0
1316,-1.2207803968947666,-0.060629795388246005,119.664850733545,0.0
1317,-1.3100480144296094,-0.1478943811533478,119.61293132430008,0.0
1318,-1.3867341063118017,-0.2239813159690907,119.55836293853883,0.0
1319,-1.4524791366066192,-0.29062220258065874,119.50136819702037,0.0
1320,-1.50972893777022,-0.349692272364185,119.4421692059129,0.0
1321,-1.5611340987825195,-0.40295222333925185,119.38098747236552,0.0
1322,-1.608912483983757,-0.4518205820726072,119.31804382847476,0.0
1323,-1.654368896842319,-0.4972052333778815,119.25355836360598,0.0
1324,-1.697704062886427,-0.5394196510817001,119.18775036501816,0.0
1325,-1.7381436867404003,-0.5781971355553532,119.1208382667308,0.0
1326,-1.7743152753485087,-0.6127991642144033,119.053039606564,0.0
1327,-1.8047301183881566,-0.6421975156707997,118.98457099127496,0.0
1328,-1.8282114908106317,-0.6652989537968327,118.91564806970833,0.0
1329,-1.8441497446714175,-0.6811780301432705,118.84648551387392,0.0
1330,-1.852542451127308,-0.6892868180716704,118.7772970078614,0.0
1331,-1.853861675789892,-0.6896166724728415,118.70829524450009,0.0
1332,-1.8488483546437782,-0.682792585682518,118.63969192966997,0.0
1333,-1.838344777565648,-0.6700832298430539,118.57169779417188,0.0
1334,-1.823238384866065,-0.6533101418189728,118.5045226130653,0.0
1335,-1.804519892863971,-0.6346413922348437,118.43837523238464,0.0
1336,-1.7833846167717988,-0.6162635016693248,118.37346360314861,0.0
1337,-1.7612580237682154,-0.5999442107684376,118.30999482258319,0.0
1338,-1.739626450406795,-0.586528218057464,118.24817518248175,0.0
1339,-1.7196069486680037,-0.5754432227122828,118.1882102246361,0.0
1340,-1.7012849987750984,-0.5643246260442256,118.13030480327646,0.0
1341,-1.6829616367738311,-0.5488813866363219,118.07466315447012,0.0
1342,-1.6605513167891637,-0.5231112404120362,118.02148897243637,0.0
1343,-1.6274229732956003,-0.4799248451422723,117.97098549274635,0.0
1344,-1.5749437078687936,-0.41215874709732536,117.92335558238942,0.0
1345,-1.493844345637951,-0.31386049699652985,117.87880183669753,0.0
1346,-1.3762882934399114,-0.1816387567778558,117.83752668313626,0.0
1347,-1.21824660785188,-0.015813432467003535,117.79973249198208,0.0
1348,-1.0215614748239077,0.17890175180633733,117.76562169392415,0.0
1349,-0.795024393563335,0.3933887550792615,117.73539690464305,0.0
1350,-0.5539693243741224,0.6148694564286916,117.7092610564382,0.0
1351,-0.31826470870659496,0.8283314677189677,117.6874175369935,0.0
1352,-0.10906691153891915,1.0184100001500385,117.67007033539043,0.0
1353,0.05489929334248857,1.1713912868813996,117.65742419549997,0.0
1354,0.16059376212553364,1.276968040318317,117.64968477690483,0.0
1355,0.20263159063537128,1.3294278338056977,117.6470588235294,1.0
1356,0.18353145921712424,1.3280794065760881,117.67170702529818,0.0
1357,0.11229804582056228,1.2768877742393436,117.74419461850351,0.0
1358,0.001846484368544158,1.18345388823142,117.86241544342994,0.0
1359,-0.13395460845747031,1.0575973016520006,118.02435563963112,0.0
1360,-0.2828298982482027,0.9098531021471333,118.22807778055872,0.0
1361,-0.4356635578864592,0.7501700271814652,118.47170609047821,0.0
1362,-0.5868778046793106,0.587009096229077,118.75341259459422,0.0
1363,-0.7337887637844352,0.4269206537578065,119.07140407639895,0.0
1364,-0.8753678571953593,0.2745574972099354,119.42390973669931,0.0
1365,-1.010928455182384,0.1329930801646229,119.80916946711474,0.0
1366,-1.1391795821945445,0.004174255942087535,120.22542266750156,0.0
1367,-1.2578918254338918,-0.11065066969156101,120.67089755213054,0.0
1368,-1.3641802813197523,-0.21063813335198917,121.14380090381907,0.0
1369,-1.4552029123461756,-0.29523211853574094,121.6423082488595,0.0
1370,-1.528960604759281,-0.3642030670885501,122.16455443869042,0.0
1371,-1.584893630500476,-0.4177801257868884,122.70862463699083,0.0
1372,-1.6240812948808672,-0.45679912978053816,123.27254572336129,0.0
1373,-1.6490151545290443,-0.48279851332912443,123.85427813706788,0.0
1374,-1.6630660857740696,-0.49802014371061915,124.45170819650895,0.0
1375,-1.6698495975684045,-0.5053001789213092,125.06264094211977,0.0
1376,-1.6726912692236247,-0.507857182744905,125.68479356231344,0.0
1377,-1.6743185080634262,-0.5089969579386401,126.3157894736842,0.0
1378,-1.6767931762486692,-0.5117576727249994,126.95315313793645,0.0
1379,-1.6815962455207687,-0.5185204087447506,127.59430570867084,0.0
1380,-1.6897167990803394,-0.5306151982421039,128.236561611026,0.0
1381,-1.701602724843549,-0.5479639273294175,128.87712616596198,0.0
1382,-1.7168982454787944,-0.5688171367729308,129.5130943783496,0.0
1383,-1.7340032676942325,-0.5896548204294993,130.14145101362362,0.0
1384,-1.7496056033443517,-0.6053222696788277,130.7590720911515,0.0
1385,-1.7584173762999404,-0.6094524973735024,131.36272792321546,0.0
1386,-1.7533553093508436,-0.5951836461634945,131.9490878261332,0.0
1387,-1.7263233694075608,-0.5561178157073828,132.51472662407699,0.0
1388,-1.6695943437989136,-0.48739989761105257,133.05613305613304,0.0
1389,-1.5775814756638857,-0.3867397738391521,133.56972018264227,0.0
1390,-1.448602691506084,-0.25517748248825983,134.051837867525,0.0
1391,-1.2861395127697728,-0.09741173533676271,134.49878738884397,0.0
1392,-1.0991402729644733,0.07842053450070743,134.90683820016525,0.0
1393,-0.9011306297376931,0.26152352328828576,135.27224683035072,0.0
1394,-0.7082256462325,0.4396762172233024,135.59127786948002,0.0
1395,-0.5364775626352453,0.6007177877645654,135.86022694408055,0.0
1396,-0.39921233248938626,0.7340267075436437,136.0754455364355,0.0
1397,-0.30501697547961376,0.8317379983285836,136.23336745138178,0.0
1398,-0.2568343678278176,0.8895029340797717,136.33053668092288,0.0
1399,-0.25228359243573667,0.9066967514241233,136.36363636363637,1.0
1400,-0.28497830827993276,0.8860954282244842,136.3113092459409,0.0
1401,-0.34637607806337056,0.8331427207181343,136.1562187669329,0.0
1402,-0.4276178881122033,0.7549899039192352,135.90153142464968,0.0
1403,-0.5209067323406494,0.6595021459914928,135.55081804674978,0.0
1404,-0.6201792890370231,0.5543910646180117,135.10800665502495,0.0
1405,-0.7210748916965887,0.44656897639038684,134.5773334918909,0.0
1406,-0.8204249733948492,0.34174914867502226,133.96329316694678,0.0
1407,-0.9156073151129667,0.24425930335110296,133.27058882760076,0.0
1408,-1.0040960015026206,0.15700639109377443,132.50408318268137,0.0
1409,-1.0834018576995503,0.08153188209697304,131.66875111666963,0.0
1410,-1.1514001020737537,0.01812051489103836,130.7696345296142,0.0
1411,-1.2068657544965582,-0.03404311452985134,129.81179992872373,0.0
1412,-1.2499505145341259,-0.07665224782466185,128.8002991865176,0.0
1413,-1.2823602137935088,-0.11196761020929669,127.74013377119451,0.0
1414,-1.307105024339679,-0.14241418196270836,126.63622265086327,0.0
1415,-1.327843162158878,-0.17011395507808733,125.49337397710002,0.0
1416,-1.3479697146682337,-0.1964211959201443,124.31626056688215,0.0
1417,-1.3696804504646394,-0.22155394876647,123.10939912656893,0.0
1418,-1.3932544489773144,-0.24442027128450022,121.87713309789991,0.0
1419,-1.4167552677757838,-0.2627141329240747,120.62361895408789,0.0
1420,-1.4362630952467577,-0.2733062395356535,119.3528157336665,0.0
1421,-1.4466377282178047,-0.272889276827078,118.06847757014543,0.0
1422,-1.4426932454484171,-0.258770701908252,116.77414895580189,0.0
1423,-1.4205601016483413,-0.22965653733388997,115.47316246700252,0.0
1424,-1.378939829126759,-0.18625134722674863,114.16863867512018,0.0
1425,-1.319941220371852,-0.13152086242614458,112.86348797017187,0.0
1426,-1.24923998702114,-0.07052351515806228,111.5604140325698,0.0
1427,-1.1754311319287,-0.009804575285528229,110.26191870072064,0.0
1428,-1.1086297490471053,0.04355716588284325,108.97030799759996,0.0
1429,-1.0585808439209201,0.08307776125412157,107.68769909694011,0.0
1430,-1.0327007092713711,0.10395129516969802,106.41602802850457,0.0
1431,-1.0345303462270308,0.10386788819826853,105.15705794138908,0.0
1432,-1.063002107564871,0.08339673676384395,103.91238776383446,0.0
1433,-1.1127173355536049,0.04585399165651705,102.68346111719605,0.0
1434,-1.1751641539679254,-0.003316590694041912,101.4715753601487,0.0
1435,-1.2405552681230723,-0.05752126237924218,100.27789065664513,0.0
1436,-1.2998149998559585,-0.11015291750353617,99.1034389774155,0.0
1437,-1.3462375126091009,-0.1556633595522826,97.94913295977757,0.0
1438,-1.37646764979076,-0.1903732093629624,96.81577456416349,0.0
1439,-1.390668299041544,-0.21288749786510083,95.70406347804631,0.0
1440,-1.3919570662923584,-0.2240736581325454,94.61460522888878,0.0
1441,-1.3853533926897204,-0.22664816732163182,93.54791897738508,0.0
1442,-1.3765420008581486,-0.2244887948162237,92.5044449706942,0.0
1443,-1.3707346390144046,-0.22182824013124922,91.48455164264767,0.0
1444,-1.3718291116107888,-0.22248772665419478,90.488542354151,0.0
1445,-1.381958754557736,-0.22928023397311728,89.51666177227126,0.0
1446,-1.401427511640541,-0.24366306082742298,88.56910189091879,0.0
1447,-1.4289556117320332,-0.26566164878940046,87.64600769967115,0.0
1448,-1.4621257507345018,-0.2940337914298472,86.74748251025025,0.0
1449,-1.4979145208329474,-0.32660505728637224,85.87359295252745,0.0
1450,-1.5332069968315991,-0.36068749416645635,85.02437365378074,0.0
1451,-1.5652150892227918,-0.3934948239974363,84.19983161633238,0.0
1452,-1.5917507234670265,-0.42248489323983635,83.39995030972227,0.0
1453,-1.6113424288130138,-0.44558812250524255,82.62469349428444,0.0
1454,-1.6232201921109983,-0.4613121241679028,81.87400879344297,0.0
1455,-1.6272138085700893,-0.46874094048277476,81.14783103227836,0.0
1456,-1.6236068507324959,-0.4674673136160635,80.44608535998269,0.0
1457,-1.6129720212574221,-0.4575048273221771,79.76869017375297,0.0
1458,-1.5960050186639265,-0.4392226208763186,79.11555986150896,0.0
1459,-1.573383984358814,-0.41332977803494275,78.4866073805847,0.0
1460,-1.5456981269116266,-0.3809126047835125,77.88174668926752,0.0
1461,-1.5134877303861463,-0.3435009014907303,77.30089504775819,0.0
1462,-1.477404852416403,-0.3031155706486365,76.74397520482815,0.0
1463,-1.438449677733729,-0.2622366095140187,76.21091748616715,0.0
1464,-1.3981867714070468,-0.22363388350089042,75.70166180016795,0.0
1465,-1.3588204042007441,-0.1900263512325745,75.2161595766935,0.0
1466,-1.3230184934252207,-0.1635772586501226,74.75437565423393,0.0
1467,-1.2934214197568827,-0.14528626746437823,74.31629013079666,0.0
1468,-1.2718523049515489,-0.1343923684775168,73.90190019389685,0.0
1469,-1.2583509076249815,-0.12793848569521143,73.51122194513717,0.0
1470,-1.2502635390566437,-0.12065514118070389,73.14429223510436,0.0
1471,-1.241701331328974,-0.1052866228902948,72.80117052467264,0.0
1472,-1.22368663217336,-0.07340809360002476,72.48194078931127,0.0
1473,-1.1852078969588542,-0.016676872538379683,72.18671348366115,0.0
1474,-1.115189217830146,0.07165239588031741,71.91562758449074,0.0
1475,-1.00508686388521,0.1952120376417683,71.66885273119063,0.0
1476,-0.8515365791597682,0.353312715058836,71.44659148424107,0.0
1477,-0.6583090746556128,0.5403256085879066,71.24908172362004,0.0
1478,-0.43689162799662273,0.7458442767194647,71.07659921094415,0.0
1479,-0.20533312761203548,0.9556658480899805,70.929460341293,0.0
1480,0.014511871674141306,1.153461234367368,70.8080251132078,0.0
1481,0.2007050070552173,1.3228552236645381,70.71270034833309,0.0
1482,0.33497453586725834,1.449547877006959,70.64394319565534,0.0
1483,0.4055715583184929,1.523101750453926,70.60226495936445,0.0
1484,0.40862059558280167,1.538096153246111,70.58823529411765,1.0
1485,0.3478200791267259,1.4944888086871009,70.59046034919675,0.0
1486,0.23279084353699298,1.3971903533050911,70.59710583856395,0.0
1487,0.07665592916801298,1.2550071293766307,70.60812846870675,0.0
1488,-0.10648441778450742,1.079208863721197,70.62348652964738,0.0
1489,-0.30361947348637736,0.8820118347050236,70.64313984218057,0.0
1490,-0.5040960854536585,0.6752355426936434,70.66704970699342,0.0
1491,-0.7000186299992616,0.46930866923431147,70.69517885557049,0.0
1492,-0.8859534824686095,0.27269507157238837,70.72749140279248,0.0
1493,-1.058257542276486,0.09171110335045538,70.7639528011406,0.0
1494,-1.214370348448898,-0.06936591322090907,70.80452979642342,0.0
1495,-1.3523188487809195,-0.20803005858510443,70.8491903849466,0.0
1496,-1.4705375421317854,-0.3232443964841111,70.89790377204919,0.0
1497,-1.567967896007388,-0.41519086257989435,70.95064033193462,0.0
1498,-1.6443136676970505,-0.4851077726843681,71.00737156872637,0.0
1499,-1.7003059636507059,-0.5351996489221096,71.06807007868254,0.0
1500,-1.7378603601091482,-0.5685671206808387,71.13270951350539,0.0
1501,-1.760061759299906,-0.5890886373363335,71.20126454468564,0.0
1502,-1.7709646152356888,-0.6011923102276194,71.2737108288225,0.0
1503,-1.775230354587681,-0.6094823813198351,71.35002497386422,0.0
1504,-1.7776371632813492,-0.6182243157426546,71.43018450621487,0.0
1505,-1.7824973083823337,-0.6307371248819622,71.51416783865604,0.0
1506,-1.7930167301543047,-0.6487821747784134,71.60195423903366,0.0
1507,-1.810644209771101,-0.6720653946063609,71.69352379966226,0.0
1508,-1.8344908935776754,-0.6979765343464108,71.78885740740012,0.0
1509,-1.8609497173100151,-0.7216695086968591,71.88793671435144,0.0
1510,-1.8836847118990456,-0.7365407639245869,71.9907441091521,0.0
1511,-1.8941569525686317,-0.7350927861921268,72.09726268879771,0.0
1512,-1.8827771187125992,-0.7100887277847963,72.20747623097358,0.0
1513,-1.8406194027390945,-0.6558286436716214,72.321369166848,0.0
1514,-1.761429993707719,-0.5693273727253522,72.43892655429073,0.0
1515,-1.6434824251860753,-0.45116541265514887,72.56013405148035,0.0
1516,-1.4907541822459822,-0.3058258088863167,72.68497789086472,0.0
1517,-1.3129884149749533,-0.14141834218162375,72.81344485344013,0.0
1518,-1.1244697888145814,0.031189907169703324,72.94552224331524,0.0
1519,-0.9417154821883862,0.19969828894106173,73.08119786252706,0.0
1520,-0.7806298982822009,0.35191854548251233,73.22045998607709,0.0
1521,-0.6538547637286136,0.47726976080591765,73.36329733715606,0.0
1522,-0.5689834814755339,0.5679698482443566,73.50969906252699,0.0
1523,-0.5280199951769893,0.6197471983607761,73.65965470803647,0.0
1524,-0.528062236969023,0.6320055701905837,73.81315419422499,0.0
1525,-0.5628328527768607,0.6074880760567882,73.97018779200744,0.0
1526,-0.6244900406404117,0.5515733774326854,74.13074609839585,0.0
1527,-0.7051752687926354,0.47138010491534943,74.29482001223646,0.0
1528,-0.7979530290078124,0.3748499854131293,74.46240070993423,0.0
1529,-0.897075002688035,0.2699366658351427,74.63347962113764,0.0
1530,-0.997749245633993,0.16396577822243302,74.80804840435789,0.0
1531,-1.0957324808010844,0.0631744414029538,74.98609892249631,0.0
1532,-1.187057629886902,-0.02759808258603788,75.16762321825443,0.0
1533,-1.2680815540217483,-0.10510562770408405,75.35261348940183,0.0
1534,-1.335854788992859,-0.16779830417631986,75.54106206387632,0.0
1535,-1.3886557252791007,-0.21582879302486146,75.73296137469265,0.0
1536,-1.4264562999084465,-0.25093305773748453,75.9283039346348,0.0
1537,-1.4511111942443349,-0.276148459179373,76.12708231070842,0.0
1538,-1.4661593068276686,-0.29534588113556054,76.32928909832965,0.0
1539,-1.4762425988304309,-0.3125867465562069,76.53491689522674,0.0
1540,-1.4862373102693054,-0.33136259726585143,76.74395827503169,0.0
1541,-1.5002384594514764,-0.3538217131305729,76.95640576053886,0.0
1542,-1.5205530234382105,-0.38012037029105267,77.17225179660817,0.0
1543,-1.5468643997019567,-0.4080440971108619,77.39148872269055,0.0
1544,-1.5757418362602476,-0.4330197345067215,77.61410874495357,0.0
1545,-1.6006696125721842,-0.4485820542617804,77.84010390798574,0.0
1546,-1.6127316311647681,-0.4472767062400458,78.06946606605801,0.0
1547,-1.6019830516502278,-0.42188925684260586,78.30218685392128,0.0
1548,-1.5593729235105598,-0.36680802156640063,78.53825765711935,0.0
1549,-1.4788867459470694,-0.2792771927656841,78.77766958179659,0.0
1550,-1.3594218219092644,-0.16029286598207954,79.02041342398077,0.0
1551,-1.205867720626935,-0.014944657288214896,79.26647963832093,0.0
1552,-1.0289926620455552,0.14789681813150396,79.51585830626105,0.0
1553,-0.8440288019089434,0.3165208886315438,79.7685391036311,0.0
1554,-0.6682240577002257,0.47779570559789464,80.02451126763673,0.0
1555,-0.517949991205667,0.6188204499716369,80.28376356322985,0.0
1556,-0.4060930242483656,0.728525510840833,80.54628424884307,0.0
1557,-0.340348178016274,0.7989566154814328,80.8120610414707,0.0
1558,-0.32272328631299196,0.8260544597544511,81.08108108108108,1.0
1559,-0.3501762863000825,0.809849596811513,81.38103700569462,0.0
1560,-0.41600180866001096,0.7541049148864302,81.73870945909152,0.0
1561,-0.5114603909758022,0.665528740592328,82.15284021413808,0.0
1562,-0.6272169124181217,0.5527335056675486,82.62231623261006,0.0
1563,-0.7543527650895886,0.42512380254740156,83.14614726069784,0.0
1564,-0.8849316975949267,0.2918709784988177,83.72344456897011,0.0
1565,-1.0122456007265677,0.16108378254881472,84.35340047323955,0.0
1566,-1.1309095890575283,0.03923192428005583,85.03526830879541,0.0
1567,-1.2369321449535216,-0.06916589930715833,85.7683425597973,0.0
1568,-1.3278007541263444,-0.16160965030490834,86.55193886989963,0.0
1569,-1.4025447387131469,-0.23747926858045804,87.38537368084639,0.0
1570,-1.4616990923603848,-0.29773541321915714,88.26794326417497,0.0
1571,-1.5071069443833867,-0.3445079519893042,89.19890192857211,0.0
1572,-1.5415504135982734,-0.38062171044827225,90.17743920309393,0.0
1573,-1.568260490898589,-0.40911025547894875,91.20265581569815,0.0
1574,-1.5903962305634967,-0.43276903345774437,92.27353830868678,0.0
1575,-1.610587288565347,-0.453796882959588,93.38893215917535,0.0
1576,-1.6306082796902195,-0.47356754237440574,94.54751330512829,0.0
1577,-1.6512181582111245,-0.4925589019197122,95.74775801748257,0.0
1578,-1.6721698162390939,-0.5104474990201924,96.98791110816425,0.0
1579,-1.6923779471345066,-0.5263508538221532,98.26595252418682,0.0
1580,-1.7102196390893762,-0.5391739287435455,99.57956245131155,0.0
1581,-1.7239253942570794,-0.547992687420778,100.92608513867616,0.0
1582,-1.7320002481363106,-0.55239245717036,102.30249175986926,0.0
1583,-1.7336029898688683,-0.552676409911373,103.7053427472958,0.0
1584,-1.7288100827406918,-0.5498735821937407,105.13075017589229,0.0
1585,-1.7186963211258963,-0.5455076632529369,106.57434092901259,0.0
1586,-1.7051728635021093,-0.5411350061092435,108.03122155214115,0.0
1587,-1.69054090455464,-0.5377164963951171,109.49594588599409,0.0
1588,-1.676760991239513,-0.5349425034230398,110.96248676461124,0.0
1589,-1.664515127717771,-0.530669776423077,112.42421325898795,0.0
1590,-1.6522433980344768,-0.5206402603485263,113.87387513275554,0.0
1591,-1.6354364328760873,-0.4986243143505359,115.30359634060439,0.0
1592,-1.6065111738194062,-0.457062168811866,116.704879526799,0.0
1593,-1.5555429987039804,-0.3881756561041112,118.06862355173152,0.0
1594,-1.4719482289922856,-0.2854064484035966,119.38515606824457,0.0
1595,-1.3469272158845809,-0.14493466053225154,120.6442830644693,0.0
1596,-1.1761649175780662,0.03302794009082877,121.83535706452386,0.0
1597,-0.9620616703443953,0.243470033212633,122.94736531338557,0.0
1598,-0.7147507066538447,0.4765588951564603,123.96903875339613,0.0
1599,-0.4514098366008542,0.7184445788311673,124.88898192103998,0.0
1600,-0.19384463118165227,0.952798241490272,125.69582305888643,0.0
1601,0.035145464970897794,1.1628317639807948,126.37838276803673,0.0
1602,0.21571130562127672,1.3334374954944754,126.92585845647147,0.0
1603,0.33420220479546214,1.4530602912447064,127.3280207209309,0.0
1604,0.3849431740506234,1.5149761005743128,127.57541670322598,0.0
1605,0.3702292028104697,1.5177851422382875,127.65957446808511,1.0
1606,0.29874113582595946,1.4650972213867175,127.65607710732242,0.0
1607,0.18298544228900615,1.364548199715355,127.64568906320724,0.0
1608,0.03653302210688748,1.2264013264235691,127.62856799105768,0.0
1609,-0.12824081735307358,1.0620320647744306,127.60487354336507,0.0
1610,-0.3014789788849704,0.8825679448648724,127.57476720482892,0.0
1611,-0.47614600320492273,0.6978727325587604,127.53841213001189,0.0
1612,-0.647549024847768,0.5159557919324289,127.49597298385918,0.0
1613,-0.812492812098254,0.3427841810981295,127.44761578531107,0.0
1614,-0.9684857517951961,0.18240116986826255,127.39350775422221,0.0
1615,-1.1132691603452258,0.037222378516522825,127.3338171617856,0.0
1616,-1.2447391640124643,-0.09161206186724052,127.26871318464411,0.0
1617,-1.3611592348992678,-0.20391605266298063,127.19836576285688,0.0
1618,-1.4614774396779007,-0.3002076856339382,127.12294546187333,0.0
1619,-1.545571499031379,-0.381530814271355,127.04262333865192,0.0
1620,-1.6143153732609832,-0.4493218287502817,126.95757081204702,0.0
1621,-1.6694482477382007,-0.5052880549642509,126.8679595375728,0.0
1622,-1.7132940041645948,-0.5512728690997051,126.77396128663828,0.0
1623,-1.7484102387361797,-0.5891008223670783,126.67574783033581,0.0
1624,-1.7772437009847017,-0.620416028677206,126.57349082785056,0.0
1625,-1.8018473173031133,-0.6465419449596926,126.46736171954697,0.0
1626,-1.8236877526569324,-0.6683959343747107,126.35753162477553,0.0
1627,-1.8435528335177938,-0.686485924435887,126.24417124443185,0.0
1628,-1.861559594451607,-0.7010000571793764,126.12745076828863,0.0
1629,-1.8772627401657613,-0.7119768049891185,126.00753978711066,0.0
1630,-1.889860496607328,-0.7195177089658776,125.88460720955314,0.0
1631,-1.898481353591817,-0.7239839120844728,125.75882118383363,0.0
1632,-1.902509622011828,-0.7261074152451501,125.63034902415971,0.0
1633,-1.9018771020747611,-0.7269538097061631,125.49935714188535,0.0
1634,-1.8972241837927668,-0.7276978585947225,125.3660109813619,0.0
1635,-1.889829089891995,-0.7292153485537548,125.23047496044191,0.0
1636,-1.8812310127437544,-0.7315477141746919,125.09291241558769,0.0
1637,-1.872540218221959,-0.7333487876865632,124.95348555152994,0.0
1638,-1.8635327668167594,-0.7314611912379281,124.81235539541724,0.0
1639,-1.8517465892991187,-0.7207789622992813,124.66968175539077,0.0
1640,-1.8318875846738245,-0.6945228939592485,124.52562318351566,0.0
1641,-1.7958716954544625,-0.6449842235745176,124.3803369429953,0.0
1642,-1.733737500940974,-0.5646904070484279,124.2339789795922,0.0
1643,-1.635459471489554,-0.4478345664298166,124.08670389717557,0.0
1644,-1.4934095681848725,-0.2917159499558639,123.93866493731409,0.0
1645,-1.30493025891524,-0.0978909315786759,123.79001396282908,0.0
1646,-1.0743010534583004,0.12724697482968855,123.6409014452233,0.0
1647,-0.8134061930159565,0.3726493931093575,123.49147645589804,0.0
1648,-0.5406905911935578,0.6236025552397054,123.34188666107168,0.0
1649,-0.278470002210292,0.8633989050083075,123.19227832031153,0.0
1650,-0.04918097754312084,1.0754143992308642,123.04279628859175,0.0
1651,0.1284861537137527,1.245221953965726,122.89358402178993,0.0
1652,0.24258173529493046,1.3623617610534144,122.74478358553624,0.0
1653,0.2893139686407568,1.4214655126997848,122.5965356673295,0.0
1654,0.27268170124746344,1.4225731506230663,122.44897959183673,1.0
1655,0.2026315757039138,1.3706499439840814,122.29977555929649,0.0
1656,0.0924045889145685,1.2744655662548163,122.14650810163398,0.0
1657,-0.04415815131181092,1.1450998122186715,121.98920262276367,0.0
1658,-0.19471682806633603,0.9943729033765082,121.827885307764,0.0
1659,-0.3496001912221027,0.833463504596675,121.6625831105254,0.0
1660,-0.5020316818324269,0.6718934986122251,121.49332374104934,0.0
1661,-0.6476763600881161,0.5169537526077821,121.32013565241043,0.0
1662,-0.7839002210474181,0.37354824534804365,121.14304802739281,0.0
1663,-0.9091023314672703,0.24436583343418344,120.96209076481291,0.0
1664,-1.0223272329183646,0.13025831068488108,120.77729446554095,0.0
1665,-1.1231731916515608,0.030706994636467172,120.58869041823311,0.0
1666,-1.2118682793125612,-0.05571354769212833,120.39631058478726,0.0
1667,-1.2893407303155529,-0.13093092838224923,120.20018758553502,0.0
1668,-1.3571576649670862,-0.19705379987447275,120.00035468418262,0.0
1669,-1.4173017250614854,-0.2561361055223515,119.796845772514,0.0
1670,-1.4718436239136132,-0.31001713899664324,119.58969535486914,0.0
1671,-1.5226129020375312,-0.3602242977818188,119.37893853241057,0.0
1672,-1.5709609963730922,-0.40792572633252683,119.16461098719206,0.0
1673,-1.6176659374488265,-0.45392084936251975,118.94674896604192,0.0
1674,-1.6629731717841862,-0.49865669705362214,118.72538926427521,0.0
1675,-1.706725738433915,-0.5422574408335188,118.50056920924781,0.0
1676,-1.7485215223913664,-0.584555254885801,118.2723266437659,0.0
1677,-1.78784477586201,-0.6251139514919051,118.04069990936433,0.0
1678,-1.824143182691851,-0.6632432333275623,117.80572782946764,0.0
1679,-1.8568469611401246,-0.6980098552777895,117.5674496924464,0.0
1680,-1.8853435038294333,-0.72826021597194,117.32590523458292,0.0
1681,-1.9089290062092514,-0.7526739618378203,117.08113462295947,0.0
1682,-1.9267630001202032,-0.7698673136859777,116.83317843828164,0.0
1683,-1.9378569783479405,-0.7785563078717118,116.5820776576508,0.0
1684,-1.9411311679942478,-0.7777740981274289,116.32787363729818,0.0
1685,-1.9355653283286895,-0.7671153064612792,116.07060809529318,0.0
1686,-1.9204448336221531,-0.7469588480542406,115.81032309423904,0.0
1687,-1.8956664425319563,-0.7186050351702667,115.54706102396828,0.0
1688,-1.8620304341746539,-0.6842597626623033,115.2808645842506,0.0
1689,-1.8214187631334509,-0.646813363489838,115.01177676752432,0.0
1690,-1.7767511380206893,-0.6093960065863209,114.73984084166509,0.0
1691,-1.731630390486587,-0.57474199086946,114.46510033280198,0.0
1692,-1.6896431361683248,-0.5444530996551373,114.18759900819397,0.0
1693,-1.65337306682967,-0.5183027910563645,113.90738085917675,0.0
1694,-1.623298150349449,-0.49375278291102054,113.6244900841925,0.0
1695,-1.5968477645480945,-0.46584775067972617,113.33897107191224,0.0
1696,-1.567950791599249,-0.4276049348320773,113.05086838446184,0.0
1697,-1.5273753823354022,-0.37092613683008435,112.76022674076248,0.0
1698,-1.4640261064867517,-0.2879444073728737,112.46709099999464,0.0
1699,-1.367130328468523,-0.17260157331632248,112.17150614519653,0.0
1700,-1.2289542012820474,-0.022165755084826877,111.87351726700547,0.0
1701,-1.0474229553040961,0.1616322361000282,111.57316954755235,0.0
1702,-0.8278917775066925,0.37212192450411186,111.27050824451723,0.0
1703,-0.5834181834050737,0.5980396678103836,110.9655786753554,0.0
1704,-0.33324419682976575,0.8246986711200055,110.65842620170194,0.0
1705,-0.0997140855664584,1.0358065565653605,110.34909621396265,0.0
1706,0.09565290383014022,1.215610630647636,110.03763411609917,0.0
1707,0.2359399837798018,1.3509770202871325,109.72408531061593,0.0
1708,0.3115178841238202,1.4330258282791446,109.40849518375545,0.0
1709,0.3210459356314751,1.458046265357028,109.09090909090908,1.0
1710,0.27070201051243103,1.4275761627143044,108.75630739952494,0.0
1711,0.1720291258833251,1.3477072812989306,108.39064535639876,0.0
1712,0.039092271762911676,1.227826903272443,107.99544904688966,0.0
1713,-0.1142828824692102,1.0790929828307838,107.57226321948033,0.0
1714,-0.2765526291707155,0.9129493650565715,107.12264414947857,0.0
1715,-0.4394282632089244,0.7399257616391,106.6481528629443,0.0
1716,-0.5977754670522049,0.5688588894973217,106.15034875311653,0.0
1717,-0.748741822816663,0.4065505584776643,105.63078361464534,0.0
1718,-0.8905897279941,0.2577787278900336,105.09099611424699,0.0
1719,-1.0217126907260576,0.12552170874702115,104.53250671008163,0.0
1720,-1.1401579825138815,0.011251391435893487,103.95681302627433,0.0
1721,-1.2437404546272994,-0.08480947633746838,103.36538568361416,0.0
1722,-1.3306034114538996,-0.16350785858032213,102.75966458260886,0.0
1723,-1.3999378988952917,-0.22663753989657293,102.14105563076619,0.0
1724,-1.4525455445586342,-0.27680878964374356,101.51092790222552,0.0
1725,-1.4910105189658733,-0.31723638480950045,100.87061121466812,0.0
1726,-1.5193885116153154,-0.35139493259957233,100.22139410578114,0.0
1727,-1.5424691877907668,-0.3825377981253694,99.56452218941115,0.0
1728,-1.564779074351827,-0.4131319979326381,98.9011968698923,0.0
1729,-1.589544174106394,-0.4443089692496318,98.23257439183406,0.0
1730,-1.6178298961663924,-0.4754558239352622,97.5597652018668,0.0
1731,-1.6480378815059755,-0.504065328043685,96.88383359843023,0.0
1732,-1.6758828009085374,-0.5259248923369204,96.20579764560648,0.0
1733,-1.694905190848055,-0.5356623561101472,95.5266293272059,0.0
1734,-1.6974961330758953,-0.5275923106054585,94.84725491776933,0.0
1735,-1.6763119162823288,-0.4967374364447399,94.16855554781402,0.0
1736,-1.6258503091287795,-0.4398509942075399,93.49136794148868,0.0
1737,-1.543873853597745,-0.35625162786418696,92.81648530577657,0.0
1738,-1.4323415930752768,-0.2483055221121453,92.14465835146841,0.0
1739,-1.2975816762665024,-0.12145042225184498,91.4765964272848,0.0
1740,-1.149603587159433,0.016260801268932007,90.81296874974004,0.0
1741,-1.000668493317193,0.15503045575712535,90.15440571257965,0.0
1742,-0.8634372215408602,0.2844586139121055,89.50150026087552,0.0
1743,-0.7491241955144499,0.39477147649170125,88.8548093161068,0.0
1744,-0.6660604586037795,0.47794252496856726,88.21485523977819,0.0
1745,-0.6189201055241363,0.5285440857258543,87.58212732431964,0.0
1746,-0.6086518477513145,0.5442244965963619,86.95708330116015,0.0
1747,-0.6329639113101555,0.5257753180036866,86.3401508569708,0.0
1748,-0.6871053558456537,0.47681834443386506,85.7317291501176,0.0
1749,-0.7646968662490038,0.4031918835111723,85.1321903203552,0.0
1750,-0.8584638948162941,0.3121444990229345,84.54188098571925,0.0
1751,-0.9608515872661192,0.2114528726510075,83.96112372144349,0.0
1752,-1.0645847643675648,0.10857323818194543,83.39021851653196,0.0
1753,-1.1632373686574513,0.009918570981937186,82.82944420436188,0.0
1754,-1.2518046816828423,-0.0796693135681294,82.27905986437692,0.0
1755,-1.3271814622070033,-0.15721008169063208,81.73930619255866,0.0
1756,-1.3884027784703028,-0.22162382096097544,81.21040683893631,0.0
1757,-1.4365364275655563,-0.27353474674957445,80.69256971091593,0.0
1758,-1.4742143315720238,-0.3148841989944975,80.18598824168104,0.0
1759,-1.5049065021003176,-0.34842023046429976,79.69084262334376,0.0
1760,-1.5321200835088216,-0.3771440152474134,79.20730100490793,0.0
1761,-1.5587161688669888,-0.40379357684495426,78.73552065545184,0.0
1762,-1.5864825975788959,-0.43043291657885974,78.27564909324616,0.0
1763,-1.6160118107320995,-0.4581925525645747,77.82782518180113,0.0
1764,-1.64684485800834,-0.4871809589516525,77.39218019408493,0.0
1765,-1.677781875604063,-0.5165610693169458,76.96883884637917,0.0
1766,-1.707238130474836,-0.5447661470132951,76.55792030343753,0.0
1767,-1.7335442425411258,-0.5698166365555402,76.1595391567963,0.0
1768,-1.7551404520478726,-0.5896931348720236,75.77380637825108,0.0
1769,-1.770677514667797,-0.6027177373944703,75.40083025066642,0.0
1770,-1.7790833685435221,-0.6078941375915241,75.04071727842721,0.0
1771,-1.7796626109661327,-0.6051551386757406,74.69357307997548,0.0
1772,-1.7722609718322362,-0.5954664925085785,74.35950326500507,0.0
1773,-1.7574663619934698,-0.5807423764839916,74.03861429901397,0.0
1774,-1.7367592184583105,-0.5635452241381136,73.731014358041,0.0
1775,-1.712491845147906,-0.5465741412025649,73.43681417654317,0.0
1776,-1.6875836052141926,-0.5319906447153175,73.15612789150505,0.0
1777,-1.6648726063441153,-0.5206811533612475,72.8890738860143,0.0
1778,-1.64616412326294,-0.5116003611871,72.6357756356902,0.0
1779,-1.63114656184945,-0.5013632333174403,72.39636256151925,0.0
1780,-1.6164707903703173,-0.4842420418434561,72.17097089283419,0.0
1781,-1.5953549368229314,-0.45267107781609117,71.95974454437386,0.0
1782,-1.558035548313215,-0.39826846118907383,71.76283601158705,0.0
1783,-1.4932184053383617,-0.3132672768701422,71.58040728859204,0.0
1784,-1.3904128322962443,-0.19213317771628066,71.41263081348522,0.0
1785,-1.2427276413070854,-0.0330636630528815,71.25969044600565,0.0
1786,-1.0494584681507904,0.1609569993306213,71.12178248291548,0.0
1787,-0.8177054624477901,0.3818187524289913,70.99911671685497,0.0
1788,-0.5624007313334604,0.616807993804782,70.89191754487626,0.0
1789,-0.3045019016287577,0.8499631889673798,70.80042513336622,0.0
1790,-0.06763017962972151,1.0640559693539633,70.72489664663645,0.0
1791,0.1260756871520518,1.242848717430611,70.66560754710017,0.0
1792,0.2598446082098054,1.3732151129527002,70.62285297568013,0.0
1793,0.3249156896178778,1.4467403370621779,70.59694922191017,0.0
1794,0.3213383448186289,1.460535192639041,70.58823529411765,1.0
1795,0.25688468017648597,1.41717215474679,70.67411766648304,0.0
1796,0.14455158075109398,1.3238356971737586,70.92666654375617,0.0
1797,-0.0005481755534763448,1.1909276426003121,71.33982528763691,0.0
1798,-0.16405780840041917,1.0304467299632813,71.90940944789669,0.0
1799,-0.3343593049143101,0.8544574550316462,72.63285061676909,0.0
