,PPG_Raw,PPG_Clean,PPG_Rate,PPG_Peaks
0,-14.178152428744772,-1.2872650015902436,119.76911976911977,0.0
1,-14.038359942090288,-1.07311347993702,119.76911976911977,0.0
2,-13.928078035169422,-0.8934533014598451,119.76911976911977,0.0
3,-13.878224269576325,-0.780157168946018,119.76911976911977,0.0
4,-13.914595885179233,-0.759641551888584,119.76911976911977,0.0
5,-14.056190132971114,-0.8503542027892623,119.76911976911977,0.0
6,-14.313957633503655,-1.0607515028697583,119.76911976911977,0.0
7,-14.689684838049914,-1.388023452385687,119.76911976911977,0.0
8,-15.174896808790752,-1.8178334873018076,119.76911976911977,0.0
9,-15.7501023451957,-2.3252966558121604,119.76911976911977,0.0
10,-16.385106526300927,-2.8773064640816877,119.76911976911977,0.0
11,-17.04117158876698,-3.436136475777346,119.76911976911977,0.0
12,-17.675365366779186,-3.964008643972411,119.76911976911977,0.0
13,-18.246647079587497,-4.428080215112074,119.76911976911977,0.0
14,-18.72247999968385,-4.805112678712498,119.76911976911977,0.0
15,-19.08440639792095,-5.085006082566386,119.76911976911977,0.0
16,-19.33122950741799,-5.272448814937535,119.76911976911977,0.0
17,-19.479086871033008,-5.386156182619598,119.76911976911977,0.0
18,-19.558450785141797,-5.455527802020628,119.76911976911977,0.0
19,-19.608648739914084,-5.51499303101571,119.76911976911977,0.0
20,-19.67073029265598,-5.5967657007544105,119.76911976911977,0.0
21,-19.779502508548713,-5.723116087788242,119.76911976911977,0.0
22,-19.95552409151289,-5.899512434510322,119.76911976911977,0.0
23,-20.19797182898492,-6.110020409455947,119.76911976911977,0.0
24,-20.479602813299685,-6.316133443766525,119.76911976911977,0.0
25,-20.74536297755383,-6.4597335157000515,119.76911976911977,0.0
26,-20.916214997841806,-6.4701949931546014,119.76911976911977,0.0
27,-20.89914411654291,-6.274845695691585,119.76911976911977,0.0
28,-20.602913588357893,-5.811242177469059,119.76911976911977,0.0
29,-19.957227129559154,-5.039177579866351,119.76911976911977,0.0
30,-18.931163839012363,-3.9501785531230063,119.76911976911977,0.0
31,-17.54591936793549,-2.5725520681678287,119.76911976911977,0.0
32,-15.87764334231154,-0.9707941990137081,119.76911976911977,0.0
33,-14.048545702831541,0.7607686500837803,119.76911976911977,0.0
34,-12.20776867960343,2.5091047172383814,119.76911976911977,0.0
35,-10.506601329626402,4.156432758505117,119.76911976911977,0.0
36,-9.074267959404866,5.59456374873531,119.76911976911977,0.0
37,-8.000109552418191,6.7372146783140945,119.76911976911977,0.0
38,-7.325700639003238,7.528425119979392,119.76911976911977,0.0
39,-7.047261915240518,7.946102786550274,119.76911976911977,0.0
40,-7.125876775104153,8.000728221886263,119.76911976911977,1.0
41,-7.501395367784679,7.730112838240149,119.90897583166145,0.0
42,-8.105794752186258,7.191646414260248,120.05714288076632,0.0
43,-8.872945854134093,6.453617670148839,120.21354159823031,0.0
44,-9.743661548840818,5.586987786801826,120.37809478937523,0.0
45,-10.666793219228877,4.658569339138887,120.55072725118195,0.0
46,-11.598299426636736,3.7260716567543266,120.73136564307201,0.0
47,-12.500307291008717,2.835055885172646,120.91993836011018,0.0
48,-13.341399644016652,2.01757796771164,121.11637540841099,0.0
49,-14.098215198031635,1.2921950426867024,121.32060828254151,0.0
50,-14.757524219265985,0.6650254310302708,121.53256984472227,0.0
51,-15.317597660634007,0.13161500254880404,121.75219420563563,0.0
52,-15.787950178209906,-0.32058914235594027,121.97941660666032,0.0
53,-16.187169958303347,-0.7093565945824398,122.2141733033575,0.0
54,-16.539220062720215,-1.0546281411968441,122.45640145004135,0.0
55,-16.869045177325788,-1.3756145681937084,122.70603898527436,0.0
56,-17.198434548072612,-1.6883855346924028,122.96302451813362,0.0
57,-17.542914538289352,-2.004271588976976,123.22729721510127,0.0
58,-17.910102053744243,-2.32930083113612,123.49879668743823,0.0
59,-18.299594760268665,-2.664716938533792,123.77746287890578,0.0
60,-18.704217113236876,-3.0084056592497346,124.06323595370654,0.0
61,-19.112310307123536,-3.3568377159411185,124.35605618452043,0.0
62,-19.5106892975229,-3.7069706925687225,124.65586384051781,0.0
63,-19.88779650658104,-4.057491906897127,124.96259907523707,0.0
64,-20.236417723229263,-4.408865785177946,125.2762018142188,0.0
65,-20.555158869659895,-4.761884848605632,125.59661164229472,0.0
66,-20.84786591271413,-5.114790032154538,125.92376769043418,0.0
67,-21.12045151281372,-5.45946099843753,126.25760852205637,0.0
68,-21.375221817443066,-5.777582720166759,126.59807201872191,0.0
69,-21.603689211010014,-6.037954852463928,126.94509526512265,0.0
70,-21.779791749955955,-6.196118851858141,127.298614433294,0.0
71,-21.856085962350907,-6.197171617537082,127.65856466597928,0.0
72,-21.765456473423754,-5.982025063992879,128.0248799590818,0.0
73,-21.429908053823148,-5.496559598961822,128.39749304314557,0.0
74,-20.776084482664157,-4.702287210377362,128.77633526381194,0.0
75,-19.754743867977734,-3.586510014275758,129.16133646120522,0.0
76,-18.359344235628477,-2.1697375767667197,129.55242484820715,0.0
77,-16.638080993089265,-0.5084312596396434,129.9495268875858,0.0
78,-14.694768243134419,1.3080384271833014,130.3525671679526,0.0
79,-12.676793438463662,3.1661678007650673,130.76146827852722,0.0
80,-10.752162982176337,4.941535476396488,131.17615068269794,0.0
81,-9.081066837267784,6.5141685639872815,131.5965325903726,0.0
82,-7.789147681989147,7.783285817811413,132.02252982912407,0.0
83,-6.949104018304458,8.678799295489025,132.45405571414125,0.0
84,-6.574621484905182,9.167706656127057,132.89102091700718,0.0
85,-6.6269063580908645,9.254645268267291,133.33333333333334,1.0
86,-7.030601233370892,8.977102430467141,133.80724776227643,0.0
87,-7.693715108554471,8.396773564302238,134.3374292980517,0.0
88,-8.525950154357028,7.589106657635155,134.92142550020998,0.0
89,-9.451297116315452,6.633082996033502,135.55680004586065,0.0
90,-10.413258299235721,5.602830258386618,136.24110960216666,0.0
91,-11.373559335389304,4.561929633387012,136.97188140948137,0.0
92,-12.306913169404597,3.560498773183715,137.74659146007892,0.0
93,-13.194925001783997,2.634519038800378,138.5626431936469,0.0
94,-14.021669593574021,1.8065610595388089,139.41734666636847,0.0
95,-14.772244868130675,1.087074829160389,140.30789818616748,0.0
96,-15.434229880034163,0.4756806621364742,141.23136044305443,0.0
97,-16.00090657384537,-0.03770588416999199,142.18464320088694,0.0
98,-16.474614379855975,-0.47170672233183564,143.16448465549314,0.0
99,-16.868726487809354,-0.8518320369179391,144.16743360410035,0.0
100,-17.20728673278505,-1.207891051908138,145.1898326122826,0.0
101,-17.522042875808847,-1.5702022854558302,146.22780240691498,0.0
102,-17.847208991187017,-1.9647017167975243,147.27722776639985,0.0
103,-18.21267785851654,-2.4074714511015083,148.3337452219557,0.0
104,-18.63662546780478,-2.899586856148755,149.39273292501335,0.0
105,-19.11862078394722,-3.42339845398298,150.44930307441268,0.0
106,-19.634547822692078,-3.9413453607047773,151.4982973315101,0.0
107,-20.134801865076255,-4.3981050182966115,152.53428567954185,0.0
108,-20.54713940878227,-4.726343370869627,153.5515692034006,0.0
109,-20.785012918389018,-4.855627120078186,154.5441872748795,0.0
110,-20.761105551082693,-4.723335193672529,155.5059296237292,0.0
111,-20.40425345015999,-4.2858284960718604,156.43035375378315,0.0
112,-19.67644041665153,-3.5278637435397777,157.31080812319954,0.0
113,-18.58567812346255,-2.4683727112751415,158.14046144601946,0.0
114,-17.190888332362455,-1.1612849961291158,158.91233838664758,0.0
115,-15.596577113624619,0.3090445596539052,159.61936180807442,0.0
116,-13.93777682392853,1.8372209026285122,160.25440159813988,0.0
117,-12.358552564281927,3.3094976613752705,160.8103299365228,0.0
118,-10.98926242208291,4.617649257160785,161.28008268048174,0.0
119,-9.927967823228819,5.6717453231531705,161.65672634334615,0.0
120,-9.229840037188485,6.4098574107756034,161.93352992178976,0.0
121,-8.905757817357788,6.803408869649074,162.10404060322756,0.0
122,-8.928609247850035,6.857743938293818,162.16216216216216,1.0
123,-9.244082861225595,6.608330803413763,162.07913513773101,0.0
124,-9.782431978243514,6.113651657762725,161.83428169554375,0.0
125,-10.468634069401128,5.446175459570547,161.43461561745377,0.0
126,-11.229876911588454,4.68285091508587,160.88794254115555,0.0
127,-12.000625031284082,3.896363858454027,160.20272567137428,0.0
128,-12.72615984614054,3.1480745285989844,159.38795027095952,0.0
129,-13.36537625930086,2.4831822306449434,158.45299020110082,0.0
130,-13.893041445209265,1.9283242308048538,157.40747938156352,0.0
131,-14.301109686105114,1.4915330084928147,156.26119058005457,0.0
132,-14.598401484462727,1.1642545193163094,155.02392344497608,0.0
133,-14.80814169387751,0.9249624682443431,153.70540319560175,0.0
134,-14.96340855339309,0.7437859177337747,152.31519090170593,0.0
135,-15.101202696860843,0.587505653675977,150.86260583954692,0.0
136,-15.256305571325095,0.42428058367730515,149.35666001630017,0.0
137,-15.456171631592833,0.2275478869171097,147.80600461893766,0.0
138,-15.717775700354034,-0.021304036734233422,146.2188878699699,0.0
139,-16.046763424954786,-0.33168323687101275,144.6031235613607,0.0
140,-16.43865505647811,-0.7039310911027659,142.966069386199,0.0
141,-16.881430382755667,-1.1306153597507786,141.3146140900702,0.0
142,-17.358669119346718,-1.5986031845412318,139.6551724137931,0.0
143,-17.852510530654996,-2.091473980754977,137.99368678882942,0.0
144,-18.345933633221723,-2.5918503236444193,136.33563476861656,0.0
145,-18.82414632965328,-3.083310761646559,134.68604122598384,0.0
146,-19.275134799796543,-3.551676671846529,133.04949441192124,0.0
147,-19.689607818145372,-3.9856071434068845,131.43016504829757,0.0
148,-20.060634390933032,-4.376566357470472,129.83182771156177,0.0
149,-20.38321669217335,-4.718329729798417,128.25788385179803,0.0
150,-20.6539194559028,-5.006259399358378,126.71138587840713,0.0
151,-20.87057358356961,-5.236604071002984,125.19506182761994,0.0
152,-21.032034029200616,-5.406063404976863,123.71134020618557,0.0
153,-21.137988139148504,-5.511804216042653,122.2623746787075,0.0
154,-21.188842461749815,-5.552025868442935,120.85006833250776,0.0
155,-21.185746806933754,-5.5270487333093055,119.47609731328127,0.0
156,-21.130848086559904,-5.440751690495498,118.14193367716042,0.0
157,-21.02788595061985,-5.302031569093112,116.84886735038883,0.0
158,-20.88319076236027,-5.125830003245799,115.59802712700372,0.0
159,-20.70696935266108,-4.933211670115606,114.3904006682659,0.0
160,-20.514480808315813,-4.750024068325709,113.22685349563446,0.0
161,-20.326414623380593,-4.603853343536752,112.1081469924654,0.0
162,-20.167631781191037,-4.519316966496296,111.03495544893762,0.0
163,-20.063547133291305,-4.512166489336184,110.00788220057187,0.0
164,-20.03389960302503,-4.58313193378296,109.02747492368078,0.0
165,-20.084473705357908,-4.712807405184563,108.09424016171435,0.0
166,-20.198369532245003,-4.8590266149595305,107.20865716524429,0.0
167,-20.329370159048832,-4.958001748670768,106.3711911357341,0.0
168,-20.400401309257738,-4.9299571265035524,105.58230596970179,0.0
169,-20.309613969883955,-4.689132051722744,104.84247660580897,0.0
170,-19.945063520991944,-4.15701008259883,104.1522010831829,0.0
171,-19.206511527950884,-3.276690750046195,103.51201242527526,0.0
172,-18.030173806928893,-2.0257176169166398,102.92249047013978,0.0
173,-16.41022788656195,-0.42462896276894435,102.38427377554807,0.0
174,-14.410531863984229,1.4609021630240364,101.8980717362425,0.0
175,-12.161835695035498,3.525299181568477,101.46467706126353,0.0
176,-9.843530713892386,5.635145768493736,101.08497877215446,0.0
177,-7.653551817475719,7.646076898875297,100.75997589846256,0.0
178,-5.773780098482186,9.421434488170942,100.49079206594182,0.0
179,-4.339750864824076,10.849258433795256,100.27869119594874,0.0
180,-3.4220785372406954,11.854607885718,100.1250945625893,0.0
181,-3.0233120868746908,12.405306988405453,100.03159948829513,0.0
182,-3.0893251016629875,12.510688098130213,100.0,1.0
183,-3.5304440209594565,12.214376213536088,100.01925087981876,0.0
184,-4.2455271308417295,11.583256958056815,100.07607891201205,0.0
185,-5.142501195027886,10.695257869754958,100.16915592497442,0.0
186,-6.15097660537288,9.628392675250765,100.29722412974002,0.0
187,-7.225524064424564,8.45279634337047,100.45908678270419,0.0
188,-8.340995985257582,7.22646934422191,100.65359946501994,0.0
189,-9.483199987415519,5.9944510797810695,100.87966189242061,0.0
190,-10.638949363070695,4.790409995962374,101.13621018017217,0.0
191,-11.789015515295937,3.639318470309993,101.42220949746716,0.0
192,-12.90604086307179,2.5599867871997195,101.73664705407546,0.0
193,-13.957526442324683,1.5666554032427418,102.07852536967022,0.0
194,-14.912230849292394,0.6694088020592845,102.44685578312632,0.0
195,-15.74730167356842,-0.12631261827802787,102.840652165393,0.0
196,-16.453505358306884,-0.8205082160171635,103.25892480540158,0.0
197,-17.03689463544733,-1.4190663304822344,103.70067444399874,0.0
198,-17.516669583263692,-1.9333882265522577,104.16488643619093,0.0
199,-17.920254353365266,-2.3790285300500194,104.6505250271343,0.0
200,-18.277290546753008,-2.7735419853925385,105.15652773238101,0.0
201,-18.61421861595405,-3.1339939982282163,105.68179981796081,0.0
202,-18.950561208703597,-3.474710038654014,106.22520888098984,0.0
203,-19.297277762732932,-3.805786750204673,106.78557953670357,0.0
204,-19.656950895379147,-4.132691041566913,107.36168822313826,0.0
205,-20.025269490432976,-4.456988863919784,107.95225814016132,0.0
206,-20.393281995250018,-4.777942692373697,108.55595434518587,0.0
207,-20.750052450686624,-5.094464828199427,109.17137903369878,0.0
208,-21.08545975565801,-5.406770434468984,109.79706703866634,0.0
209,-21.392805757163696,-5.717079974612102,110.4314815889298,0.0
210,-21.67066200179502,-6.028892192782667,111.07301037281442,0.0
211,-21.923163523846817,-6.344672877764539,111.71996195927984,0.0
212,-22.157983940621246,-6.662233174184987,112.37056263495442,0.0
213,-22.381656111146402,-6.9705205124337795,113.0229537212045,0.0
214,-22.59272383013162,-7.24590558761819,113.67518944086187,0.0
215,-22.77422642307486,-7.450205659833329,114.32523540920945,0.0
216,-22.8878962685169,-7.531549353992821,114.97096782812473,0.0
217,-22.872794170278542,-7.428732036208611,115.6101734656992,0.0
218,-22.650575646849983,-7.0789881704845365,116.24055050596263,0.0
219,-22.138046737668226,-6.428259404683745,116.85971035430123,0.0
220,-21.26539106209332,-5.442269331335499,117.46518048351173,0.0
221,-19.996119574880122,-4.116246034973553,118.05440840291752,0.0
222,-18.34333761416309,-2.481128882072276,118.62476682832316,0.0
223,-16.377112357304746,-0.6046142600097315,119.17356012355758,0.0
224,-14.219765890614628,1.4136469826163425,119.69803207472089,0.0
225,-12.02926734492886,3.452203033286936,120.19537504582435,0.0
226,-9.97441025694223,5.381686531854465,120.66274054915849,0.0
227,-8.207869012070784,7.080037903192258,121.09725124537654,0.0
228,-6.843681866748191,8.446438331972397,121.49601436695916,0.0
229,-5.944125829942379,9.411677526918526,121.85613653455134,0.0
230,-5.517993783121194,9.943511068084595,122.17473990887007,0.0
231,-5.529029273332794,10.046635912624645,122.44897959183673,1.0
232,-5.910767517989233,9.757951014897268,122.70029092038493,0.0
233,-6.582960260418104,9.138529188851043,122.95183827790386,0.0
234,-7.465289410699378,8.264064155461053,123.20340340769296,0.0
235,-8.485831733638996,7.215461718268806,123.45476450149734,0.0
236,-9.583975082613764,6.0708216816460645,123.70569618499056,0.0
237,-10.70936204847889,4.899482134529855,123.95596951146064,0.0
238,-11.819340567616647,3.758251328412621,124.20535196403759,0.0
239,-12.877176838336318,2.689567120516612,124.45360746680466,0.0
240,-13.852231335889945,1.7211526313473118,124.70049640513591,0.0
241,-14.721975524718005,0.8667523499405159,124.94577565560347,0.0
242,-15.474700478988547,0.1276545520273722,125.18919862579607,0.0
243,-16.111394720090363,-0.5051620297804471,125.43051530438697,0.0
244,-16.64559297495048,-1.048350443701417,125.66947232178467,0.0
245,-17.10078660847406,-1.5231033474172744,125.90581302169252,0.0
246,-17.505862960424384,-1.9518609257919204,126.13927754389404,0.0
247,-17.88965959188557,-2.3551537947847923,126.3696029185707,0.0
248,-18.275901365106773,-2.748996419779543,126.59652317244431,0.0
249,-18.679559010143517,-3.1432373926982358,126.81976944702107,0.0
250,-19.10520161435698,-3.541152081387488,127.03907012919703,0.0
251,-19.547425319339354,-3.9403428161112677,127.25415099446259,0.0
252,-19.99307213667919,-4.334734264572814,127.46473536292267,0.0
253,-20.424733825266614,-4.7171792585876675,127.67054426832198,0.0
254,-20.82490379459937,-5.081991753306303,127.87129664023772,0.0
255,-21.180024650555364,-5.426659519331645,128.06670949957055,0.0
256,-21.483574315926553,-5.752098574969916,128.25649816743146,0.0
257,-21.73730821318176,-6.061099768622756,128.4403764874862,0.0
258,-21.9499257904739,-6.355049519707494,128.61805706177933,0.0
259,-22.13282937253365,-6.629503364779505,128.78925150001933,0.0
260,-22.29331058454091,-6.869640816784019,128.95367068226156,0.0
261,-22.426372858313584,-7.046907664146929,129.11102503487945,0.0
262,-22.5072930490888,-7.118147992723737,129.26102481966512,0.0
263,-22.48761253572526,-7.0281841829101985,129.40338043584987,0.0
264,-22.29713263596918,-6.716139895896468,129.53780273478048,0.0
265,-21.853396970309692,-6.124932234153723,129.66400334693319,0.0
266,-21.078133432448446,-5.212478479847008,129.7816950208882,0.0
267,-19.9176886449914,-3.9625027622393723,129.89059197383048,0.0
268,-18.362439745917865,-2.392598012285867,129.99041025308097,0.0
269,-16.459396616748716,-0.5575175530745151,130.08086810810212,0.0
270,-14.313295681107677,1.4534822092673858,130.16168637235833,0.0
271,-12.074384925996462,3.52522335342561,130.23258885435098,0.0
272,-9.914996365266399,5.529815467362571,130.29330273708294,0.0
273,-8.000537584488551,7.342179060023961,130.3435589851475,0.0
274,-6.462348383765935,8.855077082868075,130.3830927585722,0.0
275,-5.379226538546576,9.991005452506108,130.41164383248932,0.0
276,-4.77157376741521,10.709048712795555,130.4289570216442,0.0
277,-4.6081620779380765,11.005945655222153,130.43478260869566,1.0
278,-4.821943975797502,10.911823297856571,130.41173703424772,0.0
279,-5.32932747409629,10.482039091866206,130.34380001103693,0.0
280,-6.04738150686508,9.787104397739206,130.23283510986718,0.0
281,-6.9051866313129135,8.902675939157632,130.08078142313647,0.0
282,-7.848113728980446,7.901174133294214,129.88964142812836,0.0
283,-8.83621373794132,6.8459032967529225,129.66146914092607,0.0
284,-9.839415552260109,5.787832209210805,129.39835866194792,0.0
285,-10.832561735432158,4.764634833071021,129.10243320120424,0.0
286,-11.792568803736732,3.8012973440841256,128.7758346581876,0.0
287,-12.698588799736775,2.911576480758233,128.42071381812883,0.0
288,-13.534548307932413,2.099770633700037,128.03922121345508,0.0
289,-14.29241411737403,1.3625221348664136,127.63349868689816,0.0
290,-14.974327007011475,0.690594508788966,127.20567168101748,0.0
291,-15.592345716867912,0.07069045365280835,126.75784226807001,0.0
292,-16.165606651046776,-0.512620427693729,126.29208292429404,0.0
293,-16.715732141226173,-1.0748772886774973,125.8104310438501,0.0
294,-17.26189766829008,-1.6297289103229202,125.31488417992168,0.0
295,-17.81693845271672,-2.1871601243292993,124.80739599383666,0.0
296,-18.38536042824856,-2.7521593123400625,124.28987288750996,0.0
297,-18.963410681418775,-3.323992689838658,123.76417128999871,0.0
298,-19.540752989015793,-3.8961604820963682,123.23209556544766,0.0
299,-20.10296422327941,-4.457014159073029,122.69539650712184,0.0
300,-20.63405238731219,-4.990942819818717,122.15577038049943,0.0
301,-21.118427725449806,-5.4800037901536784,121.61485847745092,0.0
302,-21.542113069795477,-5.9058703470998495,121.07424714327601,0.0
303,-21.8933226225594,-6.251975998063323,120.53546823872345,0.0
304,-22.162755831382007,-6.505723911116208,120.0,0.0
305,-22.34399104789796,-6.660584876521033,119.46926826110091,0.0
306,-22.434242853328925,-6.717829315925776,118.944648004496,0.0
307,-22.435530608304504,-6.687552345837815,118.42746520820923,0.0
308,-22.356049415685195,-6.588597729408101,117.91899895957934,0.0
309,-22.21127221771909,-6.447015213893795,117.42048380842537,0.0
310,-22.024091808517724,-6.292835033951892,116.93311233491953,0.0
311,-21.82322967346814,-6.1552252337471,116.45803791014929,0.0
312,-21.63930961799748,-6.056483988714812,115.9963776300979,0.0
313,-21.49847897237678,-6.005738355671316,115.54921540656207,0.0
314,-21.414212891360844,-5.993565590128625,115.11760520133737,0.0
315,-21.37880823657847,-5.988903177166568,114.70257439282362,0.0
316,-21.35683706669208,-5.9394690109583355,114.30512726702554,0.0
317,-21.28320085105108,-5.7764300965415885,113.92624862774909,0.0
318,-21.06809366166111,-5.42327814180956,113.5669075236225,0.0
319,-20.609920863776004,-4.807929452544329,113.2280610924152,0.0
320,-19.815083682321845,-3.8761771625835535,112.91065852599856,0.0
321,-18.62101955691754,-2.6040280593821885,112.61564516221314,0.0
322,-17.01686915131161,-1.0063584017664582,112.34396671289876,0.0
323,-15.055599444707624,0.8601791666703553,112.09657364043822,0.0
324,-12.852943648052985,2.901028012229639,111.87442569839813,0.0
325,-10.571934380116945,4.994045733829012,111.67849665526221,0.0
326,-8.396057035663873,7.004568790206813,111.5097792238939,0.0
327,-6.4975930636961765,8.802503628928292,111.3692902232893,0.0
328,-5.009201201714468,10.278317721304195,111.25807600345931,0.0
329,-4.0056549861888815,11.355117329258166,111.17721816898091,0.0
330,-3.499404444820127,11.994942639691896,111.12783964197598,0.0
331,-3.4494950356527885,12.198726399899606,111.1111111111111,1.0
332,-3.779779799500363,12.000700755130808,111.11988712585098,0.0
333,-4.400378922176721,11.459064072566266,111.14584905367798,0.0
334,-5.2263967857332405,10.64520915108681,111.18845890760801,0.0
335,-6.189714185268393,9.633704711206558,111.2471923032149,0.0
336,-7.242419358694345,8.494618654755437,111.3215368827036,0.0
337,-8.353133160454414,7.2888995486975094,111.41099081337985,0.0
338,-9.499320616578824,6.066660339498015,111.51506135429366,0.0
339,-10.659279596072041,4.867565694106317,111.63326348548848,0.0
340,-11.806901250591249,3.7222437056323674,111.76511859489219,0.0
341,-12.910854502307314,2.65373384633769,111.91015321844394,0.0
342,-13.938074033528947,1.6783481209636901,112.0678978295705,0.0
343,-14.859894562221287,0.8057998229593013,112.23788567461018,0.0
344,-15.65835402600082,0.0388757114390792,112.41965165123716,0.0
345,-16.330316508035516,-0.6268315212089752,112.61273122736894,0.0
346,-16.888019119217887,-1.202602733139627,112.8166593984457,0.0
347,-17.35599004025229,-1.7053471677295255,113.03096968135755,0.0
348,-17.76546643047841,-2.155403974376259,113.25519314366768,0.0
349,-18.14804369546271,-2.5736786323224,113.48885746713357,0.0
350,-18.53019487113465,-2.9786329937413587,113.73148604487446,0.0
351,-18.929697926909313,-3.3837333747018086,113.98259711186427,0.0
352,-19.354249757084993,-3.7958890612533622,114.24170290875405,0.0
353,-19.801950799545263,-4.215210181094871,114.5083088793413,0.0
354,-20.263075127237663,-4.636130528316369,114.78191290231238,0.0
355,-20.722574498225317,-5.049638459856499,115.06200455818131,0.0
356,-21.162954647785728,-5.446096099740875,115.3480644326432,0.0
357,-21.56732564132033,-5.8179540795412334,115.63956345784344,0.0
358,-21.92242544585113,-6.161624822488417,115.93596229334229,0.0
359,-22.22121233501899,-6.477886304912831,116.23671074882309,0.0
360,-22.464322725280912,-6.770454276270729,116.54124725085171,0.0
361,-22.659514802109516,-7.042759597139579,116.84899835624422,0.0
362,-22.818391420787368,-7.29343908614485,117.15937831483643,0.0
363,-22.950319798676997,-7.511498847038398,117.47178868467311,0.0
364,-23.054440461018608,-7.672422044780952,117.78561800284061,0.0
365,-23.111705109350353,-7.736555388796434,118.10024151535778,0.0
366,-23.079631556696217,-7.650844694285389,118.41502096970737,0.0
367,-22.892544164547573,-7.3543955885942704,118.72930447373604,0.0
368,-22.469210733376233,-6.787498042792483,119.04242642476945,0.0
369,-21.727956365909005,-5.902847803733879,119.35370751287847,0.0
370,-20.606876532565533,-4.6769527413684795,119.66245480228831,0.0
371,-19.08444695950619,-3.1193514641837776,119.96796189494131,0.0
372,-17.194614239985583,-1.277445189756295,120.26950918020408,0.0
373,-15.031113919341205,0.7645293559631656,120.56636417464463,0.0
374,-12.738403149088652,2.8927133683112887,120.85778195569252,0.0
375,-10.490455118431655,4.976054620164328,121.14300569283235,0.0
376,-8.462368389401366,6.881853015988273,121.42126727976262,0.0
377,-6.801905841817664,8.491660122164596,121.69178807067632,0.0
378,-5.607926071161608,9.714738077011408,121.95377972348363,0.0
379,-4.920368273721813,10.496882186852016,122.20644515239718,0.0
380,-4.72293442391965,10.823468481034805,122.44897959183673,1.0
381,-4.956113000116815,10.716814917779368,122.69081950626644,0.0
382,-5.535761902644209,10.229028344479527,122.94159934313629,0.0
383,-6.371708335879132,9.432199034152411,123.2008019224785,0.0
384,-7.381773803484266,8.407981531653945,123.46790364820059,0.0
385,-8.498824246301865,7.238297262141515,123.74237372465561,0.0
386,-9.671051182369162,5.998268668306653,124.02367341066694,0.0
387,-10.857802525632586,4.751767786916648,124.31125531209663,0.0
388,-12.024246625436344,3.549344768272344,124.60456271432652,0.0
389,-13.137795228158234,2.4279323562345936,124.90302895629421,0.0
390,-14.167848875866875,1.411636546190917,125.20607684798874,0.0
391,-15.08869232551838,0.5130613405773159,125.51311813356335,0.0
392,-15.883938779142614,-0.26514212587390085,125.82355300246438,0.0
393,-16.550294041715066,-0.9285908959052247,126.13676965120395,0.0
394,-17.098740215671704,-1.4893262996880794,126.45214389861827,0.0
395,-17.55230825875618,-1.9638056260811645,126.76903885765242,0.0
396,-17.94094019425615,-2.3708324258549025,127.08680466689148,0.0
397,-18.294998490829112,-2.729647406487285,127.4047782852187,0.0
398,-18.639387745963017,-3.0584503982096445,127.72228335311621,0.0
399,-18.989930722774318,-3.3735537546428027,128.0386301242364,0.0
400,-19.352789385844492,-3.6891829904948192,128.35311547095142,0.0
401,-19.726700625245996,-4.017697609331685,128.66502296764034,0.0
402,-20.10695066146281,-4.369792880133522,128.97362305548728,0.0
403,-20.48954978363796,-4.754153024787427,129.2781732925397,0.0
404,-20.874039345405585,-5.17611962164928,129.5779186927124,0.0
405,-21.263716048707934,-5.635224545908262,129.87209215731167,0.0
406,-21.66271449374304,-6.121860715266301,130.15991500249515,0.0
407,-22.070254504750185,-6.613818564896683,130.4405975858749,0.0
408,-22.47329900681851,-7.073764251932184,130.71334003520616,0.0
409,-22.839682245528227,-7.4488459562655605,130.97733308178454,0.0
410,-23.11421929634779,-7.673401465926476,131.23175900079477,0.0
411,-23.22017363971007,-7.6751956504114744,131.47579266041453,0.0
412,-23.067589524209268,-7.3848266634370106,131.7086026809745,0.0
413,-22.568381842778123,-6.747076878861056,131.92935270491233,0.0
414,-21.6559550806274,-5.73227153113952,132.13720277763085,0.0
415,-20.30505701467183,-4.345361614884304,132.33131083868432,0.0
416,-18.54637957922595,-2.6306134013648705,132.51083432196782,0.0
417,-16.47086163235643,-0.6704855433551209,132.6749318627841,0.0
418,-14.220984670972376,1.421620620435101,132.82276510880305,0.0
419,-11.970024423665244,3.513793525251817,132.95350063102896,0.0
420,-9.89395121863719,5.471183223044417,133.06631192994396,0.0
421,-8.143004098517256,7.172012422357676,133.1603815310199,0.0
422,-6.8199673865962955,8.521280381466838,133.23490316278634,0.0
423,-5.969898108613823,9.45997874736201,133.28908400962536,0.0
424,-5.582441884955071,9.968650396369862,133.3221470304406,0.0
425,-5.604295591506579,10.065303469245828,133.33333333333334,1.0
426,-5.956994153168452,9.798740469651122,133.2967178768795,0.0
427,-6.554600513450847,9.239038462454705,133.18863456985005,0.0
428,-7.316991731637607,8.467110641457387,133.01188793748443,0.0
429,-8.176679668819396,7.565026793862061,132.7694728560189,0.0
430,-9.079621525887925,6.608221609017136,132.46454580298965,0.0
431,-9.98238901088359,5.660080642115645,132.1003963011889,0.0
432,-10.848768201588582,4.768852394313383,131.68041893881434,0.0
433,-11.648237737597839,3.966507243104479,131.20808630576343,0.0
434,-12.357233421118494,3.26906991423634,130.68692313975333,0.0
435,-12.962401210003014,2.6780290134504563,130.12048192771084,0.0
436,-13.463909486639672,2.182568791966099,129.5123201592522,0.0
437,-13.876752825459402,1.7624739958354319,128.86597938144328,0.0
438,-14.22878482440775,1.3915710473941232,128.1849661585755,0.0
439,-14.555531367778412,1.0414894728480864,127.47273499834756,0.0
440,-14.893070147140476,0.6854067691595601,126.73267326732673,0.0
441,-15.270940555447547,0.3013490030489112,125.96808808435198,0.0
442,-15.706975258330205,-0.1253821944048703,125.18219515092858,0.0
443,-16.205233029658473,-0.6009744279783031,124.37810945273633,0.0
444,-16.757186757047545,-1.123175532600122,123.55883774608088,0.0
445,-17.34537018377089,-1.6825429142442556,122.72727272727273,0.0
446,-17.948121660461926,-2.2645298165065935,121.88618877123484,0.0
447,-18.544013208271302,-2.85193870746559,121.03823911776574,0.0
448,-19.114944109797758,-3.427257350737902,120.18595437941484,0.0
449,-19.647491894197955,-3.974486858390984,119.33174224343675,0.0
450,-20.13270367537426,-4.480239424452183,118.47788824134385,0.0
451,-20.56490427958596,-4.934078020568217,117.6265574627516,0.0
452,-20.940229310303724,-5.32824342699149,116.77979709510255,0.0
453,-21.255481508849698,-5.657030995960486,115.9395396770869,0.0
454,-21.507633092420313,-5.9161247648019755,115.10760696081279,0.0
455,-21.693971802787324,-6.1021719095147935,114.28571428571428,0.0
456,-21.812647133943724,-6.21279980373051,113.47547537555916,0.0
457,-21.86330730271727,-6.247159489852983,112.67840747850764,0.0
458,-21.84762058043228,-6.206941060070803,111.89593677879573,0.0
459,-21.769646996835736,-6.097664469179076,111.12940401712216,0.0
460,-21.63614953260605,-5.929920450196079,110.38007026509102,0.0
461,-21.45694636219249,-5.720141374911876,109.64912280701753,0.0
462,-21.245313812286216,-5.4904476377272395,108.93768108998204,0.0
463,-21.018283341425935,-5.267170638394285,108.24680271017922,0.0
464,-20.796462317261117,-5.077822166693809,107.57748941034089,0.0
465,-20.602802880637764,-4.946567356855362,106.93069306930695,0.0
466,-20.459668845474898,-4.888639126007537,106.3073216706983,0.0
467,-20.383772392342184,-4.904542656700097,105.70824524312897,0.0
468,-20.379174925741296,-4.975240318522941,105.13430176951738,0.0
469,-20.429505116531818,-5.0596637055655,104.58630306786489,0.0
470,-20.491568939191474,-5.095766222805247,104.06504065040649,0.0
471,-20.49318523529308,-5.005853784044494,103.57129157236565,0.0
472,-20.337925402747185,-4.706144252031998,103.1058242857177,0.0
473,-19.91817231094569,-4.119539995710415,102.6694045174538,0.0
474,-19.13560162693734,-3.189670057917796,102.26280119590666,0.0
475,-17.925380902960608,-1.8936252680981296,101.88679245283019,0.0
476,-16.278070866529607,-0.250694279395836,101.54217173319795,0.0
477,-14.252507661821825,1.675075530177713,101.22975404919016,0.0
478,-11.974542282126773,3.7795711354257566,100.95038241967785,0.0
479,-9.620228550873463,5.93018303935796,100.70493454179253,0.0
480,-7.386710322698959,7.982402074979493,100.49432974701946,0.0
481,-5.457927503021163,9.798486692901406,100.31953630081,0.0
482,-3.9738381978095867,11.264791714357942,100.18157911214077,0.0
483,-3.010592104502672,12.304677452021041,100.08154792794129,0.0
484,-2.575599383517957,12.884937995262554,100.02060609708944,0.0
485,-2.617096743326644,13.015127180600674,100.0,1.0
486,-3.044077926790541,12.740646257738211,100.00238232871736,0.0
487,-3.750332171804774,12.131622373004474,100.00951134358041,0.0
488,-4.636178423763333,11.270194995488605,100.02136108985728,0.0
489,-5.623073967730985,10.23875371812456,100.03790692918452,0.0
490,-6.658967663956098,9.111031283729314,100.05912551557012,0.0
491,-7.715175036926649,7.946982535076465,100.08499477242033,0.0
492,-8.77780124497978,6.791363821055924,100.11549387055649,0.0
493,-9.837742489992772,5.6751305511479995,100.15060320718939,0.0
494,-10.882931446039901,4.61835865313387,100.19030438582035,0.0
495,-11.895072296819148,3.633404816323012,100.23458019703982,0.0
496,-12.851218848224663,2.7273659826539305,100.28341460019487,0.0
497,-13.728826459404848,1.9034175246492104,100.33679270590005,0.0
498,-14.511875841652294,1.161119602158855,100.39470075936471,0.0
499,-15.195585473334164,0.49613682917902713,100.45712612451399,0.0
500,-15.788023769452385,-0.1000546183972495,100.52405726887939,0.0
501,-16.308220224868172,-0.639986570967642,100.59548374923754,0.0
502,-16.781625679102397,-1.1392918919406374,100.67139619797611,0.0
503,-17.234529573279126,-1.6150933737932562,100.75178631016685,0.0
504,-17.689105307588722,-2.083936871591938,100.83664683132713,0.0
505,-18.160227668390952,-2.5596368340114224,100.92597154585167,0.0
506,-18.65440665758436,-3.0514055889054212,101.01975526609766,0.0
507,-19.170467839318032,-3.5625524973360436,101.11799382210683,0.0
508,-19.70121890281548,-4.0899132850520346,101.22068405194914,0.0
509,-20.235326031673356,-4.624049682642213,101.32782379267348,0.0
510,-20.75887989050959,-5.150173438487029,101.43941187185156,0.0
511,-21.256493026057214,-5.649701442289369,101.55544809970152,0.0
512,-21.712083448431848,-6.102324819703396,101.67593326177943,0.0
513,-22.109660074271282,-6.488450054113548,101.80086911222625,0.0
514,-22.434400991271435,-6.791823954929154,101.93025836755984,0.0
515,-22.674146605229417,-7.002080491620693,102.06410470100082,0.0
516,-22.821211297105265,-7.116859367141312,102.20241273732287,0.0
517,-22.874239588505933,-7.143074638475957,102.34518804821835,0.0
518,-22.83972541814812,-7.096897729909053,102.49243714816996,0.0
519,-22.732744955113414,-7.002102148859606,102.64416749082059,0.0
520,-22.57639727048606,-6.886621095978849,102.800387465834,0.0
521,-22.39944388661348,-6.777489949530705,102.96110639623879,0.0
522,-22.231791005206365,-6.694742856850644,103.12633453624892,0.0
523,-22.097860249780847,-6.645228904345274,103.2960830695555,0.0
524,-22.008551577520123,-6.6176042591751605,103.47036410808325,0.0
525,-21.953302910822828,-6.5798330852210505,103.6491906912068,0.0
526,-21.894467180838227,-6.4803087913528925,103.83257678542228,0.0
527,-21.766539626368434,-6.253164157569544,104.02053728446968,0.0
528,-21.482334755653287,-5.827533622974282,104.21308800990204,0.0
529,-20.946823196985267,-5.13961174508232,104.41024571209817,0.0
530,-20.077120589041083,-4.145533262715559,104.61202807171573,0.0
531,-18.824661008919012,-2.8326137988758027,104.81845370158226,0.0
532,-17.193827514115362,-1.2265173589866725,105.02954214902131,0.0
533,-15.251180766616873,0.6074759516566064,105.24531389861264,0.0
534,-13.121357871231917,2.5698279574084237,105.46579037538415,0.0
535,-10.969312319793053,4.538092968023709,105.69099394843504,0.0
536,-8.972649905435796,6.382338117514992,105.92094793498919,0.0
537,-7.290882155738182,7.981822246338693,106.1556766048781,0.0
538,-6.039322135056483,9.239870833969164,106.39520518545405,0.0
539,-5.273807335630618,10.094338420321339,106.63955986693298,0.0
540,-4.989099500472371,10.522086222011223,106.88876780816847,0.0
541,-5.129896031832612,10.53724378885332,107.14285714285714,1.0
542,-5.6101519608795805,10.184320109788704,107.47329528976822,0.0
543,-6.334747991105341,9.528161734956766,107.94769783756318,0.0
544,-7.217764976377476,8.643121158671661,108.56098102871617,0.0
545,-8.19345160880908,7.603562125657082,109.30882120466624,0.0
546,-9.218651693744356,6.477117282939506,110.18751012377643,0.0
547,-10.268069969139722,5.3211693168275955,111.19382251206338,0.0
548,-11.325545100924304,4.182127778343724,112.32489158941765,0.0
549,-12.375094444031877,3.0964552984015974,113.57808892624979,0.0
550,-13.394932283208293,2.0921907751309092,114.95090545338286,0.0
551,-14.35626607575854,1.189927122433153,116.4408308174872,0.0
552,-15.226923779457165,0.4027154445644465,118.04522858422197,0.0
553,-15.97828544589018,-0.2649990185429938,119.761205076547,0.0
554,-16.59303327581773,-0.8187522468549189,121.58546993015004,0.0
555,-17.071126545534042,-1.2747836835530055,123.51418678596202,0.0
556,-17.432073390998276,-1.6591622526168877,125.54281295756391,0.0
557,-17.712673614229928,-2.0047155929548772,127.66592744776908,0.0
558,-17.96052966739875,-2.345735261461239,129.877047385062,0.0
559,-18.224473588024452,-2.7110883198876796,132.16843384943346,0.0
560,-18.543563166876154,-3.1169413546251694,134.53088919965214,0.0
561,-18.93655339170488,-3.5606465310720425,136.953549435546,0.0
562,-19.393854314465404,-4.017347785350588,139.42367685226526,0.0
563,-19.87393023522851,-4.440504623841943,141.92646026967486,0.0
564,-20.305730278976412,-4.766846696711757,144.44483241578237,0.0
565,-20.597896840192735,-4.9253866339682,146.95931652667383,0.0
566,-20.654140971904713,-4.849212557613944,149.4479167507076,0.0
567,-20.392509527405917,-4.488060967611587,151.8860692867867,0.0
568,-19.764744921359352,-3.8193200404248224,154.24667303199794,0.0
569,-18.771128375654783,-2.855247749057982,156.50021946154132,0.0
570,-17.46659881275003,-1.6448156972433523,158.61504104193668,0.0
571,-15.955727943771427,-0.26959349362158025,160.55769518551483,0.0
572,-14.376969941843058,1.1657472162393694,162.29349612810782,0.0
573,-12.879639586918968,2.5466732222975432,163.78719982806155,0.0
574,-11.599215329130624,3.7634372770022355,165.00383697574907,0.0
575,-10.636956498021682,4.7246064983924185,165.90967678193456,0.0
576,-10.04827337376892,5.367293349187888,166.4732901728506,0.0
577,-9.841398082886544,5.662681608020087,166.66666666666669,1.0
578,-9.984814777961898,5.616420936021671,166.631858658135,0.0
579,-10.419775558752232,5.264411497193233,166.52937904480854,0.0
580,-11.073708306212154,4.665210654080799,166.36225757912842,0.0
581,-11.871321841008804,3.8906538732375004,166.13365605654818,0.0
582,-12.742029839357526,3.0162849265678786,165.8468451566178,0.0
583,-13.62404158683811,2.11291597769872,165.50518190975345,0.0
584,-14.46642969132655,1.240209555485864,165.11208801152173,0.0
585,-15.230484606405025,0.44271258519743023,164.67102917477544,0.0
586,-15.890970838088826,-0.2516364658603847,164.18549567790785,0.0
587,-16.437036427015094,-0.8308217404629328,163.65898423568746,0.0
588,-16.872002889704625,-1.2963959256881838,163.09498128831441,0.0
589,-17.2113367339098,-1.6600946679730502,162.49694777511792,0.0
590,-17.478699100903782,-1.9400995571274535,161.86830543216954,0.0
591,-17.700753775516002,-2.157587747418672,161.2124246283876,0.0
592,-17.901988896223134,-2.334072100028161,160.5326137326994,0.0
593,-18.100908316632466,-2.4898118106672444,159.83210998565215,0.0
594,-18.30854037649565,-2.6432845028685317,159.11407183256838,0.0
595,-18.52947015139715,-2.8114087401622356,158.38157266189427,0.0
596,-18.764802748451903,-3.0099633832286634,157.63759588169012,0.0
597,-19.01586058967639,-3.25354255152698,156.88503125910862,0.0
598,-19.287150386670266,-3.5544669223247096,156.12667244200597,0.0
599,-19.587238972910328,-3.9203561408207883,155.36521557831747,0.0
600,-19.926625856515642,-4.3505102856715325,154.60325894726563,0.0
601,-20.312451170379187,-4.83175323134682,153.84330351661748,0.0
602,-20.740852649884317,-5.334822340390192,153.08775434182851,0.0
603,-21.18881461668471,-5.8126055458594905,152.33892272577447,0.0
604,-21.608147532959915,-6.20141956983127,151.59902906166243,0.0
605,-21.924448234937447,-6.426053551106394,150.87020628643086,0.0
606,-22.043234193222858,-6.4085284937242575,150.15450387731366,0.0
607,-21.86384723165349,-6.0796001251451735,149.4538923301006,0.0
608,-21.299432002602256,-5.391186299701234,148.77026806383606,0.0
609,-20.298915164829403,-4.327370540531524,148.10545870315144,0.0
610,-18.8652980261836,-2.911607146333279,147.46122869602624,0.0
611,-17.064554857018038,-1.208299267003455,146.8392852314519,0.0
612,-15.02138989412625,0.6820449320050557,146.24128442817835,0.0
613,-12.901665658438999,2.6335799026800686,145.66883777242248,0.0
614,-10.885317821038605,4.510079806848953,145.12351878909706,0.0
615,-9.136519917958797,6.181485580023983,144.60686993777975,0.0
616,-7.778596418514912,7.539167064606666,144.1204097312997,0.0
617,-6.879440826498589,8.507396431948559,143.66564008151215,0.0
618,-6.449719484459526,9.049426726918812,143.24405388359872,0.0
619,-6.452302283397357,9.16773803791957,142.85714285714286,1.0
620,-6.818518939075815,8.899145197953828,142.4956237877265,0.0
621,-7.465798733920533,8.306287824938044,142.14863056051638,0.0
622,-8.312056256016021,7.467393188309107,141.81530160743026,0.0
623,-9.284260597930349,6.466107033641017,141.49479683229862,0.0
624,-10.321093589778028,5.382745931341383,141.1862960564398,0.0
625,-11.371597348443805,4.287726889023583,140.8889975864362,0.0
626,-12.392619373188397,3.237366989371043,140.60211689675725,0.0
627,-13.347497430566294,2.2718505972866327,140.32488542060221,0.0
628,-14.207090697623752,1.414978708684227,140.05654944298558,0.0
629,-14.952636951045585,0.6753054979980226,139.79636909067088,0.0
630,-15.578751452041105,0.04834249451178829,139.5436174140821,0.0
631,-16.094659784894517,-0.48042179898509674,139.29757955678687,0.0
632,-16.52247251900742,-0.9319380383976372,139.0575520085617,0.0
633,-16.892534788703735,-1.3297698774200115,138.82284193841713,0.0
634,-17.237021819166532,-1.696447875388749,138.5927666042876,0.0
635,-17.583540329649928,-2.0504900633734633,138.36665283637407,0.0
636,-17.950389969907082,-2.40454447139498,138.14383659137874,0.0
637,-18.34450194050605,-2.764953807175028,137.9236625750834,0.0
638,-18.76223073649437,-3.1327774195925135,137.70548393090579,0.0
639,-19.192444325007624,-3.5059830741865348,137.4886619922215,0.0
640,-19.620923488391565,-3.882217019611386,137.27256609636177,0.0
641,-20.034968446985918,-4.261355341244344,137.05657345829525,0.0
642,-20.427224372536923,-4.646997445864003,136.84006910207552,0.0
643,-20.797936305626344,-5.046218268458528,136.62244584818433,0.0
644,-21.155032108834416,-5.46724439366327,136.40310435492833,0.0
645,-21.511621285134964,-5.915212457794243,136.1814532120535,0.0
646,-21.880799472468443,-6.386717116333208,135.95690908472855,0.0
647,-22.268183019540807,-6.864341505341501,135.72889690601784,0.0
648,-22.663371637730485,-7.312655700368722,135.496850115917,0.0
649,-23.03237676571211,-7.6771557931544505,135.2602109449601,0.0
650,-23.31364000787243,-7.887235911583558,135.01843074033235,0.0
651,-23.420239415603188,-7.863556066955019,134.77097033232994,0.0
652,-23.24996618271481,-7.529204256483321,134.5173004389101,0.0
653,-22.703094577983354,-6.823053117308272,134.25690210596233,0.0
654,-21.705164669355746,-5.712930287371722,133.98926718081384,0.0
655,-20.229677766106054,-4.20589469058511,133.71389881635838,0.0
656,-18.314283960798267,-2.353189288907829,133.4303120030661,0.0
657,-16.064710469889782,-0.24832964611653074,133.13803412600268,0.0
658,-13.64356727862408,1.9818767099843062,132.83660554385114,0.0
659,-11.245517695316192,4.192106710045419,132.52558018679895,0.0
660,-9.064563509797877,6.236566247926298,132.2045261700242,0.0
661,-7.261698584272498,7.987069636481683,131.87302641939124,0.0
662,-5.940953643382101,9.347948528550377,131.53067930584936,0.0
663,-5.139059263620432,10.26533217974591,131.1770992849224,0.0
664,-4.829761406709102,10.72960166250843,130.81191753757935,0.0
665,-4.939784275439755,10.771259909172716,130.43478260869566,1.0
666,-5.370803822474037,10.45171542209448,130.01956906162445,0.0
667,-6.021144589175017,9.851265138408024,129.54250568336425,0.0
668,-6.802115784952503,9.056746309147005,129.0068677573606,0.0
669,-7.646334604026553,8.150945790933605,128.4160185848672,0.0
670,-8.508170534790898,7.205087318102462,127.77338366757655,0.0
671,-9.35870110179627,6.274816326836856,127.08242610411924,0.0
672,-10.178656914177555,5.399313567675025,126.34662341963086,0.0
673,-10.95256333281544,4.602663804007283,125.56944600271349,0.0
674,-11.665972532842044,3.8964446213212947,124.75433728031464,0.0
675,-12.305978267134662,3.282635875176564,123.90469571933811,0.0
676,-12.863810463531049,2.756263601885178,123.02385870501499,0.0
677,-13.337673778349401,2.3075427974144542,122.11508831082293,0.0
678,-13.734208370189114,1.923556547222075,121.18155894346901,0.0
679,-14.06776362081674,1.5896448125659477,120.2263468193892,0.0
680,-14.357660130103003,1.2906754364638149,119.25242120644535,0.0
681,-14.62436368528818,1.0122784097356357,118.26263734596091,0.0
682,-14.88576980651784,0.7420065042726747,117.25973095575651,0.0
683,-15.15459020522728,0.47029770048946595,116.24631420416873,0.0
684,-15.437318897952528,0.19108912060766903,115.22487303783399,0.0
685,-15.734689744884218,-0.09802932631727979,114.19776574193068,0.0
686,-16.0431365795867,-0.3961513168433053,113.16722261020753,0.0
687,-16.356635113339724,-0.699815572894811,112.13534660308784,0.0
688,-16.66841363846062,-1.0040489609415653,111.10411487504358,0.0
689,-16.97225054875958,-1.303503645730619,110.07538105690735,0.0
690,-17.263302616009366,-1.5934963258138986,109.05087818449121,0.0
691,-17.538548658509114,-1.8707878960728306,108.03222217149428,0.0
692,-17.79696899131283,-2.133996218619704,107.02091573192855,0.0
693,-18.03953240051089,-2.3836011888238713,106.01835266492719,0.0
694,-18.268973945411037,-2.6215695324064447,105.02582242261576,0.0
695,-18.48928318743953,-2.8506882120410055,104.04451488954736,0.0
696,-18.704848116638935,-3.0737425123636766,103.07552530988589,0.0
697,-18.919332000742223,-3.292700877118849,102.11985930595512,0.0
698,-19.13453237185254,-3.5080676055419455,101.1784379388649,0.0
699,-19.349565126353124,-3.7185338836802684,100.25210276862197,0.0
700,-19.560651893971603,-3.921000007018931,99.3416208773825,0.0
701,-19.76159190690304,-4.110966248431923,98.44768982528525,0.0
702,-19.94478190629068,-4.283211387840052,97.57094251360601,0.0
703,-20.102513719081927,-4.432613646580535,96.71195193479417,0.0
704,-20.228256608975283,-4.554934149575864,95.87123579330392,0.0
705,-20.317681678692008,-4.6473880024328915,95.04926098503155,0.0
706,-20.369262856444987,-4.708874487054708,94.24644792663828,0.0
707,-20.384375163174052,-4.739818772525027,93.46317472910462,0.0
708,-20.36690093288982,-4.741677901264589,92.69978121255303,0.0
709,-20.32243464322349,-4.716262711381058,91.95657276172543,0.0
710,-20.257232813571,-4.665101074761657,91.23382402353782,0.0
711,-20.1770928252676,-4.589093854062208,90.53178244989243,0.0
712,-20.086381712358534,-4.4886766694952005,89.85067169043359,0.0
713,-19.98747006032233,-4.364592102423208,89.19069484122139,0.0
714,-19.880818377335604,-4.219207802892882,88.55203755639374,0.0
715,-19.76586841816266,-4.058113462864917,87.93487103081826,0.0
716,-19.64270062582724,-3.8915381708414207,87.33935486252942,0.0
717,-19.514165841788387,-3.7350050193161017,86.76563980442592,0.0
718,-19.387936054085134,-3.608638019688646,86.21387041528875,0.0
719,-19.277694739987833,-3.5346983933442693,85.68418762069915,0.0
720,-19.202568253503998,-3.533262464435106,85.17673119490087,0.0
721,-19.18399194919136,-3.6164257703690543,84.6916421750856,0.0
722,-19.239630622201403,-3.7819415038689543,84.2290652200037,0.0
723,-19.374788547100426,-4.007648102056409,83.78915092522583,0.0
724,-19.57284950901238,-4.248265322374684,83.3720581078294,0.0
725,-19.78738746665427,-4.436015660947118,82.97795607376763,0.0
726,-19.93923953297775,-4.485998039356463,82.60702688171759,0.0
727,-19.92156384866415,-4.306343932250769,82.25946761781643,0.0
728,-19.614410195997735,-3.812078743987354,81.93549269639524,0.0
729,-18.907694568132882,-2.9405457846455523,81.63533620263117,0.0
730,-17.72831863543996,-1.665519690713032,81.35925429397936,0.0
731,-16.064624740642156,-0.006992230060618887,81.10752767834094,0.0
732,-13.980659461658279,1.9658187224458157,80.88046418819337,0.0
733,-11.614594360372825,4.139466594789367,80.6784014713908,0.0
734,-9.159878192681713,6.36888948362415,80.50170982105851,0.0
735,-6.832913772419001,8.495615887022932,80.35079516900053,0.0
736,-4.835293752113999,10.368309799636712,80.2261022693551,0.0
737,-3.320226923696812,11.86189996431897,80.12811810191391,0.0
738,-2.3711965093452445,12.891894379209246,80.05737552763702,0.0
739,-1.9968996135626729,13.421595330031941,80.01445723249999,0.0
740,-2.141739263666967,13.461502261326816,80.0,1.0
741,-2.707209010369149,13.061812685650692,80.04000599781595,0.0
742,-3.577455042058786,12.30021046493395,80.15795390806345,0.0
743,-4.642372582085101,11.26779147880099,80.351051665193,0.0
744,-5.8134048365541195,10.05592791916978,80.61688016305125,0.0
745,-7.029983028034835,8.746212612964005,80.95334323150347,0.0
746,-8.257355922389308,7.404594127616287,81.35862310268938,0.0
747,-9.478620427196857,6.079713318568221,81.83114020251742,0.0
748,-10.684659074316619,4.804557907094482,82.36951627885452,0.0
749,-11.865428885636023,3.600044932070488,82.97254001559186,0.0
750,-13.00495369313027,2.479075123234007,83.63913438977971,0.0
751,-14.080880350252095,1.4499096566343603,84.36832511393905,0.0
752,-15.067975542729878,0.5182443689893379,85.15920957279315,0.0
753,-15.943813717406908,-0.31208545229738904,86.01092571741012,0.0
754,-16.694409031135503,-1.0394056319027185,86.92262042388136,0.0
755,-17.317793636018322,-1.6649365402124845,87.89341686155409,0.0
756,-17.824425941071546,-2.193414311601615,88.92238045066007,0.0
757,-18.234484998371574,-2.6332575645212937,90.0084830240543,0.0
758,-18.573134451690116,-2.9962104208241267,91.15056484588827,0.0
759,-18.86537531603024,-3.296624766453638,92.34729418475833,0.0
760,-19.132030353372887,-3.550654488995449,93.59712419380891,0.0
761,-19.387835032774145,-3.775593006746634,94.89824691934659,0.0
762,-19.641819769638598,-3.9894208479723057,96.24854434695199,0.0
763,-19.89943501908985,-4.2104141896008045,97.64553650433376,0.0
764,-20.16538502507692,-4.456488652061541,99.0863267778739,0.0
765,-20.44597176391115,-4.743895599499006,100.56754476952322,0.0
766,-20.749894204136474,-5.084996006403273,102.08528722661404,0.0
767,-21.08683704345527,-5.485104940450139,103.63505782263864,0.0
768,-21.463732743425165,-5.938771171993002,105.21170685405109,0.0
769,-21.879201472098572,-6.426233708850522,106.80937224644867,0.0
770,-22.31728382839991,-6.911063688605083,108.42142362969442,0.0
771,-22.74209918655913,-7.340049821954082,110.04041163802887,0.0
772,-23.095371072084482,-7.64615301589844,111.65802500492472,0.0
773,-23.29868191545656,-7.754841276141775,113.26505843367744,0.0
774,-23.26165870055015,-7.593397948112698,114.85139460616709,0.0
775,-22.895971468607794,-7.102024617545404,116.40600400827816,0.0
776,-22.13323714279739,-6.24492722377017,117.91696645732904,0.0
777,-20.943162743403366,-5.019268624737762,119.37151826364796,0.0
778,-19.347222093288586,-3.460022103007978,120.7561287896337,0.0
779,-17.423442911689424,-1.6393906303596246,122.05660972933066,0.0
780,-15.29970475920464,0.33953998314965395,123.25825966946482,0.0
781,-13.135947164745119,2.354089262262568,124.34604537225984,0.0
782,-11.098945370558173,4.276357035212733,125.30481972715428,0.0
783,-9.335668411308147,5.988191233390344,126.11957447110045,0.0
784,-7.9517663093508855,7.394173206861161,126.77572363479177,0.0
785,-7.000174554669344,8.430541131313873,127.25941134110653,0.0
786,-6.4817093999681035,9.068907646560907,127.55783521614197,0.0
787,-6.355977411070844,9.314749987731057,127.65957446808511,1.0
788,-6.558184611495814,9.20166807531142,127.65433887212906,0.0
789,-7.016384559350465,8.783075601499696,127.63888235363962,0.0
790,-7.664540891743057,8.123184922658812,127.61358372868996,0.0
791,-8.448977823099549,7.288885942406112,127.57882589111848,0.0
792,-9.328399348313605,6.343543165942243,127.53499523821618,0.0
793,-10.269716535554068,5.343051880089839,127.48248111567938,0.0
794,-11.242826585322346,4.333908266191187,127.42167528296663,0.0
795,-12.217130583257301,3.3526988470110206,127.35297140006728,0.0
796,-13.16129025054075,2.4263449462518327,127.27676453655951,0.0
797,-14.046097625560632,1.57259724606255,127.19345070371148,0.0
798,-14.848996858635076,0.8005524883824466,127.10342641025619,0.0
799,-15.558213967797816,0.1112329952909843,127.0070882423569,0.0
800,-16.174749511747244,-0.5015669231466804,126.90483246816683,0.0
801,-16.711439873673193,-1.0499473611253116,126.79705466728343,0.0
802,-17.18942588750598,-1.5499764993683662,126.68414938529797,0.0
803,-17.63320193852596,-2.019254458699234,126.56650981354807,0.0
804,-18.065676472935852,-2.474240035149521,126.44452749409605,0.0
805,-18.504375877543556,-2.927742749240986,126.31859204987545,0.0
806,-18.959322911212773,-3.387016909543216,126.18909093987617,0.0
807,-19.432538824746768,-3.852827235132719,126.05640923917287,0.0
808,-19.918772673535738,-4.319703977538738,125.92092944354273,0.0
809,-20.406995506973058,-4.777399063486349,125.78303129836581,0.0
810,-20.88232220961775,-5.21332724289905,125.64309165145681,0.0
811,-21.32820730549356,-5.615561302232946,125.5014843294374,0.0
812,-21.728885586045788,-5.975781863862787,125.35858003722628,0.0
813,-22.072008088073655,-6.291494964716,125.21474628019762,0.0
814,-22.35122258726069,-6.566858636348279,125.07034730853847,0.0
815,-22.568119158742974,-6.811629586120552,124.9257440833211,0.0
816,-22.73266714046153,-7.038059711621366,124.78129426379758,0.0
817,-22.86122417857179,-7.256013542866966,124.63735221542044,0.0
818,-22.971558437321047,-7.467074110288123,124.494269038095,0.0
819,-23.07510659288396,-7.65884914878032,124.35239261417502,0.0
820,-23.167749307519486,-7.80095306260841,124.21206767572552,0.0
821,-23.221446899842732,-7.844103847814295,124.07363589059153,0.0
822,-23.17976534093128,-7.723369223276522,123.93743596683196,0.0
823,-22.96022292499595,-7.36583943789208,123.80380377510201,0.0
824,-22.465198143028335,-6.702016588715926,123.67307248859491,0.0
825,-21.600887060794996,-5.679205907145121,123.54557274018624,0.0
826,-20.301000674354658,-4.274436307532675,123.42163279645881,0.0
827,-18.54949529690699,-2.5041671125961664,123.30157874832513,0.0
828,-16.39568263503101,-0.4283979902156636,123.18573471800647,0.0
829,-13.956255218737414,1.8522253777521351,123.07442308217303,0.0
830,-11.402011067626422,4.206316266428859,122.96796471109796,0.0
831,-8.931432702315838,6.487168971728382,122.86667922373069,0.0
832,-6.7372738815866375,8.550984049201947,122.7708852586488,0.0
833,-4.97448196759266,10.274563005948066,122.6809007609072,0.0
834,-3.737349441822528,11.569286063324334,122.59704328486374,0.0
835,-3.050938157046478,12.389060931208661,122.51963031312665,0.0
836,-2.8775953268258765,12.731295842446995,122.44897959183673,1.0
837,-3.135217658800661,12.631445378027458,122.38155410377918,0.0
838,-3.7211207977963903,12.152923967576712,122.313658322553,0.0
839,-4.534681094456806,11.374890865536742,122.24537238266106,0.0
840,-5.493320907914468,10.38045920320827,122.17677607469562,0.0
841,-6.5392016078173,9.247334784934623,122.1079488412723,0.0
842,-7.637101267325576,8.041963641743681,122.03896977401384,0.0
843,-8.766390385742744,6.817252230708961,121.96991761157264,0.0
844,-9.911178974987063,5.613096793946346,121.90087073867974,0.0
845,-11.052477030180246,4.458504262965766,121.83190718620845,0.0
846,-12.164865804649454,3.3740606665606503,121.76310463224071,0.0
847,-13.218248785253119,2.373830430070509,121.6945404041243,0.0
848,-14.1833838312124,1.466288806512619,121.62629148150913,0.0
849,-15.038690275004393,0.6544092161397639,121.55843450035117,0.0
850,-15.775633130443628,-0.0646113266025834,121.49104575787241,0.0
851,-16.400778868483307,-0.6993871618413061,121.42420121846584,0.0
852,-16.933986551123105,-1.2636600367492217,121.35797652053468,0.0
853,-17.403554860499177,-1.7747051778190865,121.29244698425542,0.0
854,-17.8399885801373,-2.250977704685983,121.22768762025458,0.0
855,-18.27016736885304,-2.7094330135182982,121.16377313918966,0.0
856,-18.713214281091876,-3.1631012859952525,121.10077796222497,0.0
857,-19.178598491311664,-3.619475225233331,121.03877623239437,0.0
858,-19.666312101124632,-4.08009707767657,120.97784182684214,0.0
859,-20.16855264755989,-4.541454892780841,120.91804836993532,0.0
860,-20.67226285267935,-4.996983938385754,120.85946924724055,0.0
861,-21.162027459144245,-5.4396838158181575,120.80217762035944,0.0
862,-21.62303064925715,-5.864663643749532,120.74624644261725,0.0
863,-22.043866215687206,-6.270862137647087,120.69174847560072,0.0
864,-22.418877876715754,-6.661285126508242,120.6387563065409,0.0
865,-22.749443353785047,-7.041366550314304,120.58734236653899,0.0
866,-23.043396849567774,-7.415467288745221,120.53757894963266,0.0
867,-23.31185250318848,-7.7820200594313444,120.48953823270243,0.0
868,-23.563201899560113,-8.128311951134236,120.44329229621813,0.0
869,-23.794983902488298,-8.426246724570538,120.39891314582657,0.0
870,-23.9854399222819,-8.630523386180002,120.35647273478271,0.0
871,-24.087500235921894,-8.680416765963214,120.31604298722748,0.0
872,-24.02825862870617,-8.505732924656172,120.27769582231704,0.0
873,-23.71629865652553,-8.036618124451527,120.24150317920926,0.0
874,-23.057390823488078,-7.215904873720505,120.20753704291357,0.0
875,-21.97638650565676,-6.011829895676481,120.17586947101383,0.0
876,-20.44040769102222,-4.428510436274385,120.14657262127237,0.0
877,-18.476792062956008,-2.511699564864314,120.1197187801272,0.0
878,-16.179646279293934,-0.3481008501761087,120.09538039209427,0.0
879,-13.701532122405464,1.9422223105980327,120.07363009008891,0.0
880,-11.231045621110663,4.219341882682863,120.05454072668185,0.0
881,-8.96137816860345,6.340554892904551,120.038185406307,0.0
882,-7.057762492434576,8.177949538694397,120.02463751843918,0.0
883,-5.631976170552913,9.633240892153063,120.01397077176352,0.0
884,-4.729781579643099,10.647323834890551,120.00625922935718,0.0
885,-4.333243171453125,11.20320964059766,120.0015773449086,0.0
886,-4.375674316123048,11.322468769935574,120.0,1.0
887,-4.763836608378597,11.056619241134797,120.0029580241079,0.0
888,-5.400769530625376,10.475760326137971,120.01166974221499,0.0
889,-6.2034322280144885,9.65698353583998,120.02589275861429,0.0
890,-7.111716922509364,8.674707448833878,120.04538601067374,0.0
891,-8.088427982047223,7.594253507565769,120.06990955132866,0.0
892,-9.11249232119844,6.4689782151005275,120.09922434194968,0.0
893,-10.169216425364656,5.340386421350024,120.13309205533828,0.0
894,-11.241552101637533,4.24008483657564,120.17127488863761,0.0
895,-12.305269107255453,3.1922888747746025,120.2135353859783,0.0
896,-13.329162003700251,2.215833786059325,120.25963627070999,0.0
897,-14.279563785478288,1.3251259107284268,120.30934028709846,0.0
898,-15.12707524389703,0.5300175567841308,120.3624100513953,0.0
899,-15.852925772623731,-0.16497226116680785,120.4186079122129,0.0
900,-16.45282297541194,-0.7614511332368286,120.47769582016157,0.0
901,-16.937251512852587,-1.2673531999453327,120.539435206728,0.0
902,-17.328455300353937,-1.696173907347176,120.60358687239558,0.0
903,-17.655296118689932,-2.065207955798288,120.66991088402615,0.0
904,-17.94755209332287,-2.393090824464027,120.73816648154123,0.0
905,-18.231018884575384,-2.69717380737344,120.80811199395664,0.0
906,-18.524240795480374,-2.991335063523714,120.87950476484036,0.0
907,-18.83712060398625,-3.2847359828216103,120.95210108727593,0.0
908,-19.171237144119647,-3.5818038097762264,121.02565614842648,0.0
909,-19.521492517434936,-3.883414764481418,121.09992398380449,0.0
910,-19.878659681834996,-4.188935529665251,121.17465744136136,0.0
911,-20.23241157165808,-4.4985233908590825,121.24960815551825,0.0
912,-20.574404532689773,-4.814945637333294,121.32452653126467,0.0
913,-20.900917426156255,-5.144199390905354,121.39916173845629,0.0
914,-21.21442195956508,-5.494412083199351,121.47326171644434,0.0
915,-21.523360917042904,-5.872867027841969,121.54657318917054,0.0
916,-21.839484386975414,-6.281477157935804,121.61884169085913,0.0
917,-22.17248389199572,-6.711534263052869,121.68981160243519,0.0
918,-22.522413188536778,-7.138973274958498,121.75922619879265,0.0
919,-22.871363461302483,-7.521585830131918,121.82682770702841,0.0
920,-23.176774859235422,-7.79949291552891,121.89235737575042,0.0
921,-23.369229305513098,-7.899700909984506,121.95555555555555,0.0
922,-23.35721562420637,-7.744765023924639,122.01616179076099,0.0
923,-23.039983827922576,-7.264612758141119,122.07391492245672,0.0
924,-22.327331607399827,-6.409659482477122,122.12855320293028,0.0
925,-21.162551248625427,-5.162729534871904,122.1798144214947,0.0
926,-19.5427421265077,-3.5471897788533133,122.22743604172979,0.0
927,-17.53024756975231,-1.6292078260549958,122.27115535012302,0.0
928,-15.250654665871396,0.48689410539873146,122.31070961607037,0.0
929,-12.87632444141449,2.6698251934736286,122.3458362631704,0.0
930,-10.598673497278787,4.777289648314521,122.37627305171468,0.0
931,-8.595865544609804,6.673917066690459,122.4017582722461,0.0
932,-7.003918873081609,8.247922124669875,122.42203095002314,0.0
933,-5.898054016686409,9.423562931491196,122.43683106019333,0.0
934,-5.287931090253043,10.167422328737088,122.44589975344088,0.0
935,-5.126451188815148,10.487885198305523,122.44897959183673,1.0
936,-5.328325401207393,10.428580298078238,122.43073868125697,0.0
937,-5.792603887506346,10.057658663105045,122.37691112393321,0.0
938,-6.42319571702711,9.455355037982802,122.28888274780036,0.0
939,-7.142916707523629,8.70224525372208,122.16809060394901,0.0
940,-7.8991422262142255,7.870056726836938,122.01601531714657,0.0
941,-8.661831220057614,7.016020445130388,121.8341736064443,0.0
942,-9.416680983539026,6.1808311936119615,121.62411103063585,0.0
943,-10.156949853090948,5.389541715636664,121.38739500691351,0.0
944,-10.877007126171634,4.654302328116765,121.12560814450073,0.0
945,-11.569319715454533,3.9778031131061007,120.8403419284529,0.0
946,-12.224963095670384,3.356511213155908,120.53319078233359,0.0
947,-12.836430266157546,2.783186986536562,120.20574653218951,0.0
948,-13.40089114131763,2.248562796106368,119.85959328825628,0.0
949,-13.922222845050667,1.74236234308465,119.4963027551972,0.0
950,-14.410897482210409,1.2539712367161622,119.11742997646829,0.0
951,-14.881793904031992,0.7730478672965064,118.7245095136524,0.0
952,-15.350783425242291,0.29024016127734753,118.31905205734603,0.0
953,-15.831258455079407,-0.20198090443696692,117.9025414624224,0.0
954,-16.331593533083854,-0.7084841758013822,117.47643219724439,0.0
955,-16.85402708158709,-1.2308084849332377,117.0421471936473,0.0
956,-17.39490260177841,-1.7668177571015633,116.60107608224463,0.0
957,-17.945840028885307,-2.3107738691367326,116.15457379580462,0.0
958,-18.495314226658458,-2.853834443454117,115.70395952207627,0.0
959,-19.030245570918368,-3.3849058149529325,115.25051598647936,0.0
960,-19.537424261972156,-3.8917326567155817,114.79548904447843,0.0
961,-20.00476586153569,-4.362091831334057,114.34008756320354,0.0
962,-20.422456569884794,-4.784974292596526,113.88548357192076,0.0
963,-20.783985221764762,-5.1516731869726415,113.43281266126276,0.0
964,-21.086926192111857,-5.456733154032357,112.98317461166413,0.0
965,-21.33323146156578,-5.698739527970854,112.53763423217964,0.0
966,-21.528820712250706,-5.880923816032767,112.09722239176213,0.0
967,-21.682475933584517,-6.011526815336284,111.66293722611422,0.0
968,-21.804374504129665,-6.103796887493994,111.23574550437739,0.0
969,-21.90483412290463,-6.175426608794364,110.81658414116048,0.0
970,-21.993786101133065,-6.247180053397616,110.4063618407201,0.0
971,-22.081072774846913,-6.340479238066766,110.00596086146477,0.0
972,-22.17703133361716,-6.473842560528626,109.61623889035604,0.0
973,-22.292292413188708,-6.658319103995355,109.23803101820634,0.0
974,-22.435607630712855,-6.892418325194393,108.87215180831899,0.0
975,-22.60900662106304,-7.157422055247626,108.51939745237375,0.0
976,-22.800636905826305,-7.414268179569222,108.18054800892853,0.0
977,-22.97699881355477,-7.60327885984643,107.85636972138286,0.0
978,-23.07749262074409,-7.647762064234361,107.54761741373243,0.0
979,-23.01467323323198,-7.461906911044867,107.25503696394225,0.0
980,-22.68286828234656,-6.962490831200997,106.97936785627948,0.0
981,-21.975724056888225,-6.082901930862676,106.72134581549015,0.0
982,-20.810231586809493,-4.7871149494023335,106.48170552728214,0.0
983,-19.151826529934755,-3.08081737345321,106.26118345120338,0.0
984,-17.033457454908792,-1.0170627697919419,106.060520733697,0.0
985,-14.562020907172274,1.305320492470495,105.88046623088742,0.0
986,-11.908475717256717,3.7509558187681824,105.72177965252644,0.0
987,-9.282521380271998,6.16356923346312,105.58523484052961,0.0
988,-6.897431874011925,8.3854315133518,105.471623197686,0.0
989,-4.9337651206747895,10.277093095107814,105.38175728446215,0.0
990,-3.5110503407787705,11.733842536223905,105.31647460437775,0.0
991,-2.674064953971416,12.696068276250887,105.2766416012508,0.0
992,-2.39588733680466,13.152073642006286,105.26315789473685,1.0
993,-2.5951281863357223,13.13352446338235,105.28136942411543,0.0
994,-3.161185781335873,12.705180507499378,105.33503585883403,0.0
995,-3.9800582173137276,11.951525750946502,105.42275421414578,0.0
996,-4.954314356616339,10.963178653859648,105.54317969809819,0.0
997,-6.013575362469832,9.825543200988154,105.69501689951761,0.0
998,-7.115142788290102,8.611244125256093,105.8770115340778,0.0
999,-8.237146761938742,7.3767718536368525,106.0879426774576,0.0
1000,-9.368126173868731,6.1627535275985625,106.32661542440408,0.0
1001,-10.497134677014675,4.996601880923562,106.59185392125907,0.0
1002,-11.60749727948416,3.8960822117938507,106.88249472737314,0.0
1003,-12.675641959904228,2.872548848569843,107.19738046798228,0.0
1004,-13.674543384333452,1.9330965205883612,107.5353537477052,0.0
1005,-14.579817934911713,1.0814553297813274,107.89525129994327,0.0
1006,-15.375850871673507,0.31794626612915433,108.27589835323829,0.0
1007,-16.059665245547553,-0.36091661315425405,108.6761032011458,0.0
1008,-16.64133156726815,-0.9625791191587385,109.09465196748367,0.0
1009,-17.141068828582508,-1.4979572199590518,109.53030356397788,0.0
1010,-17.584261864174163,-1.9802201010566223,109.98178484239004,0.0
1011,-17.996069743991548,-2.4230707979512824,110.44778594821224,0.0
1012,-18.397086654504722,-2.8389578494132732,110.92695588797086,0.0
1013,-18.80087146686927,-3.2377053983611153,111.41789832710737,0.0
1014,-19.213433016391246,-3.6259440781837577,111.91916764029298,0.0
1015,-19.634239299298894,-4.007498132263935,112.42926524087287,0.0
1016,-20.05813992239306,-4.384598625856359,112.94663622089728,0.0
1017,-20.477695786900284,-4.759520370010623,113.46966633783386,0.0
1018,-20.88561143094472,-5.1360487076759735,113.99667938851785,0.0
1019,-21.27705326540618,-5.5201249244063355,114.52593501510559,0.0
1020,-21.651499948390054,-5.91912768301041,115.05562699166993,0.0
1021,-22.01348166899788,-6.339525907109084,115.58388204350898,0.0
1022,-22.371363242036413,-6.783053493012248,116.10875925411455,0.0
1023,-22.73349024171516,-7.242035624514971,116.62825011693491,0.0
1024,-23.101690655804468,-7.694931855438306,117.14027929042157,0.0
1025,-23.463202768253225,-8.10342503004712,117.64270611522285,0.0
1026,-23.783245351565007,-8.412361378451756,118.1333269516138,0.0
1027,-24.00119608196878,-8.553469168747865,118.60987839317619,0.0
1028,-24.033254492283753,-8.453068876189548,119.07004140919808,0.0
1029,-23.783265526693665,-8.043056308634629,119.51144646310667,0.0
1030,-23.16113557855149,-7.273500653762075,119.93167964734113,0.0
1031,-22.105514206840166,-6.124506253640222,120.32828986630815,0.0
1032,-20.60509114679477,-4.61476976842479,120.69879708836257,0.0
1033,-18.712032589400515,-2.8046529227127897,121.04070167508792,0.0
1034,-16.542429040080638,-0.7925592405620596,121.35149478153193,0.0
1035,-14.262002120328988,1.2952432331695798,121.62866980456025,0.0
1036,-12.059666680383561,3.3197939201327964,121.86973483827651,0.0
1037,-10.115297011091762,5.1469286607879665,122.07222607574147,0.0
1038,-8.569803842363651,6.663885799246964,122.23372207531388,0.0
1039,-7.5047909615339385,7.792045631358956,122.35185878821926,0.0
1040,-6.936041233033394,8.493715658346826,122.42434522189798,0.0
1041,-6.821042375545993,8.772210018364907,122.44897959183673,1.0
1042,-7.077062960616356,8.665896794428807,122.41716438543253,0.0
1043,-7.60398400717999,8.238044371288687,122.32303933642665,0.0
1044,-8.30566595298108,7.564923445179324,122.16871915655382,0.0
1045,-9.104966762050088,6.724610329549802,121.95648061804557,0.0
1046,-9.950020796737263,5.788361441685398,121.6887417218543,0.0
1047,-10.812168867539782,4.815500766400957,121.3680407400313,0.0
1048,-11.678149618132581,3.8517636375019633,120.9970154069533,0.0
1049,-12.540269516960873,2.930239188297989,120.57838251072081,0.0
1050,-13.388140439879331,2.0736330844658,120.11491810940754,0.0
1051,-14.204462139908907,1.2965895728783807,119.60943856794141,0.0
1052,-14.965695429627855,0.6071990405048218,119.06478258122729,0.0
1053,-15.646834090026799,0.007412082828770261,118.48379431858116,0.0
1054,-16.228282566077784,-0.5073184533529611,117.86930779444876,0.0
1055,-16.70235858402856,-0.9484235776949279,117.22413254141921,0.0
1056,-17.077205178367485,-1.3337626292530607,116.55104063429137,0.0
1057,-17.37672576980802,-1.6856546704899888,115.85275508885198,0.0
1058,-17.636233020374572,-2.027184638149875,115.13193963640236,0.0
1059,-17.894531610415964,-2.3771595190246684,114.39118985513562,0.0
1060,-18.183960077115042,-2.7446391641297936,113.63302562231473,0.0
1061,-18.52043885475757,-3.1243191675503836,112.85988483685222,0.0
1062,-18.895794059699373,-3.4940867235810202,112.07411835026899,0.0
1063,-19.274496009410626,-3.815764989160384,111.27798603499124,0.0
1064,-19.596368015562298,-4.039453254325986,110.47365391234554,0.0
1065,-19.78571970903894,-4.111084813294819,109.66319225822625,0.0
1066,-19.76583505794254,-3.98204224785493,108.84857460199927,0.0
1067,-19.476127764508743,-3.6190854055104156,108.03167753352656,0.0
1068,-18.88807848079452,-3.012620537693115,107.21428123399991,0.0
1069,-18.015807002418104,-2.1815500440862707,106.39807064831892,0.0
1070,-16.918099866333034,-1.1735637818251812,105.58463721980569,0.0
1071,-15.690793806307447,-0.06063040321852553,104.77548111190306,0.0
1072,-14.451043979370226,1.0695896692314761,103.97201384596016,0.0
1073,-13.31731975754563,2.1248894684322273,103.17556128909091,0.0
1074,-12.390128922474137,3.020250596785877,102.38736693124862,0.0
1075,-11.738022762029317,3.688191434839359,101.60859539595556,0.0
1076,-11.391549099252606,4.0861532146053,100.84033613445379,0.0
1077,-11.345236972988884,4.200026942620031,100.0836072583083,0.0
1078,-11.565408356180566,4.043688692316226,99.33935947062258,0.0
1079,-12.000435933944994,3.6550756875311867,98.60848006096285,0.0
1080,-12.590300540274827,3.089773082799491,97.89179693378921,0.0
1081,-13.273626510404613,2.413250011295934,97.19008264462809,0.0
1082,-13.9920344926056,1.6928238252894465,96.50405842237528,0.0
1083,-14.692851700704308,0.9902346044232108,95.83439815997957,0.0
1084,-15.331505323414543,0.35547690836867785,95.18173235932852,0.0
1085,-15.874362254742929,-0.17766733030399606,94.54665201943932,0.0
1086,-16.301838500215993,-0.5940981720916838,93.92971246006391,0.0
1087,-16.6108511110192,-0.8976829728906295,93.3314370755642,0.0
1088,-16.815482786671065,-1.1092860890232443,92.75232101641402,0.0
1089,-16.945089007979988,-1.262630171522232,92.192834797966,0.0
1090,-17.039742137435695,-1.3982963709486662,91.65342783820115,0.0
1091,-17.143544848439678,-1.556438743222708,91.13453192808431,0.0
1092,-17.296741112579603,-1.7690613053980748,90.63656463990154,0.0
1093,-17.527685101970675,-2.0529228547058826,90.1599326805836,0.0
1094,-17.845716616897644,-2.4042282490976654,89.70503519854715,0.0
1095,-18.235976336959595,-2.796179233426005,89.27226705403947,0.0
1096,-18.657226153857714,-3.1801624077829516,88.86202206437963,0.0
1097,-19.04373109521522,-3.4908544613535297,88.47469623687624,0.0
1098,-19.31201049356134,-3.6548804316936296,88.11069100359876,0.0
1099,-19.372571386027822,-3.6019719522091944,87.77041647361156,0.0
1100,-19.145544146737137,-3.2769766230519886,87.45429471978336,0.0
1101,-18.577688185652367,-2.650712603551772,87.16276311888527,0.0
1102,-17.65705916944443,-1.7276614128450678,86.8962777654297,0.0
1103,-16.421361988811412,-0.5488969508961226,86.65531698161257,0.0
1104,-14.957052150556002,0.8105829725945166,86.44038494784765,0.0
1105,-13.388466614186164,2.2499628365234376,86.2520154807699,0.0
1106,-11.858974395338942,3.654980897971032,86.09077598828696,0.0
1107,-10.508354128078384,4.912584607371855,85.95727163433426,0.0
1108,-9.451506585990703,5.925463640228854,85.8521497495103,0.0
1109,-8.762921774397844,6.624102261680715,85.77610452781131,0.0
1110,-8.469425046187801,6.97449006228944,85.72988205434459,0.0
1111,-8.551432322414385,6.980452257809573,85.71428571428572,1.0
1112,-8.951071203268139,6.680521511800808,85.73228424900624,0.0
1113,-9.584554301182482,6.140175864617156,85.78544058010122,0.0
1114,-10.3561433312066,5.440950805238742,85.87255592253965,0.0
1115,-11.171586613827536,4.668301269266082,85.9925038139926,0.0
1116,-11.9496051655088,3.900116591046491,86.14422091580822,0.0
1117,-12.630520533966758,3.197514858531716,86.32669845022714,0.0
1118,-13.181388848091055,2.599041522273099,86.53897418048047,0.0
1119,-13.597186726892318,2.1187711589417173,86.7801248521065,0.0
1120,-13.897916321020922,1.748166910849673,87.04925902397572,0.0
1121,-14.122072848570612,1.4609879990793764,87.34551022640271,0.0
1122,-14.317642855951666,1.2201329077926408,87.66803039158388,0.0
1123,-14.53239832712968,0.9851179966901547,88.01598350863055,0.0
1124,-14.805433683463225,0.7189360309052392,88.38853946184153,0.0
1125,-15.161530053911278,0.393293532612934,88.78486801672437,0.0
1126,-15.609128861090312,-0.008370540489237355,89.20413292376432,0.0
1127,-16.141742855839034,-0.49021596757987984,89.64548611516472,0.0
1128,-16.741853491462653,-1.0453784157252244,90.10806197484918,0.0
1129,-17.385952556047027,-1.6587659113310864,90.59097166701,0.0
1130,-18.049415467303806,-2.3104886955663844,91.0932975134929,0.0
1131,-18.710232450603655,-2.979153663381259,91.6140874153952,0.0
1132,-19.351108480185076,-3.6444238752104896,92.15234931948503,0.0
1133,-19.95992571132821,-4.288513049340701,92.7070457354759,0.0
1134,-20.52893215155733,-4.896588736789788,93.27708831585917,0.0
1135,-21.05320896220176,-5.456331050855488,93.86133251593505,0.0
1136,-21.528968323593038,-5.957083718738583,94.45857235791591,0.0
1137,-21.95210723886179,-6.389107553556443,95.06753532950556,0.0
1138,-22.31728971546802,-6.743391852859871,95.6868774541779,0.0
1139,-22.617721086518813,-7.012306803653742,96.31517857745882,0.0
1140,-22.84571577892694,-7.19111937050822,96.95093792080665,0.0
1141,-22.99409761635116,-7.280093183638965,97.5925699621166,0.0
1142,-23.05836350918578,-7.286610244827732,98.23840070934375,0.0
1143,-23.039361488526353,-7.226557391564069,98.88666444111824,0.0
1144,-22.945971963845043,-7.1241799086292765,99.53550099535501,0.0
1145,-22.796957856321814,-7.009768182406544,100.18295369354703,0.0
1146,-22.620867819313723,-6.914926005767725,100.82696799444479,0.0
1147,-22.452841438453873,-6.865735094162947,101.4653909759075,0.0
1148,-22.327602127419624,-6.874783837232932,102.095971747567,0.0
1149,-22.268926921311532,-6.933620065192443,102.71636289925102,0.0
1150,-22.277298092722738,-7.007540616911732,103.32412309052206,0.0
1151,-22.318866716676467,-7.03458374855608,103.91672088484061,0.0
1152,-22.319746790483318,-6.930052222290385,104.49153992738714,0.0
1153,-22.169472356416914,-6.59689014336592,105.04588555812433,0.0
1154,-21.735840506618473,-5.940929665466996,105.5769929409102,0.0
1155,-20.890386459816483,-4.888702141298047,106.08203677510609,0.0
1156,-19.540038160258543,-3.4045225134481605,106.55814263793448,0.0
1157,-17.657295198121,-1.5032244645014883,107.00239998370714,0.0
1158,-15.300002861285645,0.7445688671728372,107.41187679994921,0.0
1159,-12.613446075266747,3.216436002260064,107.78363589052012,0.0
1160,-9.812001487962824,5.751339340625618,108.1147527223636,0.0
1161,-7.14360897685666,8.169948524380484,108.4023347359848,0.0
1162,-4.845674109891259,10.298466157294445,108.64354198081148,0.0
1163,-3.1036434666767727,11.991536715565632,108.83560889611854,0.0
1164,-2.022458837443355,13.150055343199286,108.97586701723799,0.0
1165,-1.616941427769574,13.730878862967337,109.06176834657661,0.0
1166,-1.821546150129827,13.747256814176776,109.09090909090908,1.0
1167,-2.514802337664331,13.260769865634607,109.06556482395771,0.0
1168,-3.550586188815542,12.367195495373522,108.99036650279342,0.0
1169,-4.7877789740160335,11.179647351869683,108.86666338422246,0.0
1170,-6.111649017826412,9.812400496094025,108.69592535021478,0.0
1171,-7.443617763326544,8.368102745900316,108.479730773783,0.0
1172,-8.739762167149001,6.929857340327236,108.2197540949738,0.0
1173,-9.98134572846961,5.558315779822507,107.91775325870452,0.0
1174,-11.162142881993388,4.292799407260837,107.57555715843682,0.0
1175,-12.277187763588191,3.154823126513771,107.19505321986918,0.0
1176,-13.316190299911312,2.152312393626461,106.77817524735191,0.0
1177,-14.262825730035962,1.2832093779865168,106.3268916429798,0.0
1178,-15.099059036735424,0.5378584475379697,105.84319409470099,0.0
1179,-15.812154948367693,-0.09970515914311795,105.32908681567727,0.0
1180,-16.401395827933015,-0.650894776576743,104.7865764028932,0.0
1181,-16.88185927792264,-1.1412626700500954,104.21766236895682,0.0
1182,-17.28367733864446,-1.5980277729668866,103.62432838744267,0.0
1183,-17.646594912195194,-2.046189093788452,103.00853427922866,0.0
1184,-18.010934189910863,-2.5035786773513693,102.37220875526111,0.0
1185,-18.406965393439915,-2.9757689608364988,101.7172429201866,0.0
1186,-18.84508830502542,-3.4520934050031737,101.04548453141798,0.0
1187,-19.309181586011878,-3.9040526236039472,100.35873299950921,0.0
1188,-19.755037926348525,-4.287032116168997,99.65873510822743,0.0
1189,-20.11499209589368,-4.545615106570509,98.94718142641837,0.0
1190,-20.308677354135394,-4.621976058639853,98.22570337863206,0.0
1191,-20.25841933694313,-4.466075218854062,97.49587093745018,0.0
1192,-19.90638082179109,-4.045833386859025,96.75919089746495,0.0
1193,-19.22964717114454,-3.3552965001723476,96.0171056888142,0.0
1194,-18.24943207929733,-2.41906527672026,95.27099268698784,0.0
1195,-17.031703413666285,-1.2919250081375593,94.52216397518798,0.0
1196,-15.678598948417738,-0.0535244022577841,93.77186651575308,0.0
1197,-14.312430386063786,1.2010858523733678,93.02128268794506,0.0
1198,-13.056047853204097,2.373452876496516,92.27153115065718,0.0
1199,-12.01415298058566,3.3742103421838747,91.52366799024075,0.0
1200,-11.259536262295555,4.133986715552016,90.77868811558784,0.0
1201,-10.82646959621893,4.6110479553622135,90.03752686477141,0.0
1202,-10.711330705430411,4.794663539630891,89.30106178986831,0.0
1203,-10.878783832599504,4.703980733213692,88.5701145890125,0.0
1204,-11.271032823906491,4.382939608332665,87.84545315719747,0.0
1205,-11.8178658850673,3.8923286810153033,87.12779372982287,0.0
1206,-12.446046908772436,3.3003975880614336,86.4178030954257,0.0
1207,-13.087488103209177,2.673499855315941,85.7161008564185,0.0
1208,-13.686091096733994,2.068071554841924,85.02326171895689,0.0
1209,-14.203055955931573,1.5249201409834403,84.33981779525183,0.0
1210,-14.62009763352478,1.0663680111019778,83.6662609037212,0.0
1211,-14.93981914080374,0.6963315037510683,83.0030448543257,0.0
1212,-15.18278467969473,0.40297908332497534,82.35058770825466,0.0
1213,-15.381597072515554,0.1632599841225093,81.70927400281181,0.0
1214,-15.573178546510437,-0.051623301154827606,81.07945693390282,0.0
1215,-15.791041460500002,-0.2707753729930664,80.4614604899451,0.0
1216,-16.059325796631992,-0.5190546504946605,79.85558153231096,0.0
1217,-16.389779024002376,-0.8139925927675458,79.26209181858376,0.0
1218,-16.781926579896204,-1.1644204066651942,78.68123996595686,0.0
1219,-17.22578973322697,-1.5706824637934278,78.11325335304804,0.0
1220,-17.705940677599546,-2.0260331535458174,77.55833995923992,0.0
1221,-18.205567292459513,-2.518661413543406,77.01669014140285,0.0
1222,-18.709510598316445,-3.033786458995655,76.48847834851401,0.0
1223,-19.205774113292996,-3.5554023801548764,75.9738647752665,0.0
1224,-19.685568229124357,-4.067469547248698,75.47299695627035,0.0
1225,-20.14235159431788,-4.554590884724136,74.98601130289208,0.0
1226,-20.570475768656216,-5.0024043676513505,74.5130345851692,0.0
1227,-20.963971448011595,-5.398017766450768,74.05418536157495,0.0
1228,-21.315855980567676,-5.730781344698537,73.60957535970692,0.0
1229,-21.618194719972255,-5.993542688934295,73.1793108112342,0.0
1230,-21.863031601525662,-6.184288572391824,72.76349374467054,0.0
1231,-22.04416992857699,-6.307809917841676,72.36222323974786,0.0
1232,-22.15958442653059,-6.376801508327678,71.9755966473552,0.0
1233,-22.21397613784028,-6.411704865484218,71.60371077918369,0.0
1234,-22.220686940137558,-6.438683508975186,71.24666307138736,0.0
1235,-22.201957356815477,-6.485414818999403,70.90455272673435,0.0
1236,-22.186474522503048,-6.5748725319814,70.57748183989068,0.0
1237,-22.203481014260905,-6.7178798251892236,70.2655565106517,0.0
1238,-22.273513396526077,-6.905800747156469,69.96888795012131,0.0
1239,-22.39705789516043,-7.105139020610065,69.68759358503917,0.0
1240,-22.543760685421194,-7.255864381470329,69.42179816567726,0.0
1241,-22.645831304513734,-7.27487881912608,69.17163488297419,0.0
1242,-22.599397534694212,-7.065162296656051,68.93724650085306,0.0
1243,-22.276409135976994,-6.52992544334014,68.71878650998376,0.0
1244,-21.547175143689806,-5.589797265174965,68.51642030960707,0.0
1245,-20.310190770982516,-4.200019645130451,68.33032642444584,0.0
1246,-18.52256935102115,-2.364132161242895,68.1606977641905,0.0
1247,-16.222506731721015,-0.14092938619577922,68.00774293357625,0.0
1248,-13.53595570196518,2.3574136161757897,67.87168760167059,0.0
1249,-10.663400682485232,4.976422652677703,67.7527759396782,0.0
1250,-7.848344906864798,7.538036455311181,67.65127213735329,0.0
1251,-5.334839755172176,9.863687941176352,67.56746200900315,0.0
1252,-3.324882653587126,11.797515917205228,67.50165470108657,0.0
1253,-1.9464288493888595,13.225461524393872,67.45418451457155,0.0
1254,-1.2392425886543852,14.086967672187843,67.42541285654488,0.0
1255,-1.1603339206272896,14.377672867267103,67.41573033707866,1.0
1256,-1.6053126573853975,14.143429840239774,67.44851210585311,0.0
1257,-2.438312403690028,13.467692529054048,67.54530631552764,0.0
1258,-3.5220003028816698,12.455403203655669,67.70403886126391,0.0
1259,-4.7405109244494135,11.216772472800447,67.92294000424484,0.0
1260,-6.011210002539069,9.853811512114477,68.20050815379386,0.0
1261,-7.284940898864816,8.451383523332419,68.53547788604389,0.0
1262,-8.537687334008792,7.073240878840258,68.92679136210661,0.0
1263,-9.758473670197265,5.762361230285068,69.37357243312526,0.0
1264,-10.938407171722076,4.54415213114711,69.87510281676452,0.0
1265,-12.064279878521818,3.430869098111377,70.43079980521283,0.0
1266,-13.11783463895372,2.4258370028950518,71.0401950230109,0.0
1267,-14.079575666490204,1.52661094553478,71.7029137974231,0.0
1268,-14.934600394974053,0.7268418193399273,72.41865473740815,0.0
1269,-15.677671807634471,0.017126660384911396,73.18716914182231,0.0
1270,-16.315516282559532,-0.61459835471502,74.00823987527208,0.0
1271,-16.86566557521617,-1.182551939712483,74.88165936280413,0.0
1272,-17.352485597335004,-1.7021162519600344,75.80720636406177,0.0
1273,-17.80187782561024,-2.1882909938353468,76.7846211953478,0.0
1274,-18.236293971866214,-2.6538200083385894,77.81357907599931,0.0
1275,-18.671262845044517,-3.1074170989640817,78.89366128556941,0.0
1276,-19.11389563458106,-3.552575540311225,80.02432383274108,0.0
1277,-19.56317006817863,-3.987359082494349,81.20486335821155,0.0
1278,-20.0114404705726,-4.405371545460887,82.4343800249093,0.0
1279,-20.446619828689858,-4.79783552925877,83.7117371931947,0.0
1280,-20.854689367447,-5.156432037338356,85.03551773995909,0.0
1281,-21.22240011110886,-5.476314318078121,86.40397696302135,0.0
1282,-21.540082539152408,-5.758559453799144,87.81499212054229,0.0
1283,-21.80433060207699,-6.0113025762267975,89.26600879418895,0.0
1284,-22.020035435021242,-6.248942009969194,90.7539844393267,0.0
1285,-22.200947570116366,-6.489118684849888,92.27532970008484,0.0
1286,-22.367829128186198,-6.7476356829522315,93.82584832533499,0.0
1287,-22.543507090314403,-7.032026728045256,95.4006768254816,0.0
1288,-22.74485603866551,-7.334996148464207,96.99422535906422,0.0
1289,-22.972840454586063,-7.629300308286581,98.60012172854536,0.0
1290,-23.202936013159146,-7.8656880318036775,100.21116078752611,0.0
1291,-23.379089541724692,-7.975175886751538,101.81926200205173,0.0
1292,-23.41443060881688,-7.876198550049738,103.41543834419086,0.0
1293,-23.200920969006035,-7.486149029785503,104.98978009562322,0.0
1294,-22.628005990819002,-6.735717259339399,106.53145746222539,0.0
1295,-21.607494998347875,-5.583523278287959,108.02874609825615,0.0
1296,-20.0991608868384,-4.028094179971559,109.46907965380026,0.0
1297,-18.130002520166226,-2.114437671047838,110.83913323030761,0.0
1298,-15.80069684126422,0.06665086075416449,112.12494109575631,0.0
1299,-13.275738053569238,2.387003230540377,113.31205112059064,0.0
1300,-10.758367270201564,4.696057357374465,114.3857171128452,0.0
1301,-8.456048441095604,6.839821692037887,115.33112854839067,0.0
1302,-6.545182402231536,8.680385114966237,116.13367514129199,0.0
1303,-5.143855271136731,10.112453761883433,116.77924135881946,0.0
1304,-4.29873122284557,11.074114370074719,117.25452348748479,0.0
1305,-3.9878364863266755,11.550338140016239,117.54735938397907,0.0
1306,-4.136545963770372,11.56929822561323,117.6470588235294,1.0
1307,-4.64097219820637,11.192981636409014,117.6470588235294,0.0
1308,-5.3919065237281405,10.50450607086816,117.6470588235294,0.0
1309,-6.293473943825669,9.5948327848394,117.6470588235294,0.0
1310,-7.273160772604256,8.551214759048833,117.6470588235294,0.0
1311,-8.282943313299091,7.448914394542029,117.6470588235294,0.0
1312,-9.293891629451732,6.3467384699011635,117.6470588235294,0.0
1313,-10.28805686496715,5.286045873972626,117.6470588235294,0.0
1314,-11.251358698339596,4.292287510984415,117.6470588235294,0.0
1315,-12.169836712184802,3.3779209292024017,117.6470588235294,0.0
1316,-13.029719426696614,2.5456668944493357,117.6470588235294,0.0
1317,-13.820109209176808,1.791417258970907,117.6470588235294,0.0
1318,-14.53625610443435,1.1065072710172705,117.6470588235294,0.0
1319,-15.181545468684908,0.47939692275382995,117.6470588235294,0.0
1320,-15.767190086936571,-0.10301183517524981,117.6470588235294,0.0
1321,-16.309710041061884,-0.6541726103193635,117.6470588235294,0.0
1322,-16.82713226028844,-1.1866526074318187,117.6470588235294,0.0
1323,-17.335174198528858,-1.7108431189423774,117.6470588235294,0.0
1324,-17.84447886835622,-2.233747844680435,117.6470588235294,0.0
1325,-18.359431366590243,-2.758053696544671,117.6470588235294,0.0
1326,-18.878485517929235,-3.281700152937776,117.6470588235294,0.0
1327,-19.395502556922846,-3.7981149555079767,117.6470588235294,0.0
1328,-19.90147056462681,-4.297194403738989,117.6470588235294,0.0
1329,-20.38610922544506,-4.766993575021702,117.6470588235294,0.0
1330,-20.839144065162785,-5.195967635995619,117.6470588235294,0.0
1331,-21.251310200010476,-5.575478136644838,117.6470588235294,0.0
1332,-21.615311310688497,-5.902158261331259,117.6470588235294,0.0
1333,-21.92696350263223,-6.179638073674394,117.6470588235294,0.0
1334,-22.18658260212943,-6.419096266109776,117.6470588235294,0.0
1335,-22.400352154383594,-6.6381674196679965,117.6470588235294,0.0
1336,-22.581029402786513,-6.857926712607487,117.6470588235294,0.0
1337,-22.747076994550447,-7.098008264675918,117.6470588235294,0.0
1338,-22.91934396024698,-7.370360528480409,117.6470588235294,0.0
1339,-23.11488553157077,-7.672625983587475,117.6470588235294,0.0
1340,-23.33839044933393,-7.982534012316031,117.6470588235294,0.0
1341,-23.572805510190868,-8.2548768808328,117.6470588235294,0.0
1342,-23.771806905764137,-8.422479310714472,117.6470588235294,0.0
1343,-23.85735876069822,-8.402015063059451,117.6470588235294,0.0
1344,-23.725280255760886,-8.104611908376263,117.6470588235294,0.0
1345,-23.260215426567864,-7.450076316163448,117.6470588235294,0.0
1346,-22.358760396564385,-6.382513136403671,117.6470588235294,0.0
1347,-20.95641019161449,-4.884404714914142,117.6470588235294,0.0
1348,-19.051561007980226,-2.986097383721434,117.6470588235294,0.0
1349,-16.719208709179036,-0.7682437351567948,117.6470588235294,0.0
1350,-14.108865838152338,1.643995318969231,117.6470588235294,0.0
1351,-11.425283109413375,4.094527081171324,117.6470588235294,0.0
1352,-8.895555366701107,6.415550896811489,117.6470588235294,0.0
1353,-6.730362817403907,8.449039064891885,117.6470588235294,0.0
1354,-5.088928305176273,10.066569441263566,117.6470588235294,0.0
1355,-4.056123730137556,11.183974865948395,117.6470588235294,0.0
1356,-3.6365015453237186,11.768436619835693,117.6470588235294,0.0
1357,-3.7651702042638235,11.837299265963063,117.6470588235294,1.0
1358,-4.3309779878624175,11.449599470557498,117.67654429465783,0.0
1359,-5.204750212904282,10.692662174374128,117.763228867373,0.0
1360,-6.264999314925412,9.66682395088534,117.90456799195057,0.0
1361,-7.415418997912442,8.471289474291233,118.0981484979461,0.0
1362,-8.591698913360185,7.193412650640157,118.3416657219186,0.0
1363,-9.758557409789319,5.902576997922153,118.63290228866737,0.0
1364,-10.90035733293597,4.648658085696965,118.96970829051091,0.0
1365,-12.009707326826039,3.4640845757534806,119.34998264949145,0.0
1366,-13.078056820612867,2.367969436808755,119.77165548268623,0.0
1367,-14.090842487566126,1.3707135933228232,120.23267132214302,0.0
1368,-15.027804246504301,0.4778118518304453,120.7309730692401,0.0
1369,-15.86727847117018,-0.3078518015884262,121.26448658925233,0.0
1370,-16.59213270353161,-0.9853386202861361,121.8311058762116,0.0
1371,-17.194829644348477,-1.556267535956244,122.42867874129762,0.0
1372,-17.679842385793883,-2.026093578928827,123.05499300041247,0.0
1373,-18.062895717650143,-2.405396287047184,123.70776315861129,0.0
1374,-18.367730606345553,-2.7106374308195216,124.38461761094614,0.0
1375,-18.621819477167122,-2.964037218348326,125.08308640120447,0.0
1376,-18.852504212045012,-3.192407491846033,125.80058960208585,0.0
1377,-19.084490534270202,-3.4249297310703315,126.53442640257164,0.0
1378,-19.338812960810042,-3.689977053696764,127.28176501052184,0.0
1379,-19.632630151976205,-4.011183633138229,128.03963350070066,0.0
1380,-19.97879159642734,-4.403096473452423,128.8049117602031,0.0
1381,-20.38417195855858,-4.866915341310794,129.57432470422577,0.0
1382,-20.84629788288841,-5.387010287717713,130.3444369547772,0.0
1383,-21.34865774443607,-5.929038032260594,131.1116491926075,0.0
1384,-21.85603151893099,-6.440474661538071,131.87219640758687,0.0
1385,-22.311874959879074,-6.854171065595508,132.62214828408443,0.0
1386,-22.639923463255904,-7.095094458254041,133.35741196460106,0.0
1387,-22.75155088497265,-7.08979076063819,134.07373743590955,0.0
1388,-22.559036006142136,-6.777410663083538,134.7667257761188,0.0
1389,-21.993011560744044,-6.120562448528446,135.43184048726187,0.0
1390,-21.020504086338423,-5.113970827282921,136.06442211511063,0.0
1391,-19.658797961861886,-3.7890671680475743,136.6597063249539,0.0
1392,-17.980524688169798,-2.213245203487361,137.21284555824747,0.0
1393,-16.107188753655382,-0.48349175441409287,137.71893433983442,0.0
1394,-14.19145823369021,1.2847682081915601,138.17303823870085,0.0
1395,-12.391977918476773,2.9717660005739477,138.57022640730074,0.0
1396,-10.846909732006516,4.467956216835698,138.9056075362324,0.0
1397,-9.652865198638775,5.686522736395865,139.1743689639891,0.0
1398,-8.854154333824804,6.571796257161694,139.3718185778256,0.0
1399,-8.444021402109424,7.102495121960261,139.49342903436062,0.0
1400,-8.376016241402407,7.289818711521574,139.53488372093022,1.0
1401,-8.581083366223096,7.171426409508236,139.47875919907796,0.0
1402,-8.985050490952366,6.802983676799088,139.31242592735913,0.0
1403,-9.521993975254642,6.249126878010643,139.03931540169222,0.0
1404,-10.140949186380503,5.575411991515226,138.66331313252496,0.0
1405,-10.80586561760204,4.84221636909094,138.18870507273215,0.0
1406,-11.490818741917751,4.100873420114473,137.6201218526785,0.0
1407,-12.173683873744382,3.3917500911401666,136.96248196275016,0.0
1408,-12.831452238751025,2.743670756827489,136.22093495898142,0.0
1409,-13.4392269591689,2.1740876645160006,135.40080567659265,0.0
1410,-13.97316500816313,1.689630489921405,134.50754032534053,0.0
1411,-14.415926921603573,1.286996442988204,133.54665521578926,0.0
1412,-14.762180065305593,0.9544095836804924,132.52368873299227,0.0
1413,-15.02167530011211,0.6739620754097039,131.44415703923013,0.0
1414,-15.218282671672734,0.4250052519811225,130.31351385531758,0.0
1415,-15.384732047903936,0.1884264661955164,129.13711454468194,0.0
1416,-15.554167756522912,-0.04875840525096531,127.92018460916135,0.0
1417,-15.750598904262816,-0.28940105133194804,126.66779260260091,0.0
1418,-15.980711735065707,-0.5238385123663132,125.3848273793164,0.0
1419,-16.229294146720054,-0.730009931291058,124.07597952004693,0.0
1420,-16.459805490462205,-0.8765088893012216,122.74572671816118,0.0
1421,-16.620554822834702,-0.9283656250855387,121.39832286310205,0.0
1422,-16.655698951951408,-0.8546581293274667,120.03779052541452,0.0
1423,-16.51904116092703,-0.6364817354788288,118.66791652696341,0.0
1424,-16.18765000735713,-0.2735275604359142,117.29225026968703,0.0
1425,-15.671903106703803,0.21236415226419347,115.91410449492548,0.0
1426,-15.018939681658894,0.7777866210310141,114.53655815148268,0.0
1427,-14.30777896437105,1.362757353657618,113.16246106263905,0.0
1428,-13.636359716997818,1.8994173015640974,111.79444009894767,0.0
1429,-13.102990408115254,2.3228632856313176,110.43490658356285,0.0
1430,-12.786471948924948,2.5819822917215465,109.0860646789551,0.0
1431,-12.729817511827052,2.6480709537489,107.74992052721447,0.0
1432,-12.931734202569409,2.5194471829897047,106.42829193993178,0.0
1433,-13.348025329331698,2.221102038294065,105.1228184572361,0.0
1434,-13.902428673448373,1.7994992391662854,103.8349716184411,0.0
1435,-14.50394286205174,1.3136524574209518,102.56606530853674,0.0
1436,-15.066150471345413,0.8243548468474744,101.31726606517616,0.0
1437,-15.523842095304259,0.3837360291204355,100.08960324967494,0.0
1438,-15.84335218632558,0.02713092082684554,98.88397900275626,0.0
1439,-16.024989667188706,-0.2313623882534971,97.70117792130235,0.0
1440,-16.09810337918074,-0.39911149471842966,96.54187640622392,0.0
1441,-16.111011025286675,-0.5013256960064114,95.40665164378171,0.0
1442,-16.118839673541494,-0.5746562553299611,94.29599019337059,0.0
1443,-16.17221745606141,-0.6595096166415612,93.21029616400075,0.0
1444,-16.308944588924476,-0.7926194927139427,92.1498989695992,0.0
1445,-16.54962746998406,-1.001164231825222,91.1150606599181,0.0
1446,-16.89716037770964,-1.2992414784635404,90.10598282940295,0.0
1447,-17.33916765307052,-1.6869543104566993,89.12281311095445,0.0
1448,-17.852196212026616,-2.151847563001142,88.16565126523184,0.0
1449,-18.40651901928864,-2.672053673183189,87.23455487909926,0.0
1450,-18.970701573875147,-3.2203127979439343,86.32954468911349,0.0
1451,-19.51541204419649,-3.768026137557416,85.45060954768145,0.0
1452,-20.01621546905423,-4.288653214404884,84.59771105076959,0.0
1453,-20.455265144624473,-4.760020783962742,83.77078784689627,0.0
1454,-20.821910705960924,-5.165412249663341,82.96975964765656,0.0
1455,-21.11230450120545,-5.493592693673537,82.1945309602746,0.0
1456,-21.328135895456757,-5.738144731730349,81.44499456270806,0.0
1457,-21.474707020067115,-5.896605320449867,80.72103474168931,0.0
1458,-21.558717902102735,-5.969880127026975,80.02253031382016,0.0
1459,-21.58631338037029,-5.962266875132258,79.34935744947961,0.0
1460,-21.562035354538057,-5.882163544644523,78.70139231888508,0.0
1461,-21.489192973845174,-5.743220070298163,78.07851357919853,0.0
1462,-21.37177487874094,-5.565386908180434,77.48060472111158,0.0
1463,-21.217468987775476,-5.375109078011196,76.9075562928978,0.0
1464,-21.04078580386088,-5.203894943743298,76.35926801950761,0.0
1465,-20.864869410667424,-5.084711846174215,75.83565083391433,0.0
1466,-20.72048424892173,-5.046129829962485,75.3366288376164,0.0
1467,-20.6410288164816,-5.10478465797941,74.86214120697298,0.0
1468,-20.653331862723668,-5.257425929254662,74.41214406191091,0.0
1469,-20.76536265802212,-5.474368534839309,73.9866123135047,0.0
1470,-20.953545030673606,-5.696379678078168,73.58554150700832,0.0
1471,-21.15361662669632,-5.836759764606526,73.20894967712465,0.0
1472,-21.25934929460665,-5.7895677933227265,72.85687923264658,0.0
1473,-21.132471558021372,-5.443697596480279,72.52939888811285,0.0
1474,-20.62465377411748,-4.701074478267114,72.22660566080567,0.0
1475,-19.608798991266145,-3.4959616917705865,71.9486269523003,0.0
1476,-18.013111011560287,-1.8116124579352253,71.69562273487996,0.0
1477,-15.848906027597215,0.3094422335312199,71.46778786448161,0.0
1478,-13.223238170010866,2.76422247794602,71.26535454347074,0.0
1479,-10.330689978344273,5.398285076700725,71.08859495849467,0.0
1480,-7.424420909325936,8.023812799010859,70.93782412097791,0.0
1481,-4.772845705278576,10.443789501652173,70.81340294055262,0.0
1482,-2.6127596632525276,12.477909905249254,70.71574156492522,0.0
1483,-1.110634785854473,13.985517815481082,70.64530302343876,0.0
1484,-0.34095444778245587,14.881576978915664,70.60260721599172,0.0
1485,-0.2851120905091394,15.143256733851645,70.58823529411765,1.0
1486,-0.8486188747218144,14.80674036861524,70.59046034919675,0.0
1487,-1.8900009250186813,13.95582320432256,70.59710583856395,0.0
1488,-3.2528557134030227,12.705298755275095,70.60812846870675,0.0
1489,-4.793195538445056,11.182748471762586,70.62348652964738,0.0
1490,-6.396846704778188,9.512102413315706,70.64313984218057,0.0
1491,-7.985283977830283,7.801396982884294,70.66704970699342,0.0
1492,-9.511700822914326,6.135844431673956,70.69517885557049,0.0
1493,-10.95136039280857,4.576015541222973,70.72749140279248,0.0
1494,-12.290845777317566,3.1599324336427457,70.7639528011406,0.0
1495,-13.519871221013299,1.9073542820891731,70.80452979642342,0.0
1496,-14.627466669597949,0.8245422379484746,70.8491903849466,0.0
1497,-15.60241131141584,-0.09179395453729855,70.89790377204919,0.0
1498,-16.43641518842069,-0.8520212854476759,70.95064033193462,0.0
1499,-17.12803745073731,-1.4725646262065797,71.00737156872637,0.0
1500,-17.68562569918482,-1.9757982931348943,71.06807007868254,0.0
1501,-18.12833252592936,-2.3900143811470036,71.13270951350539,0.0
1502,-18.485080733366043,-2.7486162457735492,71.20126454468564,0.0
1503,-18.79186345693637,-3.0879083495280333,71.2737108288225,0.0
1504,-19.08785920977839,-3.4432496458202637,71.35002497386422,0.0
1505,-19.410642573296286,-3.843819619074848,71.43018450621487,0.0
1506,-19.790561570048915,-4.306719951713283,71.51416783865604,0.0
1507,-20.244408927054348,-4.831506748412858,71.60195423903366,0.0
1508,-20.768952249363597,-5.396431668108973,71.69352379966226,0.0
1509,-21.33558424716508,-5.9575971978551525,71.78885740740012,0.0
1510,-21.88797862839997,-6.451869841016389,71.88793671435144,0.0
1511,-22.344783981779624,-6.80376905445896,71.9907441091521,0.0
1512,-22.608748483051773,-6.935751661646454,72.09726268879771,0.0
1513,-22.582185581268366,-6.78049817673527,72.20747623097358,0.0
1514,-22.18664917405948,-6.293174303372583,72.321369166848,0.0
1515,-21.382704342486935,-5.461374238028869,72.43892655429073,0.0
1516,-20.184564430937467,-4.310672952975938,72.56013405148035,0.0
1517,-18.664815127323312,-2.904428967606823,72.68497789086472,0.0
1518,-16.946672145601124,-1.3375596730784685,72.81344485344013,0.0
1519,-15.184691721490728,0.27478301366064695,72.94552224331524,0.0
1520,-13.538389510919394,1.8116719438749147,73.08119786252706,0.0
1521,-12.145458287166278,3.1614286721839875,73.22045998607709,0.0
1522,-11.101298724222655,4.234618617872295,73.36329733715606,0.0
1523,-10.449385007767482,4.972975392190555,73.50969906252699,0.0
1524,-10.183474703102572,5.353173708375477,73.65965470803647,0.0
1525,-10.25919799994496,5.3854741178691645,73.81315419422499,0.0
1526,-10.610324211846057,5.108222046716077,73.97018779200744,0.0
1527,-11.164579393013415,4.579778163650013,74.13074609839585,0.0
1528,-11.855121090159036,3.869592843872149,74.29482001223646,0.0
1529,-12.6259828008387,3.0498608069043653,74.46240070993423,0.0
1530,-13.43211343781546,2.1886592484844494,74.63347962113764,0.0
1531,-14.236297856792332,1.344888727030227,74.80804840435789,0.0
1532,-15.005802254716977,0.5648844890200381,74.98609892249631,0.0
1533,-15.711003280022084,-0.11964472580807073,75.16762321825443,0.0
1534,-16.32689769830799,-0.6926538077407804,75.35261348940183,0.0
1535,-16.83686992423558,-1.1538675037628439,75.54106206387632,0.0
1536,-17.237023565954946,-1.5177992565665177,75.73296137469265,0.0
1537,-17.5390951487423,-1.811371418643461,75.9283039346348,0.0
1538,-17.770421483418417,-2.0698593324370007,76.12708231070842,0.0
1539,-17.97030403161794,-2.33112965664576,76.32928909832965,0.0
1540,-18.183022248802256,-2.6285578177780344,76.53491689522674,0.0
1541,-18.448455467629735,-2.9834841012389193,76.74395827503169,0.0
1542,-18.79175221787407,-3.39846506783932,76.95640576053886,0.0
1543,-19.213828925442957,-3.8527620074400857,77.17225179660817,0.0
1544,-19.684732917966176,-4.301383161382392,77.39148872269055,0.0
1545,-20.1419586136976,-4.678528748392027,77.61410874495357,0.0
1546,-20.495424309346074,-4.905527273233856,77.84010390798574,0.0
1547,-20.639785251032965,-4.902431627896835,78.06946606605801,0.0
1548,-20.47306602226225,-4.60156141279875,78.30218685392128,0.0
1549,-19.918557806885886,-3.9606539467452255,78.53825765711935,0.0
1550,-18.945182209312403,-2.9731078282652357,78.77766958179659,0.0
1551,-17.580860880007315,-1.6731664713068708,79.02041342398077,0.0
1552,-15.914451255054031,-0.13476059243047667,79.26647963832093,0.0
1553,-14.084546832933235,1.5360636783218888,79.51585830626105,0.0
1554,-12.25715891313293,3.2139346062630825,79.7685391036311,0.0
1555,-10.597674759666715,4.769938881848058,80.02451126763673,0.0
1556,-9.244183273827526,6.087639635117585,80.28376356322985,0.0
1557,-8.288569459265338,7.076640604242991,80.54628424884307,0.0
1558,-7.769005386644952,7.6816446685210344,80.8120610414707,0.0
1559,-7.673773615148518,7.8859643669962365,81.08108108108108,1.0
1560,-7.953206030592962,7.709553285499994,81.38103700569462,0.0
1561,-8.534977351752609,7.202572554425574,81.73870945909152,0.0
1562,-9.338321640062041,6.436098008208107,82.15284021413808,0.0
1563,-10.284420472120596,5.49174416035006,82.62231623261006,0.0
1564,-11.302314284285448,4.451783930808218,83.14614726069784,0.0
1565,-12.331346437566346,3.39091174516909,83.72344456897011,0.0
1566,-13.321874997376048,2.370290392839049,84.35340047323955,0.0
1567,-14.235756790374971,1.4340696421469263,85.03526830879541,0.0
1568,-15.047265313035293,0.6082394918175912,85.7683425597973,0.0
1569,-15.744162280925384,-0.09850682394354249,86.55193886989963,0.0
1570,-16.32806231396582,-0.6923095994156623,87.38537368084639,0.0
1571,-16.813236910741892,-1.1905204379871617,88.26794326417497,0.0
1572,-17.22351973743061,-1.6173814737093037,89.19890192857211,0.0
1573,-17.587693796731667,-1.9994892506551305,90.17743920309393,0.0
1574,-17.934301534816974,-2.3615443625953447,91.20265581569815,0.0
1575,-18.286987273004723,-2.7228775941044043,92.27353830868678,0.0
1576,-18.6612450328814,-3.095180177940736,93.38893215917535,0.0
1577,-19.06298053140048,-3.481735487161812,94.54751330512829,0.0
1578,-19.488840407285313,-3.8782534632957013,95.74775801748257,0.0
1579,-19.927973340547545,-4.2751650078200605,96.98791110816425,0.0
1580,-20.364788944141303,-4.66097249161524,98.26595252418682,0.0
1581,-20.782296125647203,-5.026015148607557,99.57956245131155,0.0
1582,-21.165637938495173,-5.3658408001509255,100.92608513867616,0.0
1583,-21.50542544891168,-5.683325260442675,102.30249175986926,0.0
1584,-21.800372774627643,-5.988788279495948,103.7053427472958,0.0
1585,-22.058559754152306,-6.29764253567322,105.13075017589229,0.0
1586,-22.296490844388288,-6.6255712624755825,106.57434092901259,0.0
1587,-22.53516336167673,-6.981808492729762,108.03122155214115,0.0
1588,-22.792805671114305,-7.361693344527616,109.49594588599409,0.0
1589,-23.0748745117375,-7.740146375578366,110.96248676461124,0.0
1590,-23.3631587741427,-8.067917945739463,112.42421325898795,0.0
1591,-23.60704282648591,-8.272258747146033,113.87387513275554,0.0
1592,-23.72062208340643,-8.26300818564155,115.30359634060439,0.0
1593,-23.58894117745904,-7.944046839853927,116.704879526799,0.0
1594,-23.084849482284735,-7.2288007264706895,118.06862355173152,0.0
1595,-22.094972750089152,-6.057305404948895,119.38515606824457,0.0
1596,-20.54980919940531,-4.411562506526609,120.6442830644693,0.0
1597,-18.450229146205277,-2.325821288924012,121.83535706452386,0.0
1598,-15.88204856431404,0.11088283653328901,122.94736531338557,0.0
1599,-13.012640478257692,2.7611871362533167,123.96903875339613,0.0
1600,-10.06837601161882,5.454279858000573,124.88898192103998,0.0
1601,-7.297477727032293,8.006809212798993,125.69582305888643,0.0
1602,-4.927455148699565,10.246107532320643,126.37838276803673,0.0
1603,-3.127909567683387,12.031521377894997,126.92585845647147,0.0
1604,-1.9875985204110176,13.270105357105981,127.3280207209309,0.0
1605,-1.5101014549735468,13.92423251678009,127.57541670322598,0.0
1606,-1.6269877308541987,14.01044673180905,127.65957446808511,1.0
1607,-2.222891051884089,13.590671782505241,127.65607710732242,0.0
1608,-3.164582196744137,12.758263490285596,127.64568906320724,0.0
1609,-4.326380368029092,11.622057156360365,127.62856799105768,0.0
1610,-5.606623574486645,10.291447409802213,127.60487354336507,0.0
1611,-6.933430882180958,8.864777353032975,127.57476720482892,0.0
1612,-8.261398493940584,7.422192598918262,127.53841213001189,0.0
1613,-9.563110517686958,6.022967214705088,127.49597298385918,0.0
1614,-10.819881448001066,4.706416911223725,127.44761578531107,0.0
1615,-12.01513079109106,3.495044394046061,127.39350775422221,0.0
1616,-13.13189797339475,2.398533078359501,127.3338171617856,0.0
1617,-14.154085647947396,1.417516901996419,127.26871318464411,0.0
1618,-15.069738665935935,0.546535721568957,127.19836576285688,0.0
1619,-15.874313000156898,-0.22393825639973564,127.12294546187333,0.0
1620,-16.572362077794736,-0.9061783450019547,127.04262333865192,0.0
1621,-17.176998985718892,-1.5142179149984103,126.95757081204702,0.0
1622,-17.70743461363115,-2.062875739185351,126.8679595375728,0.0
1623,-18.18549637058443,-2.566631010989247,126.77396128663828,0.0
1624,-18.632159785066943,-3.0383920650563314,126.67574783033581,0.0
1625,-19.064853890967406,-3.488372254362078,126.57349082785056,0.0
1626,-19.495851887871595,-3.923367924092946,126.46736171954697,0.0
1627,-19.931676398559876,-4.346705088341107,126.35753162477553,0.0
1628,-20.373287400123516,-4.758989616503318,126.24417124443185,0.0
1629,-20.816879583811918,-5.159589079998026,126.12745076828863,0.0
1630,-21.255261583828883,-5.548537551730803,126.00753978711066,0.0
1631,-21.67985152984043,-5.928342930743504,125.88460720955314,0.0
1632,-22.083194878336094,-6.305049812178146,125.75882118383363,0.0
1633,-22.461596225738372,-6.687925164641182,125.63034902415971,0.0
1634,-22.817062974157896,-7.0873268580665005,125.49935714188535,0.0
1635,-23.157463471362735,-7.510689974327695,125.3660109813619,0.0
1636,-23.493823117196584,-7.957077963463215,125.23047496044191,0.0
1637,-23.834209399173677,-8.411296531717372,125.09291241558769,0.0
1638,-24.174735372258002,-8.83901579662432,124.95348555152994,0.0
1639,-24.489624735552717,-9.184534499922155,124.81235539541724,0.0
1640,-24.723547511827164,-9.37262252360994,124.66968175539077,0.0
1641,-24.789953260753155,-9.315246606367964,124.52562318351566,0.0
1642,-24.57842486612244,-8.922986260540771,124.3803369429953,0.0
1643,-23.972026178007265,-8.11977338903036,124.2339789795922,0.0
1644,-22.872575032224063,-6.8585240385912645,124.08670389717557,0.0
1645,-21.228575371614003,-5.134582835730672,123.93866493731409,0.0
1646,-19.058347310967942,-2.9939126756852037,123.79001396282908,0.0
1647,-16.460812517339928,-0.5337251389872988,123.6409014452233,0.0
1648,-13.608955641366764,2.1053499377439095,123.49147645589804,0.0
1649,-10.725700724982909,4.754717987516543,123.34188666107168,0.0
1650,-8.047287432364397,7.238406568339721,123.19227832031153,0.0
1651,-5.783205194368314,9.395156291626135,123.04279628859175,0.0
1652,-4.082782655269709,11.098059586306446,122.89358402178993,0.0
1653,-3.016264951608746,12.268359416457388,122.74478358553624,0.0
1654,-2.573613956156646,12.881324757509113,122.5965356673295,0.0
1655,-2.6791316835985994,12.96381083331501,122.44897959183673,1.0
1656,-3.216099763690691,12.584757200078451,122.29262861054886,0.0
1657,-4.053987234738965,11.841087475353904,122.11852476906051,0.0
1658,-5.071494672996596,10.84201134737578,121.92760410620816,0.0
1659,-6.171132773156852,9.694552607460292,121.72080671515857,0.0
1660,-7.284190986996168,8.492383367057148,121.49907436626461,0.0
1661,-8.36782977643258,7.309003128135545,121.26334826971346,0.0
1662,-9.397828534578034,6.19526113625515,121.01456698262605,0.0
1663,-10.360837557035772,5.180424430530392,120.75366446391209,0.0
1664,-11.248942240813118,4.275572585157073,120.48156827891903,0.0
1665,-12.057560940987052,3.4780574143851934,120.199197954736,0.0
1666,-12.785988088099757,2.776005986747715,119.90746348593676,0.0
1667,-13.438921027484556,2.1522231463752144,119.60726398956739,0.0
1668,-14.027299587968697,1.5872257500886389,119.29948650731113,0.0
1669,-14.56751318559442,1.0614204661885531,118.98500495198965,0.0
1670,-15.079004362876864,0.5565858788067772,118.66467919489187,0.0
1671,-15.581046824391882,0.056854939224245005,118.3393542898497,0.0
1672,-16.089739061113587,-0.4506392040408269,118.00985982950606,0.0
1673,-16.616035947794245,-0.9753447373602193,117.67700942883796,0.0
1674,-17.16513884751781,-1.5230339980353653,117.3416003307015,0.0
1675,-17.737044679866532,-2.0956651922827905,117.00441312795182,0.0
1676,-18.327728409481647,-2.6913335584112255,116.66621159655314,0.0
1677,-18.93038865575519,-3.3042999196470335,116.32774263402547,0.0
1678,-19.536372257585416,-3.92511690724237,115.98973629757194,0.0
1679,-20.135670160046836,-4.54091903125138,115.65290593628426,0.0
1680,-20.71710019012075,-5.135988094589367,115.31794841193128,0.0
1681,-21.268393797114054,-5.692727757910062,114.98554440298928,0.0
1682,-21.776407930270203,-6.193157358756634,114.65635878676805,0.0
1683,-22.22765280144235,-6.620950276009942,114.33104109471898,0.0
1684,-22.609290752868183,-6.963896322039484,114.01022603627351,0.0
1685,-22.910695512429992,-7.216480700874079,113.69453408685358,0.0
1686,-23.125526393786426,-7.382084090131745,113.38457213600863,0.0
1687,-23.254066041654067,-7.474175026964576,113.0809341919698,0.0
1688,-23.305329627547735,-7.5158477368109455,112.78420213926383,0.0
1689,-23.298224927648796,-7.537206122593738,112.4949465463963,0.0
1690,-23.26088114104055,-7.570429436189985,112.21372752099401,0.0
1691,-23.227267840332672,-7.6428534773013395,111.94109561018627,0.0
1692,-23.230546377525314,-7.768984662894063,111.67759274440661,0.0
1693,-23.293361677158458,-7.942903874389101,111.42375322320541,0.0
1694,-23.41645558711811,-8.13285384146596,111.18010474208296,0.0
1695,-23.568274513806948,-8.27978745688771,110.94716945978021,0.0
1696,-23.679159453285415,-8.301190696027568,110.72546510590224,0.0
1697,-23.643710130471906,-8.100590143266002,110.51550612919573,0.0
1698,-23.333635699943585,-7.581946128237435,110.31780488726412,0.0
1699,-22.620830964989015,-6.666871365651843,110.13287287897558,0.0
1700,-21.40704819537535,-5.3116241134296,109.96122202131109,0.0
1701,-19.65339913757862,-3.5204120926923346,109.80336597290858,0.0
1702,-17.401335677641487,-1.351905627892591,109.65982150709127,0.0
1703,-14.777784308212338,1.0829968840639292,109.53110993772756,0.0
1704,-11.980927607512626,3.6323923393209805,109.41775860185966,0.0
1705,-9.248696419732685,6.121931724401783,109.3203024036648,0.0
1706,-6.817385044133369,8.377459689525361,109.23928542498147,0.0
1707,-4.880871323627788,10.247588950379837,109.17526260835216,0.0
1708,-3.5605519796876317,11.622117700275544,109.12880151930808,0.0
1709,-2.8925558278760444,12.443179419034879,109.1004841954643,0.0
1710,-2.8335519765277075,12.707656380686833,109.09090909090908,1.0
1711,-3.2814400918167475,12.461258044171984,109.16779126659107,0.0
1712,-4.103907659604658,11.78629297983584,109.39341900237237,0.0
1713,-5.166927090035505,10.78617291266203,109.7610788380244,0.0
1714,-6.356582106172781,9.56989600344794,110.26499400816544,0.0
1715,-7.590452661534955,8.239204654745404,110.90015745503044,0.0
1716,-8.818188336012945,6.880034024563548,111.66218366551385,0.0
1717,-10.013875861838363,5.5586032805779535,112.54717424818385,0.0
1718,-11.16458010369463,4.321399432470485,113.55159304682464,0.0
1719,-12.25965829999141,3.1976210688301836,114.67214726065258,0.0
1720,-13.284277856140768,2.2024963028003577,115.90567156665514,0.0
1721,-14.218573839527552,1.3402164984814038,117.24901266283781,0.0
1722,-15.041783814396611,0.605860467722473,118.6989120106108,0.0
1723,-15.739123521204398,-0.013613267009249919,120.25188488314811,0.0
1724,-16.308494484676714,-0.538681362136344,121.90409415460566,0.0
1725,-16.7644058005939,-0.9960163250027219,123.65121762179777,0.0
1726,-17.137516071891117,-1.4159561416606108,125.48830806442756,0.0
1727,-17.469542998606848,-1.8283755086042546,127.40964575173318,0.0
1728,-17.804519424042056,-2.257247645169952,129.40858372205415,0.0
1729,-18.178212300832584,-2.714770752782757,131.47738692597773,0.0
1730,-18.607891064234963,-3.1963355035807446,133.60706725897532,0.0
1731,-19.084615628493797,-3.677705089345336,135.78721763494033,0.0
1732,-19.569922994854885,-4.115517594741588,138.00584957572187,0.0
1733,-19.998257249583038,-4.451637748053209,140.24924030392458,0.0
1734,-20.28564694866485,-4.621097035742261,142.50179699174438,0.0
1735,-20.343927963087406,-4.562540557774404,144.74594756782628,0.0
1736,-20.098345914161598,-4.229439746144067,146.9620692039615,0.0
1737,-19.505021985305415,-3.600002479751433,149.12846712964574,0.0
1738,-18.564090046082786,-2.6838185611992755,151.22141753596833,0.0
1739,-17.32480513702138,-1.5238210709456446,153.21528876018917,0.0
1740,-15.880699986451644,-0.19301592675274026,155.0827543801012,0.0
1741,-14.355496981512735,1.2135612786006074,156.79510997449844,0.0
1742,-12.883091682948242,2.590293295350935,158.3227018390705,0.0
1743,-11.58654327703885,3.8338635254547975,159.63547069714917,0.0
1744,-10.561019629023315,4.855431087509071,160.70360638990343,0.0
1745,-9.864076855061288,5.590228290389038,161.49830088768326,0.0
1746,-9.514165760594631,6.003322309980975,161.99257724573496,0.0
1747,-9.495835710625565,6.0910610055124375,162.16216216216216,1.0
1748,-9.768626047660547,5.878475791735109,162.1002837204462,0.0
1749,-10.276508327874959,5.413490862549997,161.91840830206655,0.0
1750,-10.955785226046249,4.759111221289445,161.62253876810166,0.0
1751,-11.740904565156853,3.984834774429657,161.21909500855233,0.0
1752,-12.568898503964391,3.158415956884742,160.7148306728858,0.0
1753,-13.383539470010662,2.338880353740197,160.1167517981862,0.0
1754,-14.139762558182303,1.5714195918296676,159.43203873930975,0.0
1755,-14.807897079392609,0.8845222628777727,158.667972575906,0.0
1756,-15.376459903710296,0.2894321985033579,157.8318669321174,0.0
1757,-15.852197356191402,-0.21822826246398241,156.93100590686004,0.0
1758,-16.25678369332081,-0.655067118346035,155.9725885847825,0.0
1759,-16.620717944397978,-1.04535377431262,154.9636803874092,0.0
1760,-16.975941737530107,-1.41598123025559,153.9111713357515,0.0
1761,-17.349087613884425,-1.7916849816863807,152.8217411331184,0.0
1762,-17.756942329572393,-2.1911508574248715,151.70183084159456,0.0
1763,-18.20487654673856,-2.6244599464280065,150.55762081784385,0.0
1764,-18.688023841147977,-3.0920863590386483,149.3950144925448,0.0
1765,-19.194245581582464,-3.5854337270519507,148.21962752098813,0.0
1766,-19.707615138245536,-4.088710512752577,147.03678179767462,0.0
1767,-20.211339300072762,-4.58182080001979,145.85150381228374,0.0
1768,-20.689583240366446,-5.043878513386992,144.66852682513334,0.0
1769,-21.128328024898245,-5.45691358578091,143.49229635421892,0.0
1770,-21.515874238453648,-5.809302310622056,142.3269784902554,0.0
1771,-21.843697983970948,-6.098411855983028,141.17647058823528,0.0
1772,-22.10803280135305,-6.33191950123733,140.04441392153993,0.0
1773,-22.311951594531543,-6.527295524377204,138.93420792560158,0.0
1774,-22.467115841958528,-6.709080328028369,137.84902570085595,0.0
1775,-22.59398165649516,-6.903882237741594,136.79183048790142,0.0
1776,-22.71925204055569,-7.1334721744134955,135.76539287036906,0.0
1777,-22.869813427379583,-7.406895617025886,134.77230850223742,0.0
1778,-23.063303137199327,-7.713041226544423,133.8150161956922,0.0
1779,-23.29672575376469,-8.01543986653919,132.895816242822,0.0
1780,-23.535885407459812,-8.251059354398432,132.01688887933906,0.0
1781,-23.70934736553328,-8.33440459055253,131.18031283113763,0.0
1782,-23.710644880720725,-8.167328439929317,130.3880839150066,0.0
1783,-23.411132371613814,-7.653736661753855,129.64213369345038,0.0
1784,-22.683264968880206,-6.717085937630756,128.9443482106803,0.0
1785,-21.430676621130747,-5.31755808234794,128.29658686284034,0.0
1786,-19.618241867044468,-3.4653651665905953,127.70070148090414,0.0
1787,-17.293613697254035,-1.227007543379199,127.1585557299843,0.0
1788,-14.592609534056793,1.2775163530671776,126.67204495464789,0.0
1789,-11.724559748259837,3.886776194959671,126.24311662694174,0.0
1790,-8.939438424155307,6.417513775987061,125.87379158299451,0.0
1791,-6.484318742630977,8.688380149592799,125.56618626619837,0.0
1792,-4.56021927924456,10.543472640412377,125.32253623114504,0.0
1793,-3.290293616227299,11.871399337141726,125.14522120395543,0.0
1794,-2.706619237310237,12.616633230794724,125.03679204289398,0.0
1795,-2.7570695086098462,12.781646824321829,125.0,1.0
1796,-3.328099502320559,12.420283053629225,125.06167327464,0.0
1797,-4.275609694197907,11.624521944880023,125.24251680103649,0.0
1798,-5.455211922554847,10.50785014790996,125.5367213435723,0.0
1799,-6.744937988476759,9.188643943111856,125.93899592908384,0.0
1800,-8.056718305813682,7.776386787489889,126.44446654121434,0.0
1801,-9.336630946915557,6.362412016770637,127.04858411296998,0.0
1802,-10.556943899731648,5.015551040445592,127.74703969339163,0.0
1803,-11.70462880335783,3.781935626381914,128.5356850432064,0.0
1804,-12.771025121982216,2.6875082397456547,129.41045722745895,0.0
1805,-13.745895193925463,1.741639002403057,130.36730603917908,0.0
1806,-14.616896067522825,0.9405718832558059,131.40212332217124,0.0
1807,-15.373365320049158,0.27004465661009447,132.5106734753673,0.0
1808,-16.01198381832749,-0.2928886751522426,133.68852462621996,0.0
1809,-16.541628598675352,-0.7782758157105731,134.93098016512195,0.0
1810,-16.985390784380122,-1.2211392746449667,136.23301054432153,0.0
1811,-17.378842332961707,-1.6581364924525546,137.58918546955923,0.0
1812,-17.764704590736056,-2.122747721593662,138.99360685569712,0.0
1813,-18.184811827949545,-2.639306636743647,140.43984318248613,0.0
1814,-18.670653744691514,-3.2167647103308346,141.92086617500854,0.0
1815,-19.233982582512517,-3.8434955100241766,143.4289910445958,0.0
1816,-19.859148599577367,-4.484570805933242,144.95582185655516,0.0
1817,-20.498999587095383,-5.082708865192006,146.4922039336057,0.0
1818,-21.07616542410176,-5.563516575383561,148.02818554689497,0.0
1819,-21.49105141332484,-5.84481452950744,149.55299147317947,0.0
1820,-21.63665993949908,-5.848914763609631,151.05501128496513,0.0
1821,-21.418512677592958,-5.515925892454087,152.52180546215538,0.0
1822,-20.77593212038679,-4.815699556272023,153.94013253566777,0.0
1823,-19.699562139067087,-3.7560573808324778,155.296000457838,0.0
1824,-18.240054007058003,-2.385493422141675,156.57474520115753,0.0
1825,-16.50466037641552,-0.7895437078918447,157.7611391766384,0.0
1826,-14.641671373822492,0.9187605570834427,158.83953140148378,0.0
1827,-12.816132058907094,2.6127712905347,159.7940204086783,0.0
1828,-11.182803224235675,4.1680169504102365,160.60865967090652,0.0
1829,-9.862924089581279,5.47719468274865,161.2676938228421,0.0
1830,-8.929838487376317,6.46193028237546,161.75582225264242,0.0
1831,-8.40560995497575,7.079646945520755,162.058484770924,0.0
