,PPG_Raw,PPG_Clean,PPG_Rate,PPG_Peaks
0,-0.41860516249277246,-0.7874224286356266,91.45708899685143,0.0
1,-0.25231289910335164,-0.5644354686214442,91.45708899685143,0.0
2,-0.13540915183483992,-0.37557979419677245,91.45708899685143,0.0
3,-0.10451946791595335,-0.24845630581527234,91.45708899685143,0.0
4,-0.17452006839478806,-0.20362343069716576,91.45708899685143,0.0
5,-0.3378994905718218,-0.2554060466211512,91.45708899685143,0.0
6,-0.5792538492494532,-0.41439978303674263,91.45708899685143,0.0
7,-0.896678497689938,-0.688802152651987,91.45708899685143,0.0
8,-1.3102985110839396,-1.0822463045217408,91.45708899685143,0.0
9,-1.8463441055152243,-1.5882408717604064,91.45708899685143,0.0
10,-2.5073265882045903,-2.1841750700697173,91.45708899685143,0.0
11,-3.252284845031252,-2.8291503937211218,91.45708899685143,0.0
12,-4.002723680069564,-3.468544229935379,91.45708899685143,0.0
13,-4.670243271376543,-4.044837687463618,91.45708899685143,0.0
14,-5.188976311453336,-4.51085784765349,91.45708899685143,0.0
15,-5.535986640540888,-4.84022853488926,91.45708899685143,0.0
16,-5.7313996913981144,-5.031250498056778,91.45708899685143,0.0
17,-5.821363329270358,-5.103716686569529,91.45708899685143,0.0
18,-5.855736692615721,-5.091363748267055,91.45708899685143,0.0
19,-5.8731403674194524,-5.034002411951164,91.45708899685143,0.0
20,-5.897889719076609,-4.972260394814154,91.45708899685143,0.0
21,-5.944601281605265,-4.945120834442019,91.45708899685143,0.0
22,-6.024657350615587,-4.987734683615097,91.45708899685143,0.0
23,-6.151308854284411,-5.125999861071107,91.45708899685143,0.0
24,-6.339802310273957,-5.365986333468643,91.45708899685143,0.0
25,-6.596372031459374,-5.680016459635434,91.45708899685143,0.0
26,-6.893983974127286,-5.995369132147264,91.45708899685143,0.0
27,-7.146037751895442,-6.193734780802293,91.45708899685143,0.0
28,-7.200199044954758,-6.12771298866034,91.45708899685143,0.0
29,-6.869204203893251,-5.654571889977993,91.45708899685143,0.0
30,-5.994588713024488,-4.679333820742451,91.45708899685143,0.0
31,-4.518214290092156,-3.1928788027577166,91.45708899685143,0.0
32,-2.5282703752272315,-1.289835405515385,91.45708899685143,0.0
33,-0.2534178247115486,0.8430838549235906,91.45708899685143,0.0
34,1.9995830739863791,2.9669501501155713,91.45708899685143,0.0
35,3.9393736954710574,4.846439755978467,91.45708899685143,0.0
36,5.370845027397628,6.303197495598319,91.45708899685143,0.0
37,6.229828330356689,7.249621778431911,91.45708899685143,0.0
38,6.5687410375154025,7.693879550093435,91.45708899685143,0.0
39,6.513616463102463,7.717816004463446,91.45708899685143,1.0
40,6.213212201498234,7.438643125537226,91.45908748345768,0.0
41,5.791699530565789,6.9695306723035415,91.46505191374517,0.0
42,5.315858927161581,6.392457696339095,91.47493649901259,0.0
43,4.790300524982226,5.750201541528534,91.48869642631045,0.0
44,4.184526046635531,5.056050232191717,91.506287819695,0.0
45,3.475570136206505,4.313138630854203,91.52766770250693,0.0
46,2.6791285472283963,3.5328124639270913,91.55279396062562,0.0
47,1.8524891359627746,2.743736918589834,91.58162530665255,0.0
48,1.0729881026009984,1.9889884603321222,91.61412124497885,0.0
49,0.4082223243391512,1.3141904479936066,91.65024203769427,0.0
50,-0.10605402766780814,0.7532238891072267,91.68994867129669,0.0
51,-0.4721933183219607,0.31803624155678667,91.73320282416321,0.0
52,-0.7222458587716056,-0.003739835708532313,91.77996683474494,0.0
53,-0.9025773528979656,-0.24345969106085408,91.83020367044979,0.0
54,-1.0596514706459925,-0.44150937602685925,91.88387689717916,0.0
55,-1.2304705056241865,-0.6368849679130466,91.9409506494852,0.0
56,-1.4372976401351187,-0.8596676519431039,92.00138960131741,0.0
57,-1.686556263989003,-1.1277991438305965,92.06515893732839,0.0
58,-1.9730347020901835,-1.447498934234231,92.13222432470961,0.0
59,-2.2882452737444465,-1.8153980351169519,92.20255188552991,0.0
60,-2.6270271692133944,-2.2204666414548493,92.27610816954956,0.0
61,-2.9860910419478195,-2.6449459113912748,92.35286012748526,0.0
62,-3.3556505506824506,-3.0650272956164573,92.43277508470108,0.0
63,-3.7134553364053344,-3.4529736295845255,92.51582071530244,0.0
64,-4.029157661528366,-3.7820618080350545,92.6019650166103,0.0
65,-4.276340956385086,-4.034180911312031,92.69117628399502,0.0
66,-4.442474341682221,-4.207864028921188,92.78342308604864,0.0
67,-4.532052068235387,-4.322972896632187,92.87867424007624,0.0
68,-4.566635520096477,-4.418058393358756,92.97689878788815,0.0
69,-4.584271793208064,-4.538082350586728,93.0780659718744,0.0
70,-4.631560910813235,-4.71365951079528,93.18214521134482,0.0
71,-4.739821136403661,-4.937411085468738,93.28910607911858,0.0
72,-4.88990248484446,-5.1466411567247174,93.39891827834721,0.0
73,-4.98588177600366,-5.222153072390906,93.51155161955667,0.0
74,-4.859359007549607,-5.009154731854201,93.62697599789445,0.0
75,-4.31188309923615,-4.358351524843406,93.74516137056814,0.0
76,-3.1852163218474625,-3.176277425133535,93.86607773446299,0.0
77,-1.435868823762872,-1.4677620497961101,93.98969510392641,0.0
78,0.8183378570692996,0.6463591222730738,94.11598348870805,0.0
79,3.30927166537686,2.945710520366953,94.24491287204515,0.0
80,5.692004999982494,5.158222897480845,94.37645318888264,0.0
81,7.649102015589909,7.024671124113025,94.5105743042191,0.0
82,8.976558375112807,8.358847305402255,94.6472459915698,0.0
83,9.620524171729317,9.084203275356497,94.78643791153826,0.0
84,9.664916700402562,9.236913581303014,94.92811959048974,1.0
85,9.283936889409384,8.937597115829096,95.10667600589224,0.0
86,8.674848429040386,8.344388187363581,95.35426174007569,0.0
87,7.992896976788524,7.604869516757124,95.66766459688814,0.0
88,7.315029333377055,6.822326672635048,96.04385172147765,0.0
89,6.64551163750723,6.0444096914489265,96.47992351201444,0.0
90,5.950540896838274,5.273095360043783,96.97307051022776,0.0
91,5.1952441992916665,4.487631607171499,97.52053261270078,0.0
92,4.366239002541993,3.6693151722219697,98.11956006973254,0.0
93,3.4796088510712035,2.8186950567459466,98.7673758493497,0.0
94,2.5792110445131335,1.9604938236039446,99.46113904553847,0.0
95,1.7260316078339204,1.1368957242119226,100.1979091059333,0.0
96,0.9790767450269215,0.3938892101336897,100.97461074833565,0.0
97,0.37505231312952514,-0.2330574387087414,101.78799953026731,0.0
98,-0.08262196119893339,-0.7287060334620445,102.63462813346084,0.0
99,-0.4209266881124756,-1.1006697659521434,103.51081352740019,0.0
100,-0.6842157564652074,-1.3756896476220133,104.41260528378953,0.0
101,-0.9183798348359415,-1.592484517727728,105.33575542751329,0.0
102,-1.1590177071605239,-1.7943631336735018,106.27569032882018,0.0
103,-1.42800591644145,-2.023290128503944,107.22748526472365,0.0
104,-1.7382582504153374,-2.314904778888816,108.18584240246227,0.0
105,-2.1003810652267743,-2.692568584534109,109.1450730805064,0.0
106,-2.5224217056224414,-3.1589427173371742,110.0990853778211,0.0
107,-2.9988859994829733,-3.685908166227441,111.04137806313685,0.0
108,-3.4938905769603084,-4.206689703113716,111.96504209454098,0.0
109,-3.928203701588189,-4.615981610127543,112.86277088602345,0.0
110,-4.178589126629414,-4.7830727649363105,113.7268805607471,0.0
111,-4.094955280473421,-4.578941767189331,114.54934135910813,0.0
112,-3.538695233638994,-3.9121788892120097,115.32182125144104,0.0
113,-2.4379049825215056,-2.762964853945177,116.03574260981983,0.0
114,-0.8386046575178283,-1.2022298896542418,116.68235251231634,0.0
115,1.08044475275837,0.6135220143264103,117.25280688144247,0.0
116,3.0483373274161716,2.472949920849766,117.73826819664623,0.0
117,4.783162745187651,4.157469504077806,118.13001597566667,0.0
118,6.074948072332509,5.490040208493272,118.41956860628216,0.0
119,6.8352005604660135,6.368981222299444,118.59881445229124,0.0
120,7.097280636426597,6.776977532839866,118.66014948811218,1.0
121,6.973171308548865,6.76558969555847,118.59447585570742,0.0
122,6.590750839107222,6.424783421875058,118.40078196430558,0.0
123,6.044112429429049,5.851181812611142,118.0846338011493,0.0
124,5.379080329206429,5.126556597651841,117.65227520393624,0.0
125,4.61138889874834,4.311334495903099,117.11051242162398,0.0
126,3.7560487465398116,3.4503599015779995,116.46659715190607,0.0
127,2.847490215697755,2.583394571702054,115.72811109915472,0.0
128,1.9432083601416765,1.7525005947151366,114.90285472879388,0.0
129,1.1133128251702393,1.0018429650423373,113.99874246080867,0.0
130,0.42130999631032706,0.3703130746504095,113.02370607722592,0.0
131,-0.09642645204897615,-0.11875823716640377,111.9856076440744,0.0
132,-0.44277198384483807,-0.46524977456019556,110.8921627914954,0.0
133,-0.6571232113277858,-0.6932180184599304,109.7508747751723,0.0
134,-0.7999625529707635,-0.8443734930683311,108.56897937149337,0.0
135,-0.932637881031841,-0.966541562509029,107.35340034601676,0.0
136,-1.1000468878147125,-1.101457481447894,106.11071498332875,0.0
137,-1.3214496752306806,-1.2760668938451079,104.84712897579045,0.0
138,-1.5920691757940046,-1.4996271941017665,103.56845983542465,0.0
139,-1.8939759568645438,-1.7663887906637936,102.28012791161915,0.0
140,-2.209207822757047,-2.061667176330631,100.98715406040202,0.0
141,-2.526413283110763,-2.3684412009248588,99.69416301115788,0.0
142,-2.838790535763358,-2.672225865951252,98.40539150614407,0.0
143,-3.1398733047197473,-2.963256435367612,97.12470033976311,0.0
144,-3.4239172047824034,-3.236241442464356,95.85558949167806,0.0
145,-3.6890729453048707,-3.4886647282675107,94.60121562479387,0.0
146,-3.9364877261814977,-3.7188056674265866,93.36441130108443,0.0
147,-4.164329330026142,-3.9244374157010955,92.14770535136647,0.0
148,-4.364307096041867,-4.102674192099225,90.95334391642983,0.0
149,-4.5269030201777305,-4.250819059490853,89.78331175424756,0.0
150,-4.650354478833098,-4.367585022620811,88.63935347981015,0.0
151,-4.742428480468323,-4.4539911974669035,87.52299446953319,0.0
152,-4.8126554339160545,-4.513564500395477,86.43556122071577,0.0
153,-4.864679931745833,-4.551876471409558,85.37820100808001,0.0
154,-4.897622676116872,-4.5755822432782995,84.35190072417018,0.0
155,-4.913173478453569,-4.591019174443316,83.35750482869564,0.0
156,-4.9179846097738515,-4.602390090359398,82.39573236425852,0.0
157,-4.91797165057441,-4.609842146937803,81.46719302287796,0.0
158,-4.912052128054867,-4.608226432254673,80.57240226991577,0.0
159,-4.893045156304702,-4.587597706676762,79.71179555002797,0.0
160,-4.853682121773135,-4.536275765833685,78.8857416142098,0.0
161,-4.790129776336083,-4.446478204170272,78.09455501843192,0.0
162,-4.701489017647387,-4.321286657886984,77.33850785330672,0.0
163,-4.59138908705774,-4.180326378339269,76.61784077116191,0.0
164,-4.474981648086921,-4.060580798545254,75.93277338227067,0.0
165,-4.38456874833883,-4.00902783494073,75.28351409619431,0.0
166,-4.363309788614042,-4.065924231154459,74.67026948759289,0.0
167,-4.444209672161967,-4.241464936521911,74.09325326877872,0.0
168,-4.6217929032917455,-4.492976336725896,73.55269495402874,0.0
169,-4.827441069404072,-4.712699925358989,73.04884830351097,0.0
170,-4.918202654342036,-4.7355396607361415,72.58199963788728,0.0
171,-4.689050821650883,-4.370912081961532,72.15247611848835,0.0
172,-3.91836974568508,-3.4540025437874817,71.7606540926854,0.0
173,-2.4460727235029096,-1.9023576397397424,71.40696760998415,0.0
174,-0.2598587350178416,0.2418431211956258,71.09191722174438,0.0
175,2.456719889340987,2.8016618399784052,70.81607918662539,0.0
176,5.353779664321044,5.495332411885787,70.58011521526596,0.0
177,8.0181973441759,7.99956664692955,70.38478290179182,0.0
178,10.099826713374336,10.02656693857485,70.23094700705859,0.0
179,11.403656034717391,11.38964393232463,70.11959177975976,0.0
180,11.920072140329108,12.03690440605315,70.05183452748301,0.0
181,11.793997558068124,12.044776202930267,70.02894068150883,1.0
182,11.250077347424526,11.57759560991955,70.0435729114777,0.0
183,10.506161375120165,10.830106935473784,70.08676412322244,0.0
184,9.713510550933076,9.972860755767087,70.1575045270052,0.0
185,8.943395846862288,9.116158650248497,70.25484234480379,0.0
186,8.206422329510321,8.299466562016349,70.3778761136741,0.0
187,7.475853058464651,7.504227988628237,70.5257475161221,0.0
188,6.702796582290614,6.681743588058456,70.6976346604449,0.0
189,5.833395557112925,5.785193371117813,70.89274574388497,0.0
190,4.836881991619757,4.795476235702995,71.11031304005228,0.0
191,3.7332027768239895,3.733523686734849,71.3495871596389,0.0
192,2.5983499592251595,2.6564112585244746,71.60983154017616,0.0
193,1.5391501207853202,1.6399607605987074,71.89031712663716,0.0
194,0.6513300851115904,0.7550036911628042,72.19031721020778,0.0
195,-0.01595904279890803,0.046316319775071335,72.50910239766563,0.0
196,-0.47262030235984387,-0.47842682103459033,72.8459356886255,0.0
197,-0.7747465328609748,-0.8467894647180612,73.20006764252751,0.0
198,-0.9966287138972652,-1.109117597090573,73.57073162174434,0.0
199,-1.202929035939432,-1.321473343751442,73.95713910163828,0.0
200,-1.432701033586655,-1.5306739841218984,74.35847504287383,0.0
201,-1.6980126339076786,-1.766054704189068,74.77389332583815,0.0
202,-1.9922781366102522,-2.0389904970208867,75.20251225169001,0.0
203,-2.301655784096356,-2.347914160946424,75.64341011938077,0.0
204,-2.615221413744859,-2.6849034155732503,76.09562089299722,0.0
205,-2.9310473763544653,-3.0403228001344402,76.55812997898016,0.0
206,-3.2549947970239717,-3.404001030962408,77.029870138178,0.0
207,-3.5917538886136553,-3.763878793067108,77.50971756329025,0.0
208,-3.9344376563294112,-4.1047199610048795,77.99648815801488,0.0
209,-4.262279928802873,-4.4095051954278865,78.48893406009184,0.0
210,-4.549900260684926,-4.664505024463448,78.98574045636796,0.0
211,-4.781283911051091,-4.866570925880942,79.48552274391051,0.0
212,-4.958148548187526,-5.029096434297726,79.98682409695583,0.0
213,-5.099262487977832,-5.182411146283768,80.48811350496483,0.0
214,-5.235191008999848,-5.365558488999289,80.98778435210058,0.0
215,-5.4014725235450305,-5.609353001618045,81.48415361286399,0.0
216,-5.62514789124817,-5.914617793764785,81.97546174220079,0.0
217,-5.899135683435704,-6.233245997883943,82.45987334089261,0.0
218,-6.1526030023120395,-6.461389544530342,82.9354786782063,0.0
219,-6.239629452093059,-6.45201010481691,83.40029615332338,0.0
220,-5.965364142503766,-6.047895898411578,83.85227577472516,0.0
221,-5.148431337506059,-5.127845929041863,84.28930373218239,0.0
222,-3.696620191381953,-3.6516171222231524,84.70920812902871,0.0
223,-1.6628682806249309,-1.6871303426806565,85.1097659327334,0.0
224,0.7473828818936608,0.5918734631575595,85.48871118923992,0.0
225,3.2272275764972456,2.9394250601806524,85.84374453095501,0.0
226,5.457617077248146,5.09246431671644,86.17254398960407,0.0
227,7.193609205621408,6.830025744721388,86.4727771034441,0.0
228,8.312433980561503,8.017997286070349,86.74211428370538,0.0
229,8.816278717793217,8.626862186694769,86.97824337789787,0.0
230,8.804932083364271,8.719750772790164,87.17888533820486,1.0
231,8.433217740307267,8.418029246376364,87.36103958409137,0.0
232,7.86041820755766,7.858082171399621,87.54310347896876,0.0
233,7.2028446175869645,7.154106799487251,87.72492781054774,0.0
234,6.508882481845703,6.377742629225015,87.90636094644292,0.0
235,5.769050187297293,5.55801509809306,88.08724883273005,0.0
236,4.951930407062626,4.69729102352828,88.26743499798611,0.0
237,4.0417744669333775,3.7936978882651147,88.44676056303075,0.0
238,3.0591254337341502,2.8595441622826288,88.62506425658715,0.0
239,2.0606918309130413,1.928559172054308,88.80218243708129,0.0
240,1.1232781750971488,1.0504013148456628,88.97794912079601,0.0
241,0.3188604449918424,0.27630326792421744,89.15219601659534,0.0
242,-0.30973495092565795,-0.3571832492122855,89.32475256742968,0.0
243,-0.7617892789798493,-0.8395088824211308,89.495445998829,0.0
244,-1.0747478349079616,-1.1885201032542918,89.66410137458485,0.0
245,-1.3073874688807077,-1.443940331122279,89.83054165981473,0.0
246,-1.5194824695217555,-1.6553173443352334,89.99458779159431,0.0
247,-1.7559004662057824,-1.8692515376919645,90.1560587573329,0.0
248,-2.039205992201007,-2.1199705248339273,90.31477168105619,0.0
249,-2.371652606803628,-2.425112666353297,90.47054191774772,0.0
250,-2.743923657218999,-2.786176797582193,90.62318315588612,0.0
251,-3.144093951995927,-3.191619431226845,90.77250752829902,0.0
252,-3.560198593079372,-3.620526145675641,90.91832573143756,0.0
253,-3.9762507621321257,-4.04583583118641,91.06044715315593,0.0
254,-4.368936079263488,-4.437402768865877,91.19868000905973,0.0
255,-4.711399492059225,-4.765894743089441,91.33283148746472,0.0
256,-4.981649118158927,-5.0082527367578304,91.46270790298325,0.0
257,-5.167803562425155,-5.154324506736193,91.58811485873082,0.0
258,-5.268139507645939,-5.2128093996088225,91.70885741711702,0.0
259,-5.292063230606656,-5.21344185328498,91.82474027915723,0.0
260,-5.265677705325189,-5.202121328789831,91.9355679722112,0.0
261,-5.233945997010292,-5.227144584106069,92.04114504602272,0.0
262,-5.24691305861258,-5.317984029544425,92.1412762769018,0.0
263,-5.329167842152462,-5.46232356054386,92.23576687985734,0.0
264,-5.447544762679438,-5.5904056717872646,92.32442272845164,0.0
265,-5.495548770354889,-5.575998489784489,92.40705058211344,0.0
266,-5.3041320814123605,-5.2592524596426475,92.48345832060782,0.0
267,-4.6797735478336735,-4.489043319390008,92.55345518532422,0.0
268,-3.466646117668259,-3.173710627708955,92.61685202700527,0.0
269,-1.6196636755114693,-1.3231637433985717,92.67346155950042,0.0
270,0.7431100610619903,0.93449824472434,92.72309861908982,0.0
271,3.3460879325109776,3.3712682847427597,92.76558042888455,0.0
272,5.830744466134963,5.709353291383155,92.80072686777179,0.0
273,7.8667899053595,7.687665678684779,92.82836074333466,0.0
274,9.247345358953385,9.12252692800682,92.84830806813983,0.0
275,9.931287221864919,9.942674834937428,92.8603983387501,0.0
276,10.02402082861728,10.188859415467265,92.86446481678344,1.0
277,9.7112118338739,9.981797757747119,92.84805726892925,0.0
278,9.177927166434776,9.473158191631834,92.79968876494942,0.0
279,8.550607548745631,8.79832551788412,92.72068609438503,0.0
280,7.882026611498868,8.046168250611649,92.61242981519894,0.0
281,7.170348486531675,7.252444007595242,92.47634561291397,0.0
282,6.388272632467819,6.414025377840013,92.31389586666317,0.0
283,5.507648325696945,5.514432041575315,92.12657149405857,0.0
284,4.519952565170591,4.54894391892158,91.91588413760347,0.0
285,3.4532167423172724,3.539652625083928,91.68335874598175,0.0
286,2.3763643765668725,2.535800690201876,91.43052659417543,0.0
287,1.3816609858974123,1.6007543314977646,91.15891877718025,0.0
288,0.5505613137255536,0.7919251993849739,90.87006020326862,0.0
289,-0.07812685062183977,0.14218765468878702,90.56546410443151,0.0
290,-0.52068571363594,-0.3499197500671638,90.24662707391838,0.0
291,-0.8373632100372808,-0.717992264546282,89.91502463377074,0.0
292,-1.105459109159269,-1.0153349473958226,89.57210732896247,0.0
293,-1.3902580552359738,-1.2978085002376871,89.21929733924982,0.0
294,-1.7269594640921633,-1.6084398743009891,88.85798559510401,0.0
295,-2.1195702731389914,-1.9685602285707828,88.48952938014236,0.0
296,-2.551915897300362,-2.376981641075928,88.11525039926141,0.0
297,-3.0000863339997004,-2.8156201826691523,87.73643328917608,0.0
298,-3.43967561128912,-3.2582314139107127,87.35432454622965,0.0
299,-3.8492429634914034,-3.6788412427435855,86.97013184511339,0.0
300,-4.213920365943074,-4.057554802118955,86.58502372145959,0.0
301,-4.528221083257985,-4.382946748597549,86.20012959109062,0.0
302,-4.793645151583035,-4.651532594536589,85.81654007895914,0.0
303,-5.011679220294408,-4.865513680713315,85.43530763144076,0.0
304,-5.179717784093397,-5.0299941900509255,85.05744738658565,0.0
305,-5.294998409816081,-5.150418261519885,84.68393827814627,0.0
306,-5.361139413250151,-5.230526336149479,84.31572435062586,0.0
307,-5.3876407084035165,-5.271060856208104,83.95371626419339,0.0
308,-5.3818878039624,-5.2697258395079665,83.59879297004527,0.0
309,-5.343678402661336,-5.223066287282551,83.2518035386306,0.0
310,-5.269736132525171,-5.130508451201764,82.91356912506328,0.0
311,-5.163391613549615,-4.999736790750183,82.58488505800156,0.0
312,-5.038867643723355,-4.851305655634933,82.26652304026037,0.0
313,-4.917577071377869,-4.719519966160787,81.95923345142504,0.0
314,-4.82357596149564,-4.646728897280983,81.66374774474257,0.0
315,-4.782824556575292,-4.669666253538383,81.38078093257764,0.0
316,-4.819388676382564,-4.799456666409514,81.11103415673125,0.0
317,-4.937672891407597,-5.000826300822389,80.85519734193396,0.0
318,-5.091856983550156,-5.179343079041385,80.61395193285053,0.0
319,-5.160928235141895,-5.185940190563741,80.38797371697706,0.0
320,-4.952984316130241,-4.843891783789037,80.17793573789044,0.0
321,-4.2510454823338595,-3.995175851966516,79.98451130544039,0.0
322,-2.8923985366634564,-2.5537369150684723,79.80837711167744,0.0
323,-0.8529464141464156,-0.5471030041465079,79.6502164636117,0.0
324,1.7059508777662629,1.8710378142145219,79.5107226463263,0.0
325,4.463491430003529,4.445593816035466,79.39060243256182,0.0
326,7.035873012312315,6.8767229888876695,79.29057975768275,0.0
327,9.095444153481733,8.89062819788447,79.21139958198138,0.0
328,10.453912832483825,10.301436114412232,79.15383196562243,0.0
329,11.083934022009407,11.044992378686247,79.11867638524697,0.0
330,11.092008597799282,11.176309431835056,79.10676632540812,1.0
331,10.664865621798612,10.835330866053734,79.11264217251656,0.0
332,10.003982190210703,10.195507081087607,79.13003941949322,0.0
333,9.26529691652426,9.41327250041956,79.15861971739241,0.0
334,8.52690837990221,8.593506554888137,79.19805339472359,0.0
335,7.79565868773437,7.778501994862375,79.248018521631,0.0
336,7.038610383050122,6.959221716460614,79.30820001675643,0.0
337,6.214335590782188,6.100892846631287,79.37828879325819,0.0
338,5.292590540212531,5.172038838704319,79.45798094080895,0.0
339,4.2680454689338685,4.166905050775142,79.5469769407169,0.0
340,3.172578890236983,3.1147741824050685,79.6449809116132,0.0
341,2.0780390275361897,2.0745070216610744,79.75169988342562,0.0
342,1.0790127040789221,1.117502237966644,79.86684309761749,0.0
343,0.2591578040281166,0.30590185965418515,79.99012133191395,0.0
344,-0.34105292365894346,-0.32587547807334927,80.12124624796618,0.0
345,-0.7376056797235719,-0.7798763979263237,80.25992976062201,0.0
346,-0.9918536147758532,-1.091282867235952,80.40588342767663,0.0
347,-1.1829327170047903,-1.3153881948428658,80.5588178591756,0.0
348,-1.378516346623417,-1.5106138960390658,80.71844214553077,0.0
349,-1.6173986423816697,-1.7239532652427552,80.88446330389371,0.0
350,-1.9091645668078576,-1.9831970644804908,81.0565857424071,0.0
351,-2.24558999882956,-2.2968499305250702,81.23451074212771,0.0
352,-2.6130433339924983,-2.659507418483571,81.41793595658119,0.0
353,-2.999141909325849,-3.058906769071949,81.60655492907364,0.0
354,-3.394655462050924,-3.481214519889429,81.80005662804494,0.0
355,-3.794104647122242,-3.9128441655667583,81.99812500090617,0.0
356,-4.194572416395353,-4.339271865832691,82.20043854695791,0.0
357,-4.590150184154091,-4.743008322671924,82.40666991013705,0.0
358,-4.964689063007584,-5.103408955142719,82.6164854924888,0.0
359,-5.291430494892947,-5.400101126804936,82.82954508940402,0.0
360,-5.544180824646155,-5.619789279718894,83.0455015478047,0.0
361,-5.7126904744494045,-5.763926726420464,83.26400044859616,0.0
362,-5.809470536806289,-5.853274077030788,83.48467981483702,0.0
363,-5.864091532694949,-5.925454070165658,83.70716984720481,0.0
364,-5.912406218078149,-6.02343454641055,83.93109268845443,0.0
365,-5.987316724707214,-6.176076277769652,84.1560622186802,0.0
366,-6.107051709220639,-6.375718487819268,84.38168388329548,0.0
367,-6.2533411362882445,-6.561028541143903,84.6075545557382,0.0
368,-6.344468173100136,-6.614343507405654,84.8332624369937,0.0
369,-6.224751550079226,-6.379928834357164,85.05838699409638,0.0
370,-5.692964274820792,-5.702713927193729,85.28249893982719,0.0
371,-4.5720156698034184,-4.478136982663232,85.50516025586424,0.0
372,-2.7943290706599284,-2.696704760228202,85.72592426166572,0.0
373,-0.46033676243363497,-0.4658088966035021,85.94433573136672,0.0
374,2.1669788985893588,2.0020821758063603,86.15993106095245,0.0
375,4.737461184279023,4.433673134647159,86.3722384879287,0.0
376,6.92311539323361,6.558029412981275,86.58077836564246,0.0
377,8.506011099555021,8.168191631208343,86.78506349431113,0.0
378,9.410809348296757,9.161918871458944,86.98459951069643,0.0
379,9.6882107492333,9.550602721356364,87.17888533820486,1.0
380,9.475623845464405,9.436833643295666,87.375791892191,0.0
381,8.950893657840204,8.97107518960263,87.58317879615025,0.0
382,8.281683626782934,8.303270910546164,87.80052000935072,0.0
383,7.579161675444257,7.544907871197202,88.02728399772305,0.0
384,6.875873448780349,6.751826186255399,88.26293239785065,0.0
385,6.140597239777946,5.929970288188046,88.50691873304152,0.0
386,5.319713544773686,5.058203912859621,88.75868718196683,0.0
387,4.37942250681694,4.117073934283826,89.01767140103729,0.0
388,3.3299526639778168,3.1116789867547547,89.28329340235587,0.0
389,2.2285729573707593,2.0804254994544182,89.554962489743,0.0
390,1.1655552161017435,1.0876599312110402,89.83207425597034,0.0
391,0.2373323774802587,0.20443526282740065,90.11400964496673,0.0
392,-0.4859541087622008,-0.5142525908980691,90.40013408336786,0.0
393,-0.9852023674757084,-1.0468080250110203,90.68979668637063,0.0
394,-1.2969841971480645,-1.4107956124895544,90.98232954341624,0.0
395,-1.4965609335992203,-1.6558121688714456,91.27704708976262,0.0
396,-1.6687313422572188,-1.8470270507005626,91.57324557050558,0.0
397,-1.8795980142261142,-2.0458854329655343,91.8702026040678,0.0
398,-2.1601192482845826,-2.2945494097433174,92.16717685258327,0.0
399,-2.5064091424362496,-2.6082745001073104,92.46340780695655,0.0
400,-2.893281318794576,-2.9765002448194893,92.75811569466066,0.0
401,-3.290709959593264,-3.3705928010257007,93.05050151854444,0.0
402,-3.6734290074866687,-3.7548943014537315,93.33974723504015,0.0
403,-4.022149826273537,-4.097951367819835,93.62501608018243,0.0
404,-4.323108821119254,-4.381692926928451,93.9054530517597,0.0
405,-4.571905167067747,-4.607036532902038,94.18018555570859,0.0
406,-4.778708514588787,-4.794624556407197,94.44832422451621,0.0
407,-4.966967202936483,-4.979497631550777,94.70896391490625,0.0
408,-5.163884470798068,-5.199155519887534,94.96118489144257,0.0
409,-5.388940431202872,-5.476076869993304,95.20405420187487,0.0
410,-5.644723032356952,-5.79828790838826,95.43662724907463,0.0
411,-5.9055980599596465,-6.104245728803766,95.65794956325227,0.0
412,-6.099554227268012,-6.279748962325327,95.86705877681072,0.0
413,-6.092865867225057,-6.173163547007312,96.0629868026722,0.0
414,-5.701033017039981,-5.630027513866205,96.24476221521665,0.0
415,-4.742720336003751,-4.540057077315753,96.41141283109853,0.0
416,-3.1242864002317745,-2.881991347583903,96.5619684851737,0.0
417,-0.9123445472852811,-0.7488935381003157,96.69546399457997,0.0
418,1.6528579976715099,1.6587393851292411,96.81094230169877,0.0
419,4.221164804347881,4.073370683326417,96.9074577842957,0.0
420,6.4452346065443855,6.222494229808041,96.98407971863153,0.0
421,8.084632216451896,7.891828397151976,97.03989587877672,0.0
422,9.053917146007421,8.968894848882384,97.07401625279334,0.0
423,9.406812191256451,9.45438107696625,97.08557685390996,1.0
424,9.283363853692077,9.441020514946725,97.05567444014642,0.0
425,8.853053207469873,9.070800519909184,96.96739644258408,0.0
426,8.269228153242745,8.487126548069174,96.82303339638712,0.0
427,7.635454730556073,7.797916485027302,96.62505048196478,0.0
428,6.9873807174773335,7.059701755431903,96.376061130068,0.0
429,6.300393007612278,6.284267311726058,96.07880069103548,0.0
430,5.525227087497806,5.461196162547113,95.73610056324408,0.0
431,4.634528744970375,4.584640412722692,95.35086313260315,0.0
432,3.653722657581274,3.6724071791192863,94.92603782716317,0.0
433,2.6602723789939113,2.769912515387368,94.46459854058729,0.0
434,1.7550623090599884,1.9386706771425872,93.96952262719394,0.0
435,1.0226033207613905,1.235601078695664,93.44377162114888,0.0
436,0.4992793010634755,0.6927779804866181,92.8902737845374,0.0
437,0.16324141758239774,0.306200414163198,92.31190854457498,0.0
438,-0.05171814350837867,0.03764722709723478,91.71149283994401,0.0
439,-0.22802624002993932,-0.17196521029110445,91.09176936071822,0.0
440,-0.4366694750928466,-0.3835866662271612,90.45539663586894,0.0
441,-0.7197711324371736,-0.6426467339803588,89.80494089702198,0.0
442,-1.085058920622514,-0.9689428485919394,89.14286962686252,0.0
443,-1.5104027612159237,-1.3560323733647266,88.47154668512387,0.0
444,-1.9566301557005716,-1.7786808812362604,87.79322889409991,0.0
445,-2.3848607700617097,-2.2043941249569956,87.11006395865716,0.0
446,-2.77060445675002,-2.6044226165880664,86.42408959231985,0.0
447,-3.1072679887705337,-2.960783722114698,85.73723372066233,0.0
448,-3.3995085155503384,-3.2680130138504095,85.0513156354723,0.0
449,-3.654829778211369,-3.530474622963867,84.36804797746682,0.0
450,-3.8805447620293347,-3.757328643092427,83.68903943130363,0.0
451,-4.084247881215351,-3.9574571254109108,83.01579802382253,0.0
452,-4.271511849556059,-4.136068012558143,82.34973492451245,0.0
453,-4.44084018111511,-4.293750181525155,81.69216865581,0.0
454,-4.583154778366417,-4.427766156722088,81.04432962972678,0.0
455,-4.689483271793295,-4.534590918932977,80.40736493625049,0.0
456,-4.759704721086826,-4.612381380836316,79.78234331778894,0.0
457,-4.802325560386148,-4.662318290567537,79.170260272485,0.0
458,-4.8255185502471285,-4.688422600400054,78.57204323742168,0.0
459,-4.830197001805846,-4.696095924989086,77.98855681048315,0.0
460,-4.813277198166535,-4.689972066512402,77.420607976895,0.0
461,-4.776396041862103,-4.6717730097643635,76.86895131321273,0.0
462,-4.728226790235219,-4.639008922871412,76.33429414775428,0.0
463,-4.676763337692838,-4.5855570215707,75.81730166219369,0.0
464,-4.6208990492202435,-4.504976355757032,75.31860192427206,0.0
465,-4.551684295367648,-4.39639597663451,74.83879084637103,0.0
466,-4.462622978052953,-4.2710296896157205,74.37843706907691,0.0
467,-4.35974897751116,-4.155650538731996,73.93808677288473,0.0
468,-4.264530782566583,-4.088893762564181,73.51826842490583,0.0
469,-4.209130918478826,-4.107926619029682,73.11949747090202,0.0
470,-4.224671155509252,-4.226845083223148,72.74228098623657,0.0
471,-4.320179965810888,-4.413049407525403,72.3871223024643,0.0
472,-4.452615472665762,-4.571749266968012,72.0545256293471,0.0
473,-4.500363641389246,-4.549215356409498,71.74500069514143,0.0
474,-4.263299303696542,-4.160783247630533,71.45906743113477,0.0
475,-3.508278645748836,-3.2404284220581454,71.19726072967975,0.0
476,-2.056928337550846,-1.698235740478323,70.9601353084736,0.0
477,0.1173646570307807,0.4346561044811925,70.7482707176415,0.0
478,2.8357901864093353,2.9927128068319444,70.56227653040816,0.0
479,5.745387888176477,5.703114426187606,70.40279776288918,0.0
480,8.430812185796148,8.246944347207352,70.27052057393425,0.0
481,10.549311127811626,10.33480407310969,70.1661783021489,0.0
482,11.91834272889396,11.77205530986369,70.0905579043855,0.0
483,12.525254524217173,12.49384191169928,70.04450686832506,0.0
484,12.482755727029758,12.56203068318908,70.02894068150883,1.0
485,11.97273634869858,12.129440351671581,70.03109767592846,0.0
486,11.19793586294705,11.386100405798292,70.03754570186105,0.0
487,10.336649547983017,10.505467305797406,70.04825148725014,0.0
488,9.50123196343386,9.60588203388695,70.06318327910404,0.0
489,8.718544450795775,8.735923711469248,70.082310803834,0.0
490,7.946641792480987,7.884075323046092,70.1056052292033,0.0
491,7.11714026080255,7.00573973675594,70.13303912781551,0.0
492,6.176837329927114,6.056235113000593,70.16458644207356,0.0
493,5.111918959382486,5.018039636669347,70.20022245054527,0.0
494,3.9555434424256783,3.913904533075127,70.23992373567302,0.0
495,2.78320472105121,2.8030209209180477,70.28366815276924,0.0
496,1.6945191148934793,1.763272969909497,70.3314348002414,0.0
497,0.7818678633629945,0.8669636880103724,70.3832039909931,0.0
498,0.09754406013111216,0.15900935395554772,70.43895722495058,0.0
499,-0.3635901090262945,-0.3549725154833845,70.49867716266563,0.0
500,-0.6576931917948574,-0.7073755903131844,70.56234759994854,0.0
501,-0.8670293546237007,-0.955846409655027,70.62995344348698,0.0
502,-1.069408091260879,-1.164714750837553,70.70148068740798,0.0
503,-1.3151484556545943,-1.3876069083868532,70.77691639074257,0.0
504,-1.619883023674523,-1.6567062065272147,70.8562486557543,0.0
505,-1.9731323157210272,-1.9807414740019977,70.93946660709425,0.0
506,-2.3541767121158217,-2.350242819818439,71.02656037174677,0.0
507,-2.7444467158140338,-2.7463945406392423,71.11752105973194,0.0
508,-3.13165340230977,-3.1495430043577874,71.21234074553158,0.0
509,-3.5088715767052587,-3.544697463072467,71.31101245020741,0.0
510,-3.873557905806149,-3.923251014581699,71.41353012418082,0.0
511,-4.226690651079322,-4.28174159794913,71.5198886306451,0.0
512,-4.569044563849052,-4.619260895275051,71.63008372958184,0.0
513,-4.895607388308106,-4.935027960284732,71.74411206235447,0.0
514,-5.194382902902106,-5.226929420686738,71.86197113685257,0.0
515,-5.452910041604624,-5.4909720578376575,71.98365931316158,0.0
516,-5.666324060111624,-5.721138541189651,72.10917578973351,0.0
517,-5.837526427905626,-5.9093735337704025,72.23852059003494,0.0
518,-5.969167956348444,-6.046124066571969,72.37169454964892,0.0
519,-6.057360152625109,-6.122350942354842,72.50869930380902,0.0
520,-6.094887060412819,-6.133601616347201,72.64953727534326,0.0
521,-6.080170749492229,-6.085510131078725,72.79421166300698,0.0
522,-6.022598277756787,-5.9985052914865005,72.94272643018431,0.0
523,-5.941500590966273,-5.908408606363789,73.0950862939376,0.0
524,-5.863885049367871,-5.859766724592802,73.25129671438566,0.0
525,-5.82301192725716,-5.890661556125303,73.41136388439132,0.0
526,-5.85029233181325,-6.011298905675519,73.57529471953947,0.0
527,-5.951938174665791,-6.182935625378718,73.7430968483872,0.0
528,-6.075538308834242,-6.3067303231544765,73.91477860296766,0.0
529,-6.087995884727865,-6.231615016519475,74.09034900952997,0.0
530,-5.788450074056716,-5.785028253097439,74.26981777949713,0.0
531,-4.964559197211885,-4.821393331613346,74.45319530062486,0.0
532,-3.4774656073550356,-3.274133303360671,74.64049262834375,0.0
533,-1.3405931532680695,-1.192401333146214,74.83172147726769,0.0
534,1.2505152744899126,1.2532434183309187,75.02689421285164,0.0
535,3.963098312443556,3.801609250836573,75.22602384318145,0.0
536,6.430469767220957,6.159956086338058,75.42912401087932,0.0
537,8.360589826786276,8.072576342026332,75.63620898510753,0.0
538,9.60021041235094,9.37691557566553,75.84729365365396,0.0
539,10.143057329790729,10.030609258372845,76.06239351508215,0.0
540,10.101287427016866,10.103741837697543,76.28152467092924,1.0
541,9.658301652282816,9.74240103725604,76.55342269278027,0.0
542,9.009978327754865,9.117943004045372,76.92433200534785,0.0
543,8.306825381513338,8.378980136208988,77.39095612263634,0.0
544,7.620340727845405,7.619879707108843,77.95048139928281,0.0
545,6.948263596794201,6.872343824489795,78.60048257696249,0.0
546,6.247543600512149,6.118390224274027,79.33883546003462,0.0
547,5.468965233957082,5.316707408888542,80.16363405216136,0.0
548,4.57896485634805,4.431667270331809,81.0731098503548,0.0
549,3.572863288458435,3.4553265481758277,82.06555127454679,0.0
550,2.4851643213361423,2.4164098877050577,83.13922143701835,0.0
551,1.3905694916430134,1.3750489603961533,84.29227265080729,0.0
552,0.3859765215640687,0.406584176721579,85.52265626162692,0.0
553,-0.4427436905744586,-0.419176254344672,86.8280265855737,0.0
554,-1.0511403719721408,-1.0561166362345604,88.20563796736423,0.0
555,-1.4471438572232964,-1.4921144735705991,89.65223426481504,0.0
556,-1.6796853208128482,-1.7497535808711575,91.16393044025656,0.0
557,-1.8150309757795995,-1.879266640226573,92.73608642553606,0.0
558,-1.9154773734909938,-1.947401548306678,94.36317405172257,0.0
559,-2.030399946024494,-2.02549355788323,96.0386386237389,0.0
560,-2.199037690977751,-2.178107598540775,97.75475769559868,0.0
561,-2.4549139612578976,-2.451847387221442,99.5025007763246,0.0
562,-2.821358771100158,-2.863743850650568,101.27139506718724,0.0
563,-3.296739512929039,-3.3903147153347177,103.04940387142288,0.0
564,-3.8378224812403747,-3.960867465734778,104.82282596900801,0.0
565,-4.351707618097851,-4.460117533198364,106.57622590948297,0.0
566,-4.701813159534094,-4.744211806273643,108.29240669151137,0.0
567,-4.729117504753205,-4.670391539705864,109.95243745789864,0.0
568,-4.289432226840076,-4.134852089530648,111.53574937254758,0.0
569,-3.303936197418466,-3.1081399626196906,113.02031245164424,0.0
570,-1.8076908059261507,-1.6553942198557543,114.38290447042428,0.0
571,0.031573170518859495,0.06820706280205813,115.59947986516254,0.0
572,1.9458474987345022,1.848508475440004,116.64564159837057,0.0
573,3.644010195060021,3.4616831222874493,117.4972122261564,0.0
574,4.900364139076889,4.72592541525635,118.13089212277933,0.0
575,5.615474024838735,5.538293829818649,118.52498351169079,0.0
576,5.824667127986284,5.885329847768856,118.66014948811218,1.0
577,5.654402747865835,5.82664996951902,118.63404908452334,0.0
578,5.251884479393585,5.461099889178909,118.55726734211609,0.0
579,4.725257805524706,4.890568526736621,118.43217223340649,0.0
580,4.121288035018478,4.195067023298587,118.26123465616145,0.0
581,3.441382288120145,3.4255819305192974,118.047009460438,0.0
582,2.6758701036530885,2.6124207896397067,117.79211704205477,0.0
583,1.8344228773887397,1.7804819506505263,117.49922569069567,0.0
584,0.9603347487822695,0.961527142047309,117.17103485239518,0.0
585,0.12513009229634608,0.19692389283162748,116.81025943735605,0.0
586,-0.5939405631800527,-0.46982506281460545,116.41961527567858,0.0
587,-1.1433815428879035,-1.0061581336232177,116.00180579629328,0.0
588,-1.5141547347807718,-1.402130378351357,115.55950997873164,0.0
589,-1.7423812973672932,-1.6748735853516514,115.09537160376476,0.0
590,-1.8916940189747238,-1.8637640470159051,114.61198980769201,0.0
591,-2.028310325595442,-2.0184265051456665,114.11191092636754,0.0
592,-2.2000979589168255,-2.1844056616498455,113.59762159900522,0.0
593,-2.426425717262298,-2.391607789195899,113.07154308841714,0.0
594,-2.700792635602745,-2.648827313943491,112.53602676354636,0.0
595,-3.0028432011093167,-2.9450641372776274,111.99335068183608,0.0
596,-3.311394937622314,-3.2562079387595957,111.44571720296445,0.0
597,-3.61057547246813,-3.554680434373793,110.89525156157076,0.0
598,-3.8887698550828977,-3.819591512170885,110.34400132458578,0.0
599,-4.13753390950496,-4.045193499731414,109.7939366584309,0.0
600,-4.356248830539342,-4.245414185138081,109.24695133243819,0.0
601,-4.559263259844899,-4.452186118297352,108.70486438714644,0.0
602,-4.776387287286017,-4.7058885564458,108.16942239943664,0.0
603,-5.04180329781105,-5.0381261599442375,107.64230228058938,0.0
604,-5.374941857950715,-5.450213130466374,107.12511454810647,0.0
605,-5.759966723844731,-5.894097591250776,106.61940701738037,0.0
606,-6.12794479446743,-6.264383145062451,106.1266688648897,0.0
607,-6.346590690830416,-6.40892879342487,105.64833502043736,0.0
608,-6.23001490182312,-6.160454188497711,105.18579085193923,0.0
609,-5.583110764890349,-5.383564508186158,104.74037711234844,0.0
610,-4.278407371901003,-4.0235460190325725,104.31339512441794,0.0
611,-2.3336158716695197,-2.139203594992323,103.90611218512892,0.0
612,0.057018952236504994,0.09497124429436798,103.51976717773665,0.0
613,2.564658111526298,2.421897299182824,103.15557638551111,0.0
614,4.826282212977866,4.561477401410718,102.81473950739993,0.0
615,6.556767822534098,6.277242576822006,102.49844588205161,0.0
616,7.622627265728181,7.42784770883584,102.20788093295778,0.0
617,8.050515184565874,7.9874667660394385,101.94423285397392,0.0
618,7.978364272414586,8.031388863246214,101.70869956123902,1.0
619,7.5836309605911225,7.695736312737467,101.49287437427708,0.0
620,7.024541204348696,7.128070952486625,101.28714806141916,0.0
621,6.408279571493014,6.446365415688996,101.09093689347118,0.0
622,5.780231327451343,5.718266708603226,100.90367035971832,0.0
623,5.129212273842714,4.963729338175957,100.72479014043506,0.0
624,4.411709298218618,4.175397897979849,100.55374915767068,0.0
625,3.5924599540061877,3.3454262591725876,100.39001069985184,0.0
626,2.6824828840531523,2.486421212729403,100.23304761620093,0.0
627,1.7503189931630856,1.6380152394973995,100.08234157737745,0.0
628,0.8979998420872097,0.8575375207262965,99.93738239911973,0.0
629,0.21648106843340487,0.20033222656364247,99.79766742599489,0.0
630,-0.2532368992131868,-0.30064507740755575,99.66270097266208,0.0
631,-0.5332179488401594,-0.6468771615542324,99.53199382031922,0.0
632,-0.6928082438674137,-0.8734273218750015,99.40506276623883,0.0
633,-0.8165472809293486,-1.0365946772630978,99.28143022450925,0.0
634,-0.9737177185146237,-1.1960206839552063,99.16062387627866,0.0
635,-1.201964322326985,-1.3984496539796616,99.0421763679623,0.0
636,-1.506881850457165,-1.6683801452357474,98.92562505600921,0.0
637,-1.8714106070619656,-2.0071378775041806,98.81051179694369,0.0
638,-2.267774550849966,-2.3984106372886256,98.69638278149259,0.0
639,-2.6683546699548955,-2.8164511733906994,98.58278841168989,0.0
640,-3.0539028338782686,-3.233401489074677,98.46928321990995,0.0
641,-3.416048292614777,-3.6239753935351433,98.35542582882461,0.0
642,-3.7520806422426025,-3.9679123336923636,98.24077895130787,0.0
643,-4.056506724193981,-4.251959197977829,98.12490942932322,0.0
644,-4.318607621179117,-4.4728886056078405,98.00738831082629,0.0
645,-4.530436633488041,-4.641339374204518,97.88779096369835,0.0
646,-4.698670673976972,-4.784075619899411,97.76569722569711,0.0
647,-4.848632384167923,-4.941012686511857,97.64069158936614,0.0
648,-5.015922440511677,-5.154114270191474,97.51236342079169,0.0
649,-5.231356160930412,-5.448202908689062,97.38030721102774,0.0
650,-5.505293506014724,-5.808028019717941,97.24412285893466,0.0
651,-5.809409592809254,-6.159988832207601,97.10341598409016,0.0
652,-6.053643287317643,-6.368657759616427,96.95779826833747,0.0
653,-6.071232970937816,-6.25583564378858,96.80688782443313,0.0
654,-5.638493359655591,-5.642725813171359,96.65030959014871,0.0
655,-4.545132472889467,-4.405770373213514,96.48769574606712,0.0
656,-2.695231178428231,-2.528040144589862,96.31868615519711,0.0
657,-0.18595838656747166,-0.12578938229204506,96.14292882240828,0.0
658,2.688528858170346,2.563447417552167,95.9600803715693,0.0
659,5.521256728915974,5.230915822645068,95.76980653814961,0.0
660,7.925191092362969,7.569557084595081,95.57178267492556,0.0
661,9.647287077039588,9.345503369216795,95.36569426831726,0.0
662,10.614117161464971,10.445046480471152,95.15123746276993,0.0
663,10.905432656785765,10.884228437649856,94.92811959048974,1.0
664,10.68980115954524,10.782305399525534,94.67383467959164,0.0
665,10.161394147265344,10.312111561447406,94.3677005398292,0.0
666,9.4940827727659,9.64579990157261,94.01226129569908,0.0
667,8.808784847889662,8.912917412036128,93.61016492508625,0.0
668,8.153567106827381,8.181172268035425,93.16413951186422,0.0
669,7.507614412547134,7.461482499544583,92.67697029624196,0.0
670,6.814352260944178,6.73085195433372,92.15147778379638,0.0
671,6.028106801694934,5.96166738398921,91.59049713027498,0.0
672,5.147448338281906,5.14552282763222,90.99685897494166,0.0
673,4.219765251785991,4.3034929833728075,90.37337185180576,0.0
674,3.321560945927178,3.481101585557001,89.72280626665497,0.0
675,2.5290035555208075,2.7323613329025935,89.04788048930892,0.0
676,1.8918846705351924,2.1008255100053934,88.35124807560348,0.0
677,1.419485704779612,1.605550514590024,87.63548710276649,0.0
678,1.0823790885618463,1.2367816246536056,86.9030910753105,0.0
679,0.8279681820600242,0.9617246588876416,86.15646143642913,0.0
680,0.6012440038770785,0.736908659057466,85.39790160206768,0.0
681,0.3613765584888622,0.5217812541535656,84.6296124211541,0.0
682,0.08944329452863453,0.28868311108009426,83.85368895563208,0.0
683,-0.21269080902950233,0.026591342882578584,83.07211846758341,0.0
684,-0.5302168442914308,-0.26119441323536163,82.28677949746195,0.0
685,-0.846326730210103,-0.5631099066231382,81.49944191687212,0.0
686,-1.1507972583096029,-0.8660242869152874,80.71176784098952,0.0
687,-1.441641241787891,-1.1600578709679432,79.9253132892338,0.0
688,-1.7207682672910094,-1.4404063579110522,79.1415304877808,0.0
689,-1.9897867455616796,-1.7065131243249057,78.36177071358516,0.0
690,-2.250055454440574,-1.9598454623197483,77.58728758646386,0.0
691,-2.5039300579968327,-2.201723159738816,76.81924072318121,0.0
692,-2.7523355781194176,-2.4322618966120797,76.05869967514049,0.0
693,-2.990592196387847,-2.650774711325034,75.30664807902345,0.0
694,-3.2096718572642917,-2.85717084463477,74.56398795736288,0.0
695,-3.40490729830794,-3.0533089738260375,73.83154411345193,0.0
696,-3.583839373242793,-3.243236893028588,73.11006857208949,0.0
697,-3.763117271988275,-3.431897130834523,72.40024502435666,0.0
698,-3.955512844799818,-3.622855151357596,71.70269324086706,0.0
699,-4.159506014845048,-3.816254751647364,71.01797342370163,0.0
700,-4.3615000615756205,-4.008062381961215,70.34659047251233,0.0
701,-4.546921998704343,-4.1908725553703,69.68899814506038,0.0
702,-4.707695253281686,-4.355725194687874,69.04560309674889,0.0
703,-4.840066784044091,-4.494064458383665,68.41676878753977,0.0
704,-4.939237594096669,-4.5991910553842645,67.80281924803188,0.0
705,-4.999559367511713,-4.666991807793259,67.20404269945057,0.0
706,-5.019454157357945,-4.696060770306309,66.6206950248894,0.0
707,-5.003106915995266,-4.687483486399075,66.05300309138687,0.0
708,-4.956186171274005,-4.644585964863776,65.501167924344,0.0
709,-4.881791054629888,-4.572847679040718,64.96536773743088,0.0
710,-4.782587859117839,-4.479929736105323,64.44576082251893,0.0
711,-4.66625806137846,-4.375493768720583,63.94248830534533,0.0
712,-4.546201339426787,-4.270401672846201,63.455676773593666,0.0
713,-4.435271222386472,-4.175095829909784,62.98544078489098,0.0
714,-4.339311266330797,-4.097342211917254,62.531885262897724,0.0
715,-4.257440554698903,-4.039872191147321,62.09510779023385,0.0
716,-4.1873490162165465,-3.9987070527842685,61.67520080745783,0.0
717,-4.127867559998278,-3.9631201689710283,61.27225372772125,0.0
718,-4.075670250934239,-3.918189794564703,60.886354977077474,0.0
719,-4.021711634613442,-3.8504074455127517,60.517593970746766,0.0
720,-3.954363948521813,-3.7555647453438255,60.1660630359505,0.0
721,-3.8687857925168547,-3.6463397459523046,59.83185929223917,0.0
722,-3.775445025211275,-3.5554528988839946,59.515086500569055,0.0
723,-3.7020909547576517,-3.5300871133702163,59.215856892746096,0.0
724,-3.6881507931847413,-3.6153166610437206,58.93429299326867,0.0
725,-3.770865645004435,-3.828578651706842,58.67052944607698,0.0
726,-3.9604548745445523,-4.132585930746007,58.424714859277195,0.0
727,-4.205996374069343,-4.418244215379888,58.19701368156272,0.0
728,-4.366522667565859,-4.509385276336519,57.98760812483098,0.0
729,-4.212545449902979,-4.1956646597790295,57.79670014840352,0.0
730,-3.478538362778491,-3.2894514034158004,57.6245135213293,0.0
731,-1.96293120581145,-1.6907368504617968,57.47129598050933,0.0
732,0.36168666454996234,0.5632287554693134,57.33732150385274,0.0
733,3.2886021239638428,3.2848530196137187,57.222892719398686,0.0
734,6.4157409373801215,6.168877496392607,57.128343473349595,0.0
735,9.277135695249415,8.862549497030987,57.05404158230896,0.0
736,11.4981980456389,11.050246298440678,57.0003917977527,0.0
737,12.891740212794787,12.524453452679294,56.96783901395336,0.0
738,13.4616475747803,13.221596072903443,56.95687175429384,1.0
739,13.345435334568089,13.215493940191873,56.98321165030408,0.0
740,12.746968569994687,12.676144390051084,57.06088899986651,0.0
741,11.882491657306566,11.811229058100391,57.18808138018638,0.0
742,10.934909999494485,10.80987475990278,57.36319438116039,0.0
743,10.016409512942516,9.803847652774229,57.58483134085591,0.0
744,9.15617989464521,8.85335568254529,57.85176626368523,0.0
745,8.323205084414823,7.956120642996581,58.16291926642646,0.0
746,7.467506606814991,7.071992848649362,58.5173339941375,0.0
747,6.551055228926025,6.1526561988361514,58.914156524775144,0.0
748,5.557433116727044,5.166925182871148,59.35261534233062,0.0
749,4.492377949208842,4.115459764123116,59.832002006986336,0.0
750,3.3876093671327943,3.0327150032466266,60.35165218998023,0.0
751,2.3034991782731913,1.9774560439784583,60.91092677286296,0.0
752,1.3180808983142955,1.0158158824365602,61.50919273763663,0.0
753,0.5011835020864313,0.20250244636551518,62.14580359765253,0.0
754,-0.11238775464483375,-0.4339748039431024,62.820079140765266,0.0
755,-0.5348883624428193,-0.8976388023983635,63.53128427769169,0.0
756,-0.8174856048081494,-1.2214715178325601,64.27860681140551,0.0
757,-1.028018921782217,-1.4559065581896293,65.06113396937192,0.0
758,-1.2264924701248514,-1.6538920986787713,65.87782757123144,0.0
759,-1.4492719423325537,-1.85764112915062,66.7274977420279,0.0
760,-1.7068824834602543,-2.0908218449022504,67.60877512719888,0.0
761,-1.9919685107183067,-2.3574618777260716,68.52008162234615,0.0
762,-2.2894048843701618,-2.646469775613155,69.45959970035834,0.0
763,-2.5833393474013295,-2.9393161795818163,70.4252405027936,0.0
764,-2.8617214106416804,-3.218267251695533,71.41461096339332,0.0
765,-3.120564166947316,-3.4732247506274945,72.42498035067291,0.0
766,-3.366846103776715,-3.7060837487717704,73.45324675459712,0.0
767,-3.6167269817824037,-3.932091530248443,74.49590419935399,0.0
768,-3.8892425069688406,-4.177815878533265,75.54901123885608,0.0
769,-4.200690299043823,-4.475204239413896,76.60816208074971,0.0
770,-4.563540813943701,-4.851345481809978,77.66846148312797,0.0
771,-4.98561166842709,-5.314517802511471,78.72450486785209,0.0
772,-5.4608537545595786,-5.839114233010039,79.77036528429802,0.0
773,-5.95037921895056,-6.354441716550236,80.79958902294652,0.0
774,-6.364696509003818,-6.743748916055095,81.80520180149924,0.0
775,-6.562466238122218,-6.858619811170155,82.77972750588575,0.0
776,-6.373828667865114,-6.549497260894325,83.71522144089732,0.0
777,-5.645654279725614,-5.70664232378958,84.60331990541776,0.0
778,-4.298320956008998,-4.299847420261742,85.43530763144076,0.0
779,-2.3757859313818015,-2.4027246067772188,86.20220419414453,0.0
780,-0.06360890315377876,-0.19039545627682042,86.89486989928025,0.0
781,2.3443936914425154,2.092345970243211,87.50413088208059,0.0
782,4.524869117666218,4.1847040082598275,88.0209222217033,0.0
783,6.2158218157218545,5.8691159053754065,88.43644681788764,0.0
784,7.281861603864702,7.0171456663675675,88.74234664306108,0.0
785,7.733286387370228,7.607820126567453,88.93088184456961,0.0
786,7.697726000391863,7.714317551712998,88.99511211608413,1.0
787,7.3572553166216865,7.466250658602925,88.99282707755034,0.0
788,6.87682654969077,7.00271028921655,88.98609871455629,0.0
789,6.3549554329505415,6.432810753534617,88.97511806867242,0.0
790,5.814767396003152,5.815623491570729,88.96007725040229,0.0
791,5.228758686215816,5.162710156302483,88.94116926051423,0.0
792,4.554812329641286,4.4578402186054955,88.91858781909323,0.0
793,3.765789388885091,3.683171587544513,88.89252720252436,0.0
794,2.868017193285542,2.8405960185323713,88.86318208858873,0.0
795,1.908249310250607,1.9605221781727171,88.8307474098242,0.0
796,0.9653715894922871,1.0962031732316393,88.79541821527644,0.0
797,0.12545839778000767,0.3074934531922744,88.75738954073931,0.0
798,-0.5500728921501021,-0.3584005724258601,88.71685628755937,0.0
799,-1.0463535720338661,-0.8812195959029689,88.67401311005639,0.0
800,-1.3961506725528372,-1.2718443264139911,88.6290543115902,0.0
801,-1.6615484512347356,-1.5658250449905893,88.58217374928438,0.0
802,-1.9066187270756565,-1.8099810666265026,88.53356474739927,0.0
803,-2.174648805009138,-2.047965268236055,88.48342001932966,0.0
804,-2.480375552058331,-2.3100522568389326,88.43193159818817,0.0
805,-2.8183089630224547,-2.6096928187623165,88.37929077592156,0.0
806,-3.1775286769674773,-2.9461739810691667,88.32568805089547,0.0
807,-3.5504512830186257,-3.3105534433906305,88.27131308387308,0.0
808,-3.9316409282015554,-3.691573544429507,88.21635466230475,0.0
809,-4.313825362082696,-4.07920180265758,88.16100067283823,0.0
810,-4.688941738056285,-4.465001883680002,88.10543808195413,0.0
811,-5.051975641899939,-4.8400277926080335,88.049852924627,0.0
812,-5.399322402600867,-5.191993309748913,87.99443030090997,0.0
813,-5.721011503419948,-5.503889525215002,87.93935438033984,0.0
814,-5.996778718002068,-5.755811703210776,87.88480841406006,0.0
815,-6.203624738293669,-5.930478743175945,87.8309747545603,0.0
816,-6.32910225176044,-6.021125717338185,87.77803488293479,0.0
817,-6.378173944042299,-6.038779555688467,87.72616944356572,0.0
818,-6.370420982101075,-6.015054905543412,87.67555828614367,0.0
819,-6.335281264718244,-5.996988071567202,87.62638051494382,0.0
820,-6.310344726866697,-6.03231351325034,87.57881454528498,0.0
821,-6.335093863182526,-6.146964588702325,87.5330381671073,0.0
822,-6.428750451342326,-6.320807162072967,87.4892286156156,0.0
823,-6.555321528084605,-6.471093474420719,87.44756264894606,0.0
824,-6.597098290880949,-6.453646517715554,87.40821663282745,0.0
825,-6.360411006886698,-6.087743647541563,87.37136663222165,0.0
826,-5.622519834769049,-5.202435250824448,87.33718850994322,0.0
827,-4.208914184140954,-3.6924500944791325,87.30585803227403,0.0
828,-2.075136000805941,-1.5652342833469715,87.27755098160647,0.0
829,0.6425798258842779,1.0392088284971432,87.25244327616701,0.0
830,3.6401677247058855,3.8661217403812422,87.23071109689225,0.0
831,6.526462386208957,6.598839343026194,87.2125310215497,0.0
832,8.936309696809403,8.931205760647428,87.19808016621904,0.0
833,10.624018560839092,10.636878954817371,87.18753633427278,0.0
834,11.506725478662215,11.614228643792782,87.18107817302,0.0
835,11.658663618305608,11.89461295629743,87.17888533820486,1.0
836,11.267888254378787,11.614622674884096,87.17888533820486,0.0
837,10.566496755345872,10.964419521136175,87.17888533820486,0.0
838,9.755122479217459,10.130594288008378,87.17888533820486,0.0
839,8.952720214222067,9.25137076472512,87.17888533820486,0.0
840,8.190936734640019,8.39550252802431,87.17888533820486,0.0
841,7.4427315746965235,7.566936043219241,87.17888533820486,0.0
842,6.657627619930113,6.728919554168047,87.17888533820486,0.0
843,5.787422010188336,5.83635231184653,87.17888533820486,0.0
844,4.80571447193309,4.8645570420493724,87.17888533820486,0.0
845,3.726063762200286,3.825566582395432,87.17888533820486,0.0
846,2.6104245302688587,2.7680491787362724,87.17888533820486,0.0
847,1.5551178981212939,1.7626584870282869,87.17888533820486,0.0
848,0.6558246507163132,0.8793327753771834,87.17888533820486,0.0
849,-0.02990714980695941,0.16539064438901807,87.17888533820486,0.0
850,-0.5022624042741302,-0.3677055291444238,87.17888533820486,0.0
851,-0.8127779395038877,-0.7449524714003539,87.17888533820486,0.0
852,-1.038500630051989,-1.0169562394636023,87.17888533820486,0.0
853,-1.2514842924526273,-1.2429535484267524,87.17888533820486,0.0
854,-1.4982001368224136,-1.474505179150731,87.17888533820486,0.0
855,-1.7957632413192668,-1.745194960089889,87.17888533820486,0.0
856,-2.1408033476064965,-2.0683470003480298,87.17888533820486,0.0
857,-2.520742174336671,-2.441328010424623,87.17888533820486,0.0
858,-2.921086931266715,-2.852862907902216,87.17888533820486,0.0
859,-3.329742217826957,-3.289531247974555,87.17888533820486,0.0
860,-3.7405544207769674,-3.7389487153340273,87.17888533820486,0.0
861,-4.153608759419933,-4.18929395174592,87.17888533820486,0.0
862,-4.568957086711148,-4.6268895324263495,87.17888533820486,0.0
863,-4.977418221529405,-5.034646565229069,87.17888533820486,0.0
864,-5.357781875454057,-5.393817364789339,87.17888533820486,0.0
865,-5.685195977722761,-5.689730672432781,87.17888533820486,0.0
866,-5.944699660860867,-5.919719881476345,87.17888533820486,0.0
867,-6.139212379342209,-6.099381895331722,87.17888533820486,0.0
868,-6.288126176553433,-6.26261018410709,87.17888533820486,0.0
869,-6.421630032680856,-6.452079033042892,87.17888533820486,0.0
870,-6.5746388659778585,-6.700021557277261,87.17888533820486,0.0
871,-6.774221836147309,-7.003624712953553,87.17888533820486,0.0
872,-7.012179217138437,-7.303746651358374,87.17888533820486,0.0
873,-7.209870502199809,-7.477789253399548,87.17888533820486,0.0
874,-7.201463153587432,-7.355317538761285,87.17888533820486,0.0
875,-6.761641836368805,-6.757784836566728,87.17888533820486,0.0
876,-5.680318506378018,-5.553531501165148,87.17888533820486,0.0
877,-3.8573297682191465,-3.710482376375054,87.17888533820486,0.0
878,-1.3729443911916512,-1.326428377230882,87.17888533820486,0.0
879,1.5062058873739286,1.3772053566726847,87.17888533820486,0.0
880,4.397896777751862,4.099414537448686,87.17888533820486,0.0
881,6.921116390756671,6.528634148087617,87.17888533820486,0.0
882,8.801786190158095,8.414594662463276,87.17888533820486,0.0
883,9.924283460314932,9.620414869578205,87.17888533820486,0.0
884,10.325699633629865,10.140295912555356,87.17888533820486,1.0
885,10.156024759470787,10.080658013484856,87.17795979456439,0.0
886,9.623028623225956,9.614410911902102,87.17520074040777,0.0
887,8.929985273437506,8.925270841876582,87.1706347094245,0.0
888,8.219975398338436,8.15991466407154,87.16428845120461,0.0
889,7.548761159546569,7.400870471163751,87.15618892029104,0.0
890,6.897297963920801,6.664696305645584,87.14636326533494,0.0
891,6.210070398158461,5.92138008070339,87.13483881835982,0.0
892,5.4330977578199535,5.124909217110972,87.12164308414157,0.0
893,4.537477135220289,4.243153414131009,87.1068037297102,0.0
894,3.531381164592172,3.27738655068624,87.09034857397931,0.0
895,2.4647654075654937,2.266522095071174,87.07230557750916,0.0
896,1.4220943268513848,1.2766543044883014,87.05270283240809,0.0
897,0.49808680587448695,0.3811676691734993,87.03156855237847,0.0
898,-0.23566590276117738,-0.3607611211725208,87.0089310629111,0.0
899,-0.7551319492906314,-0.9197112181700731,86.98481879163336,0.0
900,-1.086406701688374,-1.300986423598564,86.95926025881526,0.0
901,-1.2878270471669175,-1.5387452154887564,86.93228406803772,0.0
902,-1.4237098014681058,-1.6829835413212175,86.90391889702676,0.0
903,-1.5434939478357226,-1.7849894086070675,86.87419348865753,0.0
904,-1.6744811122605925,-1.8862551159631398,86.8431366421315,0.0
905,-1.8272845010565635,-2.0133600402740397,86.81077720433011,0.0
906,-2.005586560500194,-2.1784754222671996,86.77714406134761,0.0
907,-2.211464892334516,-2.383212188597153,86.74226613020625,0.0
908,-2.44459349333564,-2.6230888971523547,86.70617235075582,0.0
909,-2.7005218891461795,-2.8906728557800982,86.66889167776051,0.0
910,-2.9725562315281846,-3.1767696959624603,86.63045307317428,0.0
911,-3.255203772527542,-3.470288522205104,86.59088549860756,0.0
912,-3.5440193918076797,-3.7582037804559065,86.55021790798627,0.0
913,-3.8316633282718007,-4.027130558928297,86.50847924040474,0.0
914,-4.106341683772605,-4.267287948435904,86.4656984131741,0.0
915,-4.357489199325111,-4.4781520232674215,86.42190431506674,0.0
916,-4.585121159291308,-4.673407793263757,86.37712579975816,0.0
917,-4.804242610003876,-4.881723747904815,86.3313916794665,0.0
918,-5.040602259195155,-5.140176909705593,86.28473071879054,0.0
919,-5.321471205639218,-5.47921189280603,86.23717162874635,0.0
920,-5.664461591815274,-5.901544769824122,86.18874306100295,0.0
921,-6.060826621191846,-6.3614206156340085,86.13947360231668,0.0
922,-6.450552316385314,-6.753428127039251,86.08939176916445,0.0
923,-6.700504845004945,-6.919722689178606,86.03852600257545,0.0
924,-6.609812391336859,-6.679773560567696,85.98690466316077,0.0
925,-5.95983711864537,-5.878311720973258,85.93455602634064,0.0
926,-4.599141939081152,-4.438109206579191,85.88150827776812,0.0
927,-2.5261862277542777,-2.399041102117753,85.82778950894914,0.0
928,0.07526442193347815,0.07295274117643924,85.77342771305688,0.0
929,2.873751500939427,2.713705616794809,85.7184507809407,0.0
930,5.488351029480019,5.218711138130853,85.66288649732721,0.0
931,7.601002850493428,7.313034475419778,85.60676253721307,0.0
932,9.031939045970923,8.811106415581035,85.5501064624478,0.0
933,9.755305341315742,9.64873681819949,85.49294571850498,0.0
934,9.868212861966462,9.880208729463057,85.43530763144076,1.0
935,9.541592041916527,9.64514050836258,85.36858963107731,0.0
936,8.969683405640096,9.118545416217156,85.28467392602785,0.0
937,8.320997093980653,8.460819317239373,85.18432641847483,0.0
938,7.6978176340578015,7.782122405356393,85.06832602966672,0.0
939,7.121173124513465,7.1292573354258915,84.93746189411608,0.0
940,6.550567382582823,6.4950576184695565,84.79253066810296,0.0
941,5.925516154178354,5.843175178202699,84.63433396409837,0.0
942,5.203793696050276,5.137242547237394,84.46367592082682,0.0
943,4.38113575448261,4.3636692451415815,84.28136091683827,0.0
944,3.493154549319733,3.541182131688161,84.08819143368609,0.0
945,2.6052043417127844,2.71581211403517,83.88496607311862,0.0
946,1.792983218549343,1.9452365127926075,83.6724777311111,0.0
947,1.1175328717358375,1.2795512672259926,83.45151193009625,0.0
948,0.604185881348603,0.7458818204142617,83.22284530940875,0.0
949,0.23609120236713244,0.3419332284926242,82.98724427274476,0.0
950,-0.03504663050755097,0.0396977703695347,82.74546379035637,0.0
951,-0.2678666730620818,-0.20332519688788597,82.49824635275236,0.0
952,-0.5104068738092811,-0.43039234759826606,82.24632107185933,0.0
953,-0.787772120782307,-0.6743354626400757,81.9904029249091,0.0
954,-1.1018686487667284,-0.9520950574612765,81.73119213575288,0.0
955,-1.4406156448036724,-1.2653286626042524,81.46937368785487,0.0
956,-1.7894082940747986,-1.605108486572182,81.2056169628817,0.0
957,-2.1377303367473295,-1.957742278193765,80.94057549856909,0.0
958,-2.4790757714647653,-2.3092568953171524,80.6748868594093,0.0
959,-2.8081292915526452,-2.6475031868809933,80.4091726136504,0.0
960,-3.1198556787533667,-2.9623344607666664,80.14403841012434,0.0
961,-3.410287943057046,-3.245219163590158,79.8800741485181,0.0
962,-3.6753693974913992,-3.4896901360536186,79.61785423686013,0.0
963,-3.907999155965313,-3.6932691239415836,79.35793793020825,0.0
964,-4.099174148580044,-3.8602665666141562,79.10086974478516,0.0
965,-4.246969568429428,-4.003723171444616,78.84717994210946,0.0
966,-4.367201784894844,-4.144442008644731,78.59738507800553,0.0
967,-4.494019696752881,-4.306026981406962,78.3519886117403,0.0
968,-4.665751450479528,-4.506875072118904,78.11148157092407,0.0
969,-4.904219133497275,-4.752169139442202,77.87634326822037,0.0
970,-5.2020642093645915,-5.029818232775398,77.64704206633506,0.0
971,-5.5267854975599455,-5.313250529333523,77.42403618819232,0.0
972,-5.836734408694742,-5.571241505982792,77.20777456965371,0.0
973,-6.096755412188948,-5.781653877708452,76.99869775259397,0.0
974,-6.28729651103452,-5.943422241510441,76.79723881661266,0.0
975,-6.410401892032192,-6.0804255318706115,76.60382434813344,0.0
976,-6.494430021928471,-6.232681401350636,76.41887544612268,0.0
977,-6.588460805613778,-6.434579214583349,76.24280876414736,0.0
978,-6.735082069135617,-6.6857153031365355,76.07603758898925,0.0
979,-6.926270853938373,-6.925225371848906,75.91897295654088,0.0
980,-7.066359618929001,-7.022568944650158,75.77202480622955,0.0
981,-6.968058772746838,-6.79439988860441,75.63560317575433,0.0
982,-6.392103233774225,-6.048478386582664,75.51011943847762,0.0
983,-5.123329613114334,-4.6443157641109245,75.3959875863952,0.0
984,-3.0622030627494876,-2.551091870209922,75.2936255622187,0.0
985,-0.29678084449737785,0.11904814157370236,75.20345664475035,0.0
986,2.885912552452994,3.1177442270616877,75.12591089241641,0.0
987,6.068265303829227,6.109027059121937,75.06142665056127,0.0
988,8.823830904554887,8.746153669748344,75.01045212889748,0.0
989,10.835493500290237,10.752372426854938,74.9734470563678,0.0
990,11.965204897197184,11.979972219145761,74.95088442161446,0.0
991,12.263565230492096,12.430323155504526,74.94325230828137,1.0
992,11.926306242028016,12.231876195442467,74.95019013031082,0.0
993,11.212458566690353,11.587326416161536,74.97079811857323,0.0
994,10.35380668512993,10.709967691253105,75.00477876231864,0.0
995,9.495143450577611,9.769961460503858,75.0518479582186,0.0
996,8.687125582569818,8.86464559465535,75.11173397426798,0.0
997,7.917023513499927,8.016787511058844,75.18417646648012,0.0
998,7.143687493203624,7.1953017008409965,75.2689255432655,0.0
999,6.318858768106123,6.347458207863065,75.36574087281187,0.0
1000,5.402187799151834,5.43065185577213,75.47439082917249,0.0
1001,4.3805867548012065,4.434262783649685,75.59465167311834,0.0
1002,3.28575415300109,3.3864711242934904,75.72630676412945,0.0
1003,2.1933781237616574,2.3458813151130093,75.86914580018916,0.0
1004,1.1981652734010413,1.3824425516468608,76.02296408230913,0.0
1005,0.3771367670105392,0.5552550473146702,76.18756180095492,0.0
1006,-0.23886185929893555,-0.10466236621886571,76.36274334176468,0.0
1007,-0.6719209640965644,-0.6010138691827289,76.54831660815806,0.0
1008,-0.9815871966544223,-0.9670932213120453,76.74409235862443,0.0
1009,-1.2375238488362552,-1.2522401773438698,76.94988355665645,0.0
1010,-1.4944769534353477,-1.5059761952401267,77.16550473146359,0.0
1011,-1.7799859055931688,-1.7658175422586146,77.39077134775752,0.0
1012,-2.096553346656711,-2.0522288645568896,77.6254991830534,0.0
1013,-2.4322354482211326,-2.370624114321028,77.86950371107508,0.0
1014,-2.7724318496149922,-2.7174285164564425,78.12259948999368,0.0
1015,-3.109170853377789,-3.0861495628702214,78.38459955436564,0.0
1016,-3.4458740293795818,-3.4704021442329127,78.65531480977171,0.0
1017,-3.7945619592444455,-3.863223529639,78.93455342929249,0.0
1018,-4.164781160639167,-4.254550819197725,79.22212025109069,0.0
1019,-4.551032271951753,-4.630097731562602,79.51781617650522,0.0
1020,-4.930067232947298,-4.974256967013379,79.82143756820061,0.0
1021,-5.2731117205836995,-5.277240576053336,80.1327756480548,0.0
1022,-5.564872246869299,-5.543610847922818,80.45161589461344,0.0
1023,-5.814863894186968,-5.797240772779396,80.77773744008715,0.0
1024,-6.0542827371276395,-6.077801550000743,81.1109124670229,0.0
1025,-6.323596480334695,-6.42642178672062,81.4509056049401,0.0
1026,-6.657512341440044,-6.862556394880008,81.79747332738961,0.0
1027,-7.065447480375611,-7.358963382728181,82.1503633500662,0.0
1028,-7.503781522526422,-7.825132349754361,82.50931403078765,0.0
1029,-7.849804871169071,-8.1095319710779,82.87405377234118,0.0
1030,-7.901939806158312,-8.026353276474836,83.24430042939565,0.0
1031,-7.426198848242839,-7.403603078948281,83.61976072088241,0.0
1032,-6.242496923748453,-6.139501098018549,84.00012964946085,0.0
1033,-4.3148360420025,-4.247794382276538,84.38508992990515,0.0
1034,-1.7983849909671488,-1.8737215776829836,84.77431142847726,0.0
1035,0.987383051841308,0.7283832290237333,85.16745061558585,0.0
1036,3.6530942383473644,3.25091617410928,85.56415003427222,0.0
1037,5.857308095851831,5.404790344468705,85.9640377873106,0.0
1038,7.392991063057009,6.9841318987824135,86.3667270459603,0.0
1039,8.212949656060044,7.904319554395083,86.77181558365962,0.0
1040,8.403255958575453,8.204205994160379,87.17888533820486,1.0
1041,8.133075165796637,8.015847579153526,87.61433953364636,0.0
1042,7.600186956355311,7.514795621316472,88.10376503229186,0.0
1043,6.97820051601641,6.868113498463744,88.64556155143522,0.0
1044,6.374643971367763,6.195411358787542,89.23818007235941,0.0
1045,5.816304492429392,5.551885813227566,89.88009669027086,0.0
1046,5.268667685990355,4.934234434171987,90.56978682001395,0.0
1047,4.674543648445518,4.303216726748156,91.30569949418607,0.0
1048,3.9875386265213226,3.612699063316888,92.08623153314484,0.0
1049,3.1892108348610244,2.834977522111946,92.90970140852883,0.0
1050,2.295139996527723,1.9752419891666004,93.77432266503689,0.0
1051,1.3553062166034375,1.0725937695045085,94.67817681094886,0.0
1052,0.44512947588961405,0.18942209005383304,95.61918563774967,0.0
1053,-0.35622334571145053,-0.6059775174602098,96.59508298467233,0.0
1054,-0.9920633111832011,-1.2575155038129342,97.60338602630898,0.0
1055,-1.4441775244656763,-1.7349778795109239,98.64136623180185,0.0
1056,-1.7317623161034132,-2.040362221307543,99.7060202234229,0.0
1057,-1.8986295265450783,-2.206599822464273,100.79404085116003,0.0
1058,-1.9983842848010345,-2.290187138424905,101.9017888983731,0.0
1059,-2.0841688875602946,-2.359722177352683,103.0252659411837,0.0
1060,-2.204266791222885,-2.4818751863606323,104.16008899975964,0.0
1061,-2.3996689907850186,-2.7059172492253527,105.30146774082483,0.0
1062,-2.6969153828093306,-3.0484460608565276,106.44418511417254,0.0
1063,-3.0928936452144504,-3.481407692595906,107.58258242693351,0.0
1064,-3.537236574967062,-3.927927491048487,108.71054997159212,0.0
1065,-3.9250549822448426,-4.270364597161513,109.8215244193794,0.0
1066,-4.110658691088519,-4.37241302690329,110.90849426024603,0.0
1067,-3.9426601955655376,-4.11230228626329,111.96401460322313,0.0
1068,-3.310886692862212,-3.4189297849039457,112.98023263462683,0.0
1069,-2.1911859258939996,-2.29954390657447,113.9489249537493,0.0
1070,-0.6723112057734089,-0.8484198969704477,114.86154785424893,0.0
1071,1.051239764814602,0.7686755331345956,115.70930138371362,0.0
1072,2.7270097619681715,2.3511345469654565,116.48320768599051,0.0
1073,4.117976567625547,3.7101925436791374,117.17420370743861,0.0
1074,5.069325621829071,4.710469260164698,117.7732478319222,0.0
1075,5.540668488644227,5.293076829077159,118.27143941036938,0.0
1076,5.595488070714453,5.474284090892024,118.66014948811218,1.0
1077,5.356871015485935,5.323260684563298,118.98982875772684,0.0
1078,4.949082926698227,4.930004954829067,119.31624758276234,0.0
1079,4.45080491005304,4.376921419434049,119.63903852552811,0.0
1080,3.8820502424814425,3.723891194489783,119.95782787027322,0.0
1081,3.228400339026038,3.0091576481769104,120.2722358085996,0.0
1082,2.482950736706084,2.260793474418178,120.58187665123782,0.0
1083,1.6766406181821694,1.509549843574186,120.88635906698734,0.0
1084,0.8794282268215122,0.7950182601174726,121.18528634957023,0.0
1085,0.17572529108936985,0.16200069324398925,121.47825671308517,0.0
1086,-0.3689849886161245,-0.35029622458869314,121.76486361667719,0.0
1087,-0.7319861067576983,-0.7201810004644231,122.04469611895915,0.0
1088,-0.9368671879292436,-0.9506473461863096,122.31733926263094,0.0
1089,-1.0382265881375339,-1.0690126227329488,122.58237448964431,0.0
1090,-1.0990643515054808,-1.1200724575724272,122.83938008715234,0.0
1091,-1.173379676575026,-1.1562597591729322,123.08793166436544,0.0
1092,-1.2987941402572634,-1.2283497440918525,123.32760266030868,0.0
1093,-1.4963666755816458,-1.3783925037806972,123.55796488233831,0.0
1094,-1.773492013039005,-1.6342376372582557,123.7785890751317,0.0
1095,-2.1277386707239914,-2.003801110051541,123.98904551970993,0.0
1096,-2.548783243842345,-2.4679836220452573,124.18890466189161,0.0
1097,-3.0129756467314395,-2.9736234973441467,124.37773776940729,0.0
1098,-3.467966513807463,-3.430674766639131,124.55511761672852,0.0
1099,-3.8161532601089663,-3.7189760706668977,124.72061919648387,0.0
1100,-3.915568923371178,-3.7079943658741237,124.8738204561488,0.0
1101,-3.6120209068272566,-3.2878232594806636,125.0143030585057,0.0
1102,-2.7966206699741414,-2.4035337395341263,125.14165316417876,0.0
1103,-1.4632802667628702,-1.0809918007905368,125.25546223435464,0.0
1104,0.2644538435592888,0.5668110559695433,125.35532785160639,0.0
1105,2.1558611969167463,2.357636107114639,125.44085455654742,0.0
1106,3.9389798725402345,4.077766897115151,125.51165469785398,0.0
1107,5.379986288086129,5.527714834872607,125.56734929301166,0.0
1108,6.339349443603292,6.561314813734923,125.60756889696611,0.0
1109,6.784316236528973,7.107182619724165,125.63195447569124,0.0
1110,6.763853710479881,7.169107125659318,125.64015828153053,1.0
1111,6.369197863965675,6.809800979801736,125.56417716544138,0.0
1112,5.700534913788932,6.127060800463298,125.34049771828448,0.0
1113,4.848116389263572,5.231369649429133,124.97623274650333,0.0
1114,3.8882846313485757,4.230289157793333,124.47932680626924,0.0
1115,2.8908455297266906,3.2201212308404816,123.85839718706856,0.0
1116,1.9288140632121675,2.281838044823272,123.12257451886677,0.0
1117,1.0786132553576575,1.4776175974021353,122.28134739594523,0.0
1118,0.40539226363441516,0.8462354772360549,121.34441476738247,0.0
1119,-0.05851230804691587,0.3984410595846075,120.32154911689834,0.0
1120,-0.32703862377309534,0.11531850439908609,119.222472696003,0.0
1121,-0.456879699172677,-0.04767681599348128,118.05674832998116,0.0
1122,-0.5286650543870828,-0.1505772229565534,116.8336856230765,0.0
1123,-0.6210191224505432,-0.2550667864906653,115.56226277414936,0.0
1124,-0.7879789223677716,-0.411156904157143,114.25106369391582,0.0
1125,-1.0492208943089403,-0.648403869138162,112.90822969740815,0.0
1126,-1.3961335955333443,-0.9737575223786064,111.54142473067053,0.0
1127,-1.8067901465466751,-1.375530302361764,110.15781287315004,0.0
1128,-2.2580690332572426,-1.8310006357464435,108.76404672685538,0.0
1129,-2.7292362237789183,-2.3145411205639523,107.36626524771262,0.0
1130,-3.2014655629252387,-2.8037965999698873,105.97009958013163,0.0
1131,-3.6599888252069395,-3.282716021728023,104.58068550909617,0.0
1132,-4.098035641890056,-3.7415422262454685,103.20268123241298,0.0
1133,-4.515991509484481,-4.1748229570766,101.84028926776811,0.0
1134,-4.914146918507294,-4.578954390569818,100.49728143525363,0.0
1135,-5.2863540330067895,-4.950609688564864,99.17702598811044,0.0
1136,-5.6220752395232925,-5.286685527597033,97.88251609636272,0.0
1137,-5.914265384526429,-5.585432182689459,96.61639901515716,0.0
1138,-6.163266488595441,-5.847704239890187,95.38100538871174,0.0
1139,-6.372731150923216,-6.0771334049786585,94.17837824975123,0.0
1140,-6.544584719982739,-6.278500546668741,93.01030137203308,0.0
1141,-6.680403070027656,-6.454453322538802,91.87832671966996,0.0
1142,-6.785347305515476,-6.6017255957424545,90.78380081161434,0.0
1143,-6.864840616456391,-6.708874390614596,89.72788988346575,0.0
1144,-6.914069428368227,-6.757789765021,88.71160378253319,0.0
1145,-6.91322756614781,-6.730309283837448,87.73581857684411,0.0
1146,-6.838691688076018,-6.619041909287988,86.80129789561639,0.0
1147,-6.68359814961813,-6.438666057884322,85.90871304870485,0.0
1148,-6.470915545227811,-6.231887966290728,85.0586619967825,0.0
1149,-6.250384192032675,-6.064294584901545,84.25168726354549,0.0
1150,-6.08478601320774,-6.005159732674297,83.48829289701305,0.0
1151,-6.032030431122922,-6.096486652868808,82.76896059992175,0.0
1152,-6.119692802449769,-6.318787690322712,82.09416516012331,0.0
1153,-6.307731480435706,-6.566986446985267,81.4643893215522,0.0
1154,-6.451941707617646,-6.650576416604496,80.88013824545665,0.0
1155,-6.2986116462733275,-6.326676942041848,80.3419537208719,0.0
1156,-5.537459106438229,-5.363171882405005,79.85042829342635,0.0
1157,-3.9115194887006144,-3.6154173959287883,79.4062194931905,0.0
1158,-1.3448589824466182,-1.09034483487362,79.01006435611075,0.0
1159,1.9764437576153373,2.0279880769832186,78.66279445038288,0.0
1160,5.626643505255775,5.405458790302321,78.36535163977703,0.0
1161,9.070748845677494,8.63226159675622,78.11880484142257,0.0
1162,11.839113025201412,11.321070745774684,77.92436806708086,0.0
1163,13.655673043959638,13.196740626435593,77.78342007591334,0.0
1164,14.470598829658,14.149734260780127,77.69752601495496,0.0
1165,14.415399955767214,14.240124317020157,77.66846148312797,1.0
1166,13.729735136600262,13.656708446479358,77.72946782283492,0.0
1167,12.689681858259064,12.649352685172417,77.90843383826017,0.0
1168,11.540627039931316,11.458125530545821,78.19999766252603,0.0
1169,10.44173268248911,10.259907563978585,78.59962047365008,0.0
1170,9.44407996217228,9.144412769472815,79.10343819784842,0.0
1171,8.514719387567293,8.120629991894809,79.70813082408088,0.0
1172,7.587655627330356,7.1453539842468885,80.41080432904552,0.0
1173,6.607488605135866,6.160469284359285,81.20888109020304,0.0
1174,5.549438159933558,5.125794267182604,82.09999532150464,0.0
1175,4.424275318457551,4.0383995992761905,83.08189056669154,0.0
1176,3.2789433035008404,2.9351331974587076,84.1523166785138,0.0
1177,2.189892529900108,1.8805298031217363,85.30892404027,0.0
1178,1.2418128388649534,0.9460696919932201,86.54915308493699,0.0
1179,0.4970091955653064,0.1882952862289793,87.87011747082437,0.0
1180,-0.027598780929377398,-0.3674956101625888,89.26847961490485,0.0
1181,-0.36326933769887226,-0.7339287729790978,90.7403177005745,0.0
1182,-0.5737715932605192,-0.9580125398010888,92.2809838020883,0.0
1183,-0.7327873116592865,-1.1096506173438616,93.88495344114371,0.0
1184,-0.9056789917397188,-1.26577917129132,95.5456677497663,0.0
1185,-1.14056162826527,-1.4934187867153823,97.25537049238027,0.0
1186,-1.4663481065723891,-1.8339734358515076,99.00494352526198,0.0
1187,-1.8908670817986635,-2.290585901392581,100.78374585475309,0.0
1188,-2.3933585264948167,-2.8207549158003062,102.57946328286889,0.0
1189,-2.9129768504400597,-3.337167197408488,104.37797764927153,0.0
1190,-3.3433387954316154,-3.719521003353672,106.16326678986913,0.0
1191,-3.5448080063556016,-3.8379605403040293,107.91734836747409,0.0
1192,-3.3779882505206285,-3.584699487923993,109.62028244611487,0.0
1193,-2.7499574309243973,-2.9060216083001063,111.2502487555736,0.0
1194,-1.656976272635604,-1.8244432777851678,112.78371463481749,0.0
1195,-0.2051673384206596,-0.44228353712877766,114.19570822024262,0.0
1196,1.4054663232508824,1.0765749915013816,115.46020813909266,0.0
1197,2.9343219907255373,2.54223209448437,116.55065545739048,0.0
1198,4.17027357785384,3.780538585986761,117.44058579177907,0.0
1199,4.986212213092687,4.667688247782979,118.10436951421316,0.0
1200,5.3561134013119,5.147421313165767,118.5180364542884,0.0
1201,5.335182278068445,5.227890290479511,118.66014948811218,1.0
1202,5.018529115608983,4.963178790494617,118.60108762591992,0.0
1203,4.497635603455635,4.429462692939065,118.42725341897905,0.0
1204,3.8330267680844208,3.705817600984779,118.14413142314645,0.0
1205,3.0546726311843386,2.8651685127367714,117.75773680181481,0.0
1206,2.1862749573532145,1.974487411427421,117.27451484184567,0.0
1207,1.273971817075827,1.0984971378797779,116.70124111709703,0.0
1208,0.3968719776306986,0.3002449370436129,116.04492457558885,0.0
1209,-0.35031132155461586,-0.3649102457917319,115.31271549024186,0.0
1210,-0.8930673473228892,-0.8602514101332999,114.5118198443425,0.0
1211,-1.2094983004405333,-1.1780413466474744,113.64942134350115,0.0
1212,-1.3394522079677158,-1.3431874473180228,112.73261187505337,0.0
1213,-1.365478577471035,-1.4071921619907253,111.76833088912024,0.0
1214,-1.3780843580343147,-1.4339851742701537,110.76331386440665,0.0
1215,-1.445073299783055,-1.4828861607118444,109.72404975381576,0.0
1216,-1.5982670689497191,-1.5948537006432375,108.65674708398116,0.0
1217,-1.8374521811298252,-1.7862554010065064,107.56730820961343,0.0
1218,-2.1422269030032925,-2.050974122156927,106.46131109634459,0.0
1219,-2.483615450888242,-2.3684973793497917,105.34399792089063,0.0
1220,-2.833946133850848,-2.7139625599613204,104.22026972994273,0.0
1221,-3.1757920408726608,-3.0662960972032285,103.09468638365956,0.0
1222,-3.506640031590784,-3.4121756620098878,101.97147102015633,0.0
1223,-3.834253662273914,-3.7457102181941715,100.85451830829503,0.0
1224,-4.164811674441708,-4.065508774255948,99.74740580209708,0.0
1225,-4.4941263205500395,-4.37146157923336,98.65340776651277,0.0
1226,-4.809884467798861,-4.662931318452715,97.57551090704283,0.0
1227,-5.101161886915989,-4.938677421443073,96.51643150145637,0.0
1228,-5.3643530149008996,-5.197606944605404,95.4786334979073,0.0
1229,-5.600591114007835,-5.439037982688875,94.46434720806509,0.0
1230,-5.810367369388761,-5.661670169546287,93.47558828495755,0.0
1231,-5.99277553875447,-5.861491255420328,92.5141767320671,0.0
1232,-6.148132079320744,-6.029880468877899,91.58175574223094,0.0
1233,-6.2767266744960235,-6.153738565620886,90.67981021179381,0.0
1234,-6.372912918329238,-6.219193408259109,89.80968481723862,0.0
1235,-6.423543518596388,-6.219057965565929,88.97260157835083,0.0
1236,-6.417782953562478,-6.161954148706144,88.16967686418008,0.0
1237,-6.362438812068496,-6.078732535230728,87.40193782606298,0.0
1238,-6.2892323393574845,-6.020838663969769,86.6703382662488,0.0
1239,-6.24723093802662,-6.046714320709485,85.97577397173961,0.0
1240,-6.284816756250924,-6.19640468627895,85.31909756135947,0.0
1241,-6.426925778701385,-6.460306475262472,84.70113291034333,0.0
1242,-6.647012470270754,-6.75338644315573,84.12268923143004,0.0
1243,-6.835079874707119,-6.908527910340515,83.58457490509518,0.0
1244,-6.779436500310567,-6.699504228238571,83.08761116470858,0.0
1245,-6.19311339033047,-5.894736105423496,82.63264575559712,0.0
1246,-4.802621841054207,-4.329859609042969,82.22056670079775,0.0
1247,-2.475983382741747,-1.9757159959612651,81.85231632129496,0.0
1248,0.6733670070762212,1.0249341375536547,81.52890567539309,0.0
1249,4.274675362495598,4.370323124546624,81.25142960128817,0.0
1250,7.8033076685480935,7.662770773535986,81.02108256969416,0.0
1251,10.753665270940763,10.502939270579583,80.83917558048284,0.0
1252,12.792518931944118,12.584085286561722,80.70715436984874,0.0
1253,13.822335394136413,13.75600439110396,80.62661923386362,0.0
1254,13.947582413042404,14.041098619234544,80.59934682211393,1.0
1255,13.391629776083283,13.602955311117476,80.60474886113194,0.0
1256,12.417846127382525,12.683056720525789,80.6206671857229,0.0
1257,11.273323067848882,11.528653886447767,80.64667576934278,0.0
1258,10.144854258674952,10.333674269099244,80.6823552649042,0.0
1259,9.124920762889559,9.20711574197199,80.72729196409475,0.0
1260,8.205564859935526,8.173066006791327,80.7810768098534,0.0
1261,7.312531162652265,7.196462045135478,80.84330445875383,0.0
1262,6.363703997487432,6.221665136496355,80.91357239048561,0.0
1263,5.3185048223614615,5.2087444348789305,80.99148006203389,0.0
1264,4.196560848398443,4.155412275118412,81.07662810454066,0.0
1265,3.0669856662977915,3.0993457605247636,81.16861756118759,0.0
1266,2.020983256722063,2.103346859286739,81.26704916477613,0.0
1267,1.1395016038544494,1.2315451397164496,81.37152265399489,0.0
1268,0.4658581254496248,0.5268318531904783,81.48163612766169,0.0
1269,-0.006699270408262237,-0.002256727238965084,81.59698543650745,0.0
1270,-0.3277643946492965,-0.38165631469448646,81.71716361233341,0.0
1271,-0.5682504192434492,-0.6606309218475221,81.84176033462317,0.0
1272,-0.795403806333864,-0.8949663376129839,81.9703614349262,0.0
1273,-1.0535605750123134,-1.1312639440727876,82.10254843955148,0.0
1274,-1.3563416301155629,-1.397503179204549,82.23789815131754,0.0
1275,-1.692365196718622,-1.701716820763013,82.37598227129918,0.0
1276,-2.0407358162435227,-2.0371705038830608,82.51636706169113,0.0
1277,-2.38618453965165,-2.3903029432782477,82.65861305107293,0.0
1278,-2.7240118113384524,-2.7475373225080997,82.80227478350896,0.0
1279,-3.054456288069457,-3.0985905750332225,82.94690061304928,0.0
1280,-3.3754973518794618,-3.4360750163111518,83.09203254531172,0.0
1281,-3.68181867096082,-3.752957495641808,83.23720612792059,0.0
1282,-3.967957916848876,-4.040240600063343,83.38195039165196,0.0
1283,-4.228821471069641,-4.287007147351366,83.52578784418812,0.0
1284,-4.457075656610627,-4.483914813746158,83.6682345184119,0.0
1285,-4.644324428081853,-4.629584880379337,83.808800077175,0.0
1286,-4.7899489012506065,-4.737482136393589,83.94698797644965,0.0
1287,-4.911207567262782,-4.839493578670969,84.08229568871981,0.0
1288,-5.04395521733193,-4.982276614712606,84.2142149883836,0.0
1289,-5.2310418799382745,-5.214087021193521,84.3422323008221,0.0
1290,-5.5052729466544434,-5.563119413478971,84.46582911663897,0.0
1291,-5.8730902292619485,-6.012602871059408,84.5844824723889,0.0
1292,-6.296631395348205,-6.481588315592295,84.69766549889106,0.0
1293,-6.671990841697896,-6.821732128794473,84.80484803796301,0.0
1294,-6.816549878477133,-6.837725861785962,84.90549732811334,0.0
1295,-6.490922932697969,-6.331798040197159,84.99907875939495,0.0
1296,-5.470156346392024,-5.162647520239984,85.08505669724767,0.0
1297,-3.6450146918553727,-3.300395882020802,85.16289537474765,0.0
1298,-1.102872521884656,-0.8565751875682135,85.23205985223473,0.0
1299,1.8631059392058136,1.9254121835916376,85.29201704280885,0.0
1300,4.832507634412806,4.72011313747286,85.34223680167432,0.0
1301,7.389935088327642,7.1954811752127,85.38219307677156,0.0
1302,9.24653130638915,9.089460434620502,85.411365117571,0.0
1303,10.297348762058272,10.263318849331062,85.42923873832079,0.0
1304,10.604005028011045,10.716963856112477,85.43530763144076,1.0
1305,10.33321901453778,10.565690091902594,85.4315648967474,0.0
1306,9.691440317871482,9.990423054411824,85.42053302855007,0.0
1307,8.874101379124948,9.180163209498845,85.40250910296756,0.0
1308,8.026816201808515,8.28486605574945,85.37779323272231,0.0
1309,7.2188492493054675,7.390920816554781,85.34668809015461,0.0
1310,6.441577808060925,6.522466524848767,85.30949844847623,0.0
1311,5.63982504318259,5.66298980585908,85.26653074224399,0.0
1312,4.7618523846293055,4.78566408636378,85.21809264790491,0.0
1313,3.799270661720621,3.8795298384623376,85.16449268514054,0.0
1314,2.7970374888872196,2.9621048100623826,85.10603983961704,0.0
1315,1.8342869735813163,2.0756768724270622,85.04304320763313,0.0
1316,0.9905580311279096,1.2714289401584007,84.97581166304886,0.0
1317,0.3147273310664871,0.5898380258701919,84.90465354677343,0.0
1318,-0.19037552248492817,0.046044510270772054,84.82987637899532,0.0
1319,-0.5631391078192716,-0.3744222680882925,84.75178659424604,0.0
1320,-0.8635575011814864,-0.7091258696525169,84.67068929930684,0.0
1321,-1.1503231783929606,-1.0052584738598649,84.58688805389068,0.0
1322,-1.464355092495575,-1.3050761763156822,84.5006846739636,0.0
1323,-1.822222618485191,-1.635439965188069,84.41237905750708,0.0
1324,-2.2183274080467545,-2.0041838905880622,84.32226903246871,0.0
1325,-2.6334487933405066,-2.403058712891496,84.23065022660117,0.0
1326,-3.0463341334970284,-2.814780056767763,84.13781595884825,0.0
1327,-3.4428842604265912,-3.2209094865637806,84.04405715190353,0.0
1328,-3.817933588247426,-3.6078605701622157,83.9496622655399,0.0
1329,-4.170487573729042,-3.969648373617294,83.85491725028704,0.0
1330,-4.499387196792408,-4.3073428023028235,83.76010552102036,0.0
1331,-4.804680783663151,-4.626079820312474,83.66550795001517,0.0
1332,-5.0912733906703345,-4.930920337521716,83.57140287901842,0.0
1333,-5.36720381634773,-5.223052348316906,83.47806614989156,0.0
1334,-5.636047519465259,-5.497889748512017,83.38577115338754,0.0
1335,-5.89206161599542,-5.746322024825467,83.2947888956367,0.0
1336,-6.124730410742004,-5.959454701803065,83.20538808193493,0.0
1337,-6.328221811588942,-6.135694527755828,83.11783521744947,0.0
1338,-6.506031517222715,-6.287416726713586,83.03239472448459,0.0
1339,-6.668989350475086,-6.443363738571603,82.94932907598033,0.0
1340,-6.833771537964591,-6.643044272754591,82.86889894495258,0.0
1341,-7.0247673248264615,-6.921288032256409,82.79136336962154,0.0
1342,-7.269039610500651,-7.2849081891718015,82.71697993401875,0.0
1343,-7.571653282864089,-7.688317820443825,82.64600496390885,0.0
1344,-7.875831239972209,-8.01886042515325,82.57869373791263,0.0
1345,-8.033790831870185,-8.102819502195786,82.51530071377209,0.0
1346,-7.817600451418915,-7.737789308039377,82.4560797697552,0.0
1347,-6.9803787841999005,-6.747136596617063,82.4012844612596,0.0
1348,-5.3510122193992675,-5.041453159979412,82.35116829273953,0.0
1349,-2.925024624555079,-2.6654583983478446,82.30598500514972,0.0
1350,0.0931149431718361,0.1892258021983837,82.26598887917261,0.0
1351,3.3264528846441035,3.214309974322301,82.23143505457338,0.0
1352,6.331855776735731,6.051521776617447,82.20257986610991,0.0
1353,8.727190774111943,8.375545731247616,82.17968119651138,0.0
1354,10.28382146721492,9.967050688487044,82.16299884713301,0.0
1355,10.959414553359695,10.75361057818334,82.1527949269927,0.0
1356,10.878688750218272,10.80814127131273,82.14933426100075,1.0
1357,10.276843797382275,10.309089849870347,82.1621379590646,0.0
1358,9.418196075126247,9.478489098217544,82.2000855440245,0.0
1359,8.513928505493567,8.519216544621905,82.26251442236321,0.0
1360,7.673478781333814,7.570235905093062,82.3488023126157,0.0
1361,6.908394869980082,6.69005058039494,82.45836341380121,0.0
1362,6.172821033855307,5.867930613927523,82.59064481966757,0.0
1363,5.406378885779889,5.053844419643584,82.7451231481548,0.0
1364,4.560351412395766,4.19402825612282,82.92130135864402,0.0
1365,3.6125193037472534,3.2599907500068377,83.11870573232531,0.0
1366,2.5796645380030623,2.262982331177466,83.33688299345424,0.0
1367,1.5226078730418782,1.251605145577575,83.57539755141883,0.0
1368,0.5320948121203246,0.29566886201818354,83.83382884544858,0.0
1369,-0.3036807070591079,-0.5366500902318556,84.11176877550339,0.0
1370,-0.9329804978458385,-1.1998110139114435,84.40881920441353,0.0
1371,-1.3570400773036904,-1.6829888173627872,84.72458951773159,0.0
1372,-1.6224710286456234,-2.0099836911010494,85.05869422902894,0.0
1373,-1.7971243801988748,-2.228386596235028,85.4107506195458,0.0
1374,-1.9438255328120047,-2.3930451394027674,85.78037640220539,0.0
1375,-2.1038177098012865,-2.5501478091728633,86.16718740104905,0.0
1376,-2.293764310689412,-2.7270571283092035,86.57079523815705,0.0
1377,-2.5121779498781085,-2.930292680879563,86.99080502110569,0.0
1378,-2.74801129680574,-3.151079597943527,87.42681302499093,0.0
1379,-2.987338190069579,-3.375606737699628,87.87840436403569,0.0
1380,-3.2191397338008123,-3.5959593564727927,88.3451506488062,0.0
1381,-3.441860512631668,-3.817573132719723,88.82660762610556,0.0
1382,-3.6678792932599604,-4.0598973825204006,89.3223127997014,0.0
1383,-3.920116791785357,-4.348715863046557,89.83178303119178,0.0
1384,-4.219301879095163,-4.701129983523138,90.35451212152893,0.0
1385,-4.567517251238084,-5.10712942049424,90.88996837501583,0.0
1386,-4.934571875734278,-5.514149179186014,91.4375921489724,0.0
1387,-5.248489578931438,-5.82198849835354,91.99679339374693,0.0
1388,-5.3905029563879605,-5.8939517313902865,92.56694918932943,0.0
1389,-5.203207569111235,-5.585612643530371,93.14740128651019,0.0
1390,-4.525933292531272,-4.785921031176411,93.73745366232593,0.0
1391,-3.2587114197460227,-3.45873402349435,94.33637010144274,0.0
1392,-1.4290734558152538,-1.6695614803528405,94.94337181714191,0.0
1393,0.78027045414699,0.4149546878237902,95.55763512769245,0.0
1394,3.0689913404603546,2.5584515686472984,96.17828920610592,0.0
1395,5.110241384429185,4.509050828592597,96.80441392355918,0.0
1396,6.652976577822842,6.0589801268023855,97.43503780912233,0.0
1397,7.588300946350877,7.089882822711702,98.06913615081577,0.0
1398,7.953867243700427,7.589804717355333,98.70562926541578,0.0
1399,7.885039242346699,7.638801948736378,99.34338096679159,1.0
1400,7.547800683843324,7.371238819940508,100.03027430778091,0.0
1401,7.087599618783579,6.92963478381713,100.81273810347764,0.0
1402,6.604244165855671,6.425512605323605,101.68752896869262,0.0
1403,6.1429929463871105,5.918093885836415,102.65148807816138,0.0
1404,5.694707573621683,5.414458004116867,103.70145220535225,0.0
1405,5.210001429863691,4.887571736602897,104.83416462025836,0.0
1406,4.6312912724901665,4.3033806210874115,106.04618464940438,0.0
1407,3.9315276744820027,3.6461589667383545,107.33379497254981,0.0
1408,3.137972244569708,2.9329871229786852,108.69290601786841,0.0
1409,2.3271214037712316,2.212944782736928,110.11895713790494,0.0
1410,1.5951101529822305,1.5526096190942797,111.60681461863466,0.0
1411,1.0207304981280014,1.0143758217420185,113.15066700857659,0.0
1412,0.6387193861310436,0.6360898706569249,114.7439187673014,0.0
1413,0.4327459650751013,0.41907100690605636,116.37908383277691,0.0
1414,0.34722313057925946,0.32780302632766833,118.04768139965744,0.0
1415,0.30921773995309954,0.3003527052114705,119.74013698309916,0.0
1416,0.2496087351603844,0.26558233335190784,121.44569270152765,0.0
1417,0.11733558635838648,0.1621996545770008,123.15233161929035,0.0
1418,-0.11280150813852785,-0.04472827655035827,124.84672190062032,0.0
1419,-0.43595623539393635,-0.35290649665664486,126.51418737281001,0.0
1420,-0.815842634536649,-0.719542739054458,128.1387117883919,0.0
1421,-1.18737583262736,-1.0667895881092424,129.70298449933674,0.0
1422,-1.4641637548743365,-1.2961195405879649,131.1884952765759,0.0
1423,-1.5510766862728138,-1.3103774998492184,132.57568547946508,0.0
1424,-1.3636852625973959,-1.0400032349100539,133.84416155841257,0.0
1425,-0.8561224577422373,-0.4674223994223339,134.97297483910356,0.0
1426,-0.05163064015482122,0.35789554419677305,135.94096861736116,0.0
1427,0.9403943864923219,1.3203380653433419,136.727189797992,0.0
1428,1.9378749149059113,2.257768828326147,137.31135775591312,0.0
1429,2.731843748477855,2.9966402463853576,137.6743780311389,0.0
1430,3.1466986115962277,3.393518212501028,137.79888327651736,1.0
1431,3.0900583868220863,3.3708056395562656,137.69507708473407,0.0
1432,2.575624158790583,2.9356253808641393,137.3897580115401,0.0
1433,1.7151519564871665,2.176047139805449,136.89328804826764,0.0
1434,0.6843554097148031,1.23616408224095,136.21742322157937,0.0
1435,-0.32710861591348417,0.2781967618289798,135.37502617216998,0.0
1436,-1.1665235745299019,-0.5565801825042305,134.3797774732897,0.0
1437,-1.75250397115455,-1.1768866573415115,133.24589536107257,0.0
1438,-2.081192522290356,-1.553572399242021,131.9878719846452,0.0
1439,-2.2062412898535353,-1.7140880512362595,130.62023250560026,0.0
1440,-2.2074202263615397,-1.7240545001621836,129.15732153629108,0.0
1441,-2.164292133978505,-1.6636755433734205,127.61311963410755,0.0
1442,-2.1412556417884647,-1.606591916666382,126.00109096362596,0.0
1443,-2.1804530750848907,-1.60622533946854,124.33406186670416,0.0
1444,-2.299331381451397,-1.691139529870417,122.62412897740123,0.0
1445,-2.4946883179242416,-1.8678334115000097,120.88259469231278,0.0
1446,-2.753733510825885,-2.1275731940858993,119.11992724474135,0.0
1447,-3.065122733225097,-2.453662912367956,117.3457423055475,0.0
1448,-3.42100459026868,-2.826679589689387,115.56880290826156,0.0
1449,-3.810394603851521,-3.226936073221719,113.7970345311079,0.0
1450,-4.21379826112632,-3.6349079077364754,112.03755232431071,0.0
1451,-4.606699226565963,-4.030999428619886,110.29669771077478,0.0
1452,-4.967948422601017,-4.395833015251162,108.58008188008631,0.0
1453,-5.282939498200288,-4.711633544123207,106.89263401343693,0.0
1454,-5.539249431068722,-4.964629550676001,105.23865239991942,0.0
1455,-5.723840263526835,-5.1478297046377826,103.6218569173938,0.0
1456,-5.829585330989355,-5.263096306889368,102.04544164324203,0.0
1457,-5.865169901613067,-5.3213190186971095,100.51212662522443,0.0
1458,-5.855002437633455,-5.339947276306436,99.02420807691281,0.0
1459,-5.826177622192341,-5.338135283323304,97.58360646480449,0.0
1460,-5.794533815322418,-5.330833932818963,96.19191212596576,0.0
1461,-5.762052706923735,-5.323779516557315,94.8504281978525,0.0
1462,-5.7238954274411,-5.311268155483289,93.56021075847758,0.0
1463,-5.673864246311495,-5.278030125322192,92.32210616839156,0.0
1464,-5.603403425342481,-5.2056092860885474,91.13678567919429,0.0
1465,-5.501019973644562,-5.082365106194301,90.00477742962443,0.0
1466,-5.359788237452996,-4.914504707406088,88.92649599263302,0.0
1467,-5.189901927706483,-4.733814642657208,87.90226966794812,0.0
1468,-5.0255776180672616,-4.5969372866354155,86.932365736922,0.0
1469,-4.919902668530773,-4.572185590025462,86.01701391208077,0.0
1470,-4.929361757748549,-4.713526671469535,85.15642822467541,0.0
1471,-5.0907813720243,-5.0269470593735175,84.35082760132386,0.0
1472,-5.389989418253134,-5.440178121993026,83.60045538700713,0.0
1473,-5.725668252959534,-5.790006326819167,82.90559807754192,0.0
1474,-5.886571668606129,-5.839377773227884,82.26660353139056,0.0
1475,-5.571083774631859,-5.327984973652291,81.68389893940868,0.0
1476,-4.467822785414968,-4.046786163628051,81.1580088429761,0.0
1477,-2.3826622429093907,-1.9140958231014453,80.68957350704744,0.0
1478,0.6416353253443816,0.9748515334403596,80.27936797623201,0.0
1479,4.283805679640301,4.347058934068961,79.92832217047126,0.0
1480,8.022285993086724,7.805138825505846,79.63754241387315,0.0
1481,11.305702767822648,10.919712549187901,79.40833483778553,0.0
1482,13.72661491751187,13.330579819757023,79.24223115971446,0.0
1483,15.111719233563512,14.823944627912125,79.14101741632084,0.0
1484,15.50666911307708,15.363616857976455,79.10676632540812,1.0
1485,15.100498306770504,15.071958222351995,79.14299657330226,0.0
1486,14.147639641190922,14.173143780556396,79.2495871486687,0.0
1487,12.90861133070339,12.920998189211481,79.42364307315344,0.0
1488,11.598982286039973,11.534496584246384,79.6625681720801,0.0
1489,10.345836276774754,10.157740058719096,79.96401769745171,0.0
1490,9.173540424999434,8.85107909621112,80.32585546302674,0.0
1491,8.033937488610404,7.609505222906451,80.74611451317206,0.0
1492,6.863481350165257,6.396570635017092,81.22296050051966,0.0
1493,5.630755180210668,5.179147517745136,81.75465707159277,0.0
1494,4.353000784915741,3.950811350892052,82.33953266161255,0.0
1495,3.0866668088982467,2.737973610162201,82.97594818535538,0.0
1496,1.9063714118948474,1.5902075851240491,83.66226518490976,0.0
1497,0.8810218417365925,0.561670365345603,84.39681406146335,0.0
1498,0.052002587120146604,-0.307522613858501,85.1778620803162,0.0
1499,-0.5791628890556093,-1.0027678469121462,86.00358089928635,0.0
1500,-1.0472577710516169,-1.5361771567471925,86.87201343342741,0.0
1501,-1.4062239437512876,-1.9390574500739013,87.78103993621686,0.0
1502,-1.7084532041914953,-2.2505376407546995,88.72834325164516,0.0
1503,-1.9904258652303723,-2.5079870624111273,89.71137327533816,0.0
1504,-2.26944589795644,-2.7429821170084696,90.72731075815898,0.0
1505,-2.5509374093288035,-2.9830477270300566,91.77303069454565,0.0
1506,-2.841277480789729,-3.255913485430694,92.84506566157769,0.0
1507,-3.157687922573746,-3.591222932526991,93.93956961421128,0.0
1508,-3.5274693146524205,-4.015444170910927,95.05228279716255,0.0
1509,-3.975168050589578,-4.538983757567189,96.17849860321581,0.0
1510,-4.503224334506044,-5.138987328541716,97.31303338839135,0.0
1511,-5.073338234113317,-5.745173767825895,98.45020044157754,0.0
1512,-5.5933838319599625,-6.237433937791318,99.58378949272686,0.0
1513,-5.915446023375474,-6.461603808157078,100.70705331968769,0.0
1514,-5.855514640687057,-6.263815017782388,101.81270316643422,0.0
1515,-5.243823098325313,-5.535826210982559,102.89291479916884,0.0
1516,-3.9974535314143673,-4.256965937442455,103.93934708308747,0.0
1517,-2.1821175172885408,-2.516394392274535,104.94317494101047,0.0
1518,-0.02257314889835771,-0.5044079313241938,105.89513843406317,0.0
1519,2.1546245629673733,1.5276511357422375,106.78560946325004,0.0
1520,4.023213185781827,3.327054591130169,107.60467721105033,0.0
1521,5.35670218646206,4.69907599681216,108.34225291159018,0.0
1522,6.081171025487574,5.54638206448542,108.98819385270616,0.0
1523,6.263886329216831,5.876891070447013,109.53244568133432,1.0
1524,6.054090859174859,5.780876474850196,110.02413405171629,0.0
1525,5.613025376685732,5.388953968361848,110.51849329688328,0.0
1526,5.06529194190229,4.827694550351872,111.01477183844584,0.0
1527,4.480240407942151,4.187782924870422,111.51219055302153,0.0
1528,3.873889938506882,3.512760284349206,112.0099422501192,0.0
1529,3.2230664543883756,2.807852555073165,112.50719125918664,0.0
1530,2.4911316951268128,2.0614240867076896,113.00307313650531,0.0
1531,1.661082658833297,1.268294688305089,113.49669450301657,0.0
1532,0.7603465487925309,0.4451577615285208,113.98713302448931,0.0
1533,-0.13946586358957602,-0.3671503512159848,114.47343754567457,0.0
1534,-0.9489693184612782,-1.1137681935085881,114.95462839022989,0.0
1535,-1.597395897949935,-1.7426194409309157,115.42969783821057,0.0
1536,-2.0586657019563623,-2.220388637975034,115.89761079281097,0.0
1537,-2.355255828459505,-2.541846080137039,116.35730564777437,0.0
1538,-2.541326802102242,-2.7305999847541575,116.80769536646098,0.0
1539,-2.6776506142327943,-2.8330914494451966,117.24766878295708,0.0
1540,-2.81366185114772,-2.909289139544918,117.67609213480907,0.0
1541,-2.9844627579040677,-3.022651114051931,118.09181083595918,0.0
1542,-3.2178900279927007,-3.229719650791819,118.49365149723779,0.0
1543,-3.5390093114117795,-3.568204231100326,118.88042420031977,0.0
1544,-3.963178974509134,-4.043051332328152,119.25092502937116,0.0
1545,-4.479348029234905,-4.612766615344318,119.60393886270104,0.0
1546,-5.031841164035269,-5.181566610596628,119.93824242458476,0.0
1547,-5.508262135973462,-5.604468288730825,120.25260759505228,0.0
1548,-5.740925137811612,-5.71031484311446,120.54580497284564,0.0
1549,-5.533046717796768,-5.341702654632822,120.81660768395791,0.0
1550,-4.717590396233108,-4.402704852883465,121.0637954251981,0.0
1551,-3.235787008354742,-2.898872887982299,121.28615872910642,0.0
1552,-1.1960017015148479,-0.9531745972731769,121.48250343330734,0.0
1553,1.1294514830713234,1.211822341732197,121.6516553340747,0.0
1554,3.379752651444189,3.3229541106383875,121.79246500053864,0.0
1555,5.220387064868706,5.121495589054723,121.90381272264024,0.0
1556,6.4436529190718765,6.422250971238922,121.98461356269344,0.0
1557,7.01150128646405,7.14719018372275,122.03382247730391,0.0
1558,7.0280905729812355,7.324749241433482,122.0504394734868,1.0
1559,6.665061234761168,7.059552504946214,122.00413652592657,0.0
1560,6.083782569702954,6.487644474585966,121.86793670557441,0.0
1561,5.391093101818596,5.735173656980548,121.64617530652414,0.0
1562,4.635715787808756,4.893689074944142,121.343501801301,0.0
1563,3.8287199058547787,4.016110169027556,120.9648197359783,0.0
1564,2.9695697112592168,3.12859533137347,120.51522773921336,0.0
1565,2.0685012463924406,2.2484702770827556,119.99996267022539,0.0
1566,1.1601319599329272,1.398301340686655,119.4243457730687,0.0
1567,0.30255847863549123,0.6101353087534674,118.79373253840471,0.0
1568,-0.4397346457619997,-0.08042507221976025,118.11346680687252,0.0
1569,-1.0208054785980432,-0.6458470757678199,117.3888394865619,0.0
1570,-1.4319144365416279,-1.077457041467729,116.62505210621362,0.0
1571,-1.7043936852988228,-1.3900061264839454,115.82718528951192,0.0
1572,-1.8963954546974082,-1.6180592424397993,115.00017211680107,0.0
1573,-2.070418934172275,-1.8061079353064358,114.14877624018936,0.0
1574,-2.2724354370896243,-1.9967591909629374,113.27757453668667,0.0
1575,-2.5227862079814214,-2.2214790905373203,112.39094402130944,0.0
1576,-2.8216392539001798,-2.496501834738409,111.49305269685456,0.0
1577,-3.161074975534086,-2.8238938571825667,110.58785398770594,0.0
1578,-3.5322648901450884,-3.1957522796049767,109.6790843896966,0.0
1579,-3.9244703122199347,-3.5988639808605076,108.77026396466678,0.0
1580,-4.322877409998215,-4.017777140172892,107.864699314855,0.0
1581,-4.711948935076922,-4.4355763550952965,106.96548868663804,0.0
1582,-5.080974636420006,-4.83311278850438,106.07552887352728,0.0
1583,-5.423161918640046,-5.18855465148638,105.19752361306065,0.0
1584,-5.727645670671081,-5.479438573372422,104.33399319983558,0.0
1585,-5.97503634632087,-5.688509979014343,103.48728506617158,0.0
1586,-6.145841416551633,-5.812524007918299,102.65958511175724,0.0
1587,-6.237072378120558,-5.870556177438191,101.85292959332105,0.0
1588,-6.272405290960033,-5.9065650250059125,101.0692174142595,0.0
1589,-6.297710298126739,-5.9812493961489395,100.31022268182568,0.0
1590,-6.366743669368896,-6.151231587815996,99.57760742564255,0.0
1591,-6.523273440133151,-6.438800701498447,98.87293439580311,0.0
1592,-6.7763541686738105,-6.801319570221812,98.19767988160767,0.0
1593,-7.064719880709374,-7.113490896419369,97.55324651311308,0.0
1594,-7.224441646854977,-7.1752533832395144,96.94097602724008,0.0
1595,-6.992736353635063,-6.751412924568335,96.36216199838478,0.0
1596,-6.073921877453509,-5.637160742580619,95.81806255052696,0.0
1597,-4.257562212982041,-3.730759258687593,95.30991308399119,0.0
1598,-1.5375993652334694,-1.0872736116121073,94.83893906559176,0.0
1599,1.8345603344583612,2.0696672937719622,94.40636894622244,0.0
1600,5.403892181026434,5.387197036408189,94.0134472853996,0.0
1601,8.654476633221227,8.463521580619162,93.6614481782511,0.0
1602,11.169892296688337,10.94327724951197,93.35168909741738,0.0
1603,12.734991922753522,12.596789451092999,93.08554528081325,0.0
1604,13.348049896942044,13.35934686458737,92.86446481678344,1.0
1605,13.16723085131782,13.322239311538656,92.67065416737248,0.0
1606,12.436310884172785,12.684080679824453,92.48505436399648,0.0
1607,11.41534570058814,11.68245066663852,92.30728644872721,0.0
1608,10.319328862687541,10.529074478919856,92.1369802767096,0.0
1609,9.271824717180316,9.367050155684987,91.97377391860424,0.0
1610,8.293194824227035,8.258766803420654,91.8173131013061,0.0
1611,7.3329501624928906,7.2019150917814105,91.66725068475132,0.0
1612,6.326936569377771,6.16218697140403,91.5232461728203,0.0
1613,5.2446796854459885,5.107662271570266,91.38496525652195,0.0
1614,4.106099667704909,4.0321755038849165,91.25207938780888,0.0
1615,2.970731448356044,2.961476041923243,91.12426538251916,0.0
1616,1.913507819699258,1.9435894747151816,91.00120505107826,0.0
1617,0.9988298781239813,1.0303862765082388,90.8825848557171,0.0
1618,0.260651622927214,0.2592450970871978,90.76809559307533,0.0
1619,-0.30514921629011926,-0.3581058475438703,90.65743210116217,0.0
1620,-0.7338473481469605,-0.83658048961937,90.55029298973955,0.0
1621,-1.0754954173479736,-1.2099885954491594,90.44638039327842,0.0
1622,-1.3777732338505784,-1.5189982300958862,90.34539974571483,0.0
1623,-1.673991204540815,-1.7999817273711565,90.24705957630215,0.0
1624,-1.9784761668850113,-2.078488969026965,90.15107132591781,0.0
1625,-2.2901958416883357,-2.3684374409085613,90.05714918323868,0.0
1626,-2.603190159960561,-2.675500904130118,89.96500994024846,0.0
1627,-2.917163497363941,-3.001699177628315,89.87437286658388,0.0
1628,-3.2399315053024047,-3.348318896366887,89.78495960226415,0.0
1629,-3.5807855358393974,-3.715749507484589,89.69649406838067,0.0
1630,-3.9427648849616626,-4.100770929843644,89.60870239535157,0.0
1631,-4.32102306660492,-4.4933710298858855,89.52131286836712,0.0
1632,-4.705389347524038,-4.875721645329565,89.43405588967092,0.0
1633,-5.080772426752566,-5.225332207865858,89.34666395733409,0.0
1634,-5.425651838283678,-5.522737908594242,89.25887166018857,0.0
1635,-5.716704762320597,-5.761717428097968,89.17041568859094,0.0
1636,-5.943569127744339,-5.9577207869872275,89.08103486068758,0.0
1637,-6.1241336867742895,-6.149070138719356,88.99047016385015,0.0
1638,-6.304549033536663,-6.386673592440327,88.89846481094192,0.0
1639,-6.538617558962201,-6.711770578613291,88.8047643110662,0.0
1640,-6.856357504458968,-7.126658636825761,88.70911655443336,0.0
1641,-7.235014071103585,-7.56842690139506,88.61127191096647,0.0
1642,-7.578417253780936,-7.898076396687564,88.5109833422442,0.0
1643,-7.708145489538685,-7.915173880189299,88.40800652635872,0.0
1644,-7.379451650191285,-7.400836072041752,88.3020999952382,0.0
1645,-6.340058624726122,-6.1809474825333,88.19302528395735,0.0
1646,-4.430458775199736,-4.190982129293719,88.08054709152819,0.0
1647,-1.685757255399237,-1.518795008845928,87.96443345263096,0.0
1648,1.6233419774227702,1.5938392455617612,87.84445591971186,0.0
1649,5.0484852316307975,4.796520285599699,87.7203897548381,0.0
1650,8.10104615943572,7.710237390271262,87.5920141306644,0.0
1651,10.403458716576345,10.016254359207858,87.45911233982858,0.0
1652,11.784778742994925,11.524739577701876,87.3214720120546,0.0
1653,12.285990828720346,12.20257663460459,87.17888533820486,1.0
1654,12.09133214310161,12.155768929960244,87.0273858139364,0.0
1655,11.436344709067921,11.577789616748545,86.86361465919964,0.0
1656,10.538871255142672,10.684761059316088,86.68828013425662,0.0
1657,9.563951977281487,9.659053378445941,86.5020903000277,0.0
1658,8.607206853581474,8.616392934586658,86.3057513231306,0.0
1659,7.68890399379327,7.601579641148379,86.09996589753126,0.0
1660,6.769237324114341,6.608118881952556,85.88543178475945,0.0
1661,5.7906022337028835,5.610186181017095,85.66284047363847,0.0
1662,4.728121759593181,4.5930012791207435,85.43287595955881,0.0
1663,3.616977851134711,3.570339514727742,85.19621364248718,0.0
1664,2.5410323098880103,2.5844108511214055,84.95351934215066,0.0
1665,1.594271121940596,1.6909957770991402,84.70544842817073,0.0
1666,0.840396530720277,0.9383155450642033,84.45264506234147,0.0
1667,0.2912669867950717,0.34945404763932064,84.19574154975007,0.0
1668,-0.08964524089912373,-0.08481357917228438,83.9353577950228,0.0
1669,-0.3662859264142506,-0.40127512475839744,83.67210085964174,0.0
1670,-0.6048153868750497,-0.6511329391415064,83.40656461601314,0.0
1671,-0.8549691307381613,-0.8845994252517455,83.13932949377337,0.0
1672,-1.1423164922749678,-1.1390057920951253,82.87096231368722,0.0
1673,-1.4701813244940447,-1.43360964787672,82.60201620442041,0.0
1674,-1.8277056528544282,-1.7710427888275349,82.33303059745104,0.0
1675,-2.2004444659867803,-2.1429075577526953,82.06453129541367,0.0
1676,-2.5794366455165076,-2.5362252824217624,81.79703060924493,0.0
1677,-2.9639839676090998,-2.9382282001459785,81.53102755961149,0.0
1678,-3.356282680750367,-3.338633949978039,81.26700813824803,0.0
1679,-3.7530759395150843,-3.730037596132262,81.00544562500926,0.0
1680,-4.143228308971914,-4.107648163693166,80.74680095664155,0.0
1681,-4.514396501578008,-4.469189309491621,80.49152314350297,0.0
1682,-4.861716251967602,-4.814919610655459,80.24004973070194,0.0
1683,-5.188828390908293,-5.1471359401631585,79.9928073003811,0.0
1684,-5.500642648165372,-5.468590422945913,79.7502120121411,0.0
1685,-5.796918601707178,-5.779854783031531,79.51267017887875,0.0
1686,-6.073692724334948,-6.07643066276421,79.28057887559822,0.0
1687,-6.328326095272707,-6.347016426865246,79.054326579049,0.0
1688,-6.5587314088570725,-6.574568822156978,78.8342938363393,0.0
1689,-6.756300334811933,-6.741339956713235,78.6208539609764,0.0
1690,-6.903721987532066,-6.8376328619100395,78.41437375508941,0.0
1691,-6.986535982284561,-6.871740176078038,78.21521425689724,0.0
1692,-7.011511503875834,-6.876315576513216,78.02373151279544,0.0
1693,-7.0150401519180345,-6.905692436233171,77.84027737374885,0.0
1694,-7.05312549330611,-7.020530841592212,77.66520031599485,0.0
1695,-7.178983430594011,-7.2607014484478825,77.49884628638405,0.0
1696,-7.41670049617197,-7.61325798449146,77.34155957301455,0.0
1697,-7.732043897398487,-7.987450186145287,77.19368370215072,0.0
1698,-8.00255648108881,-8.210326792078964,77.05556236276371,0.0
1699,-8.004799867836965,-8.052471574524715,76.92754036038812,0.0
1700,-7.447890794688181,-7.2835803197194355,76.80996460235978,0.0
1701,-6.066559353916839,-5.7446948041965005,76.70318511688839,0.0
1702,-3.746099699026435,-3.4134825089649086,76.6075561088275,0.0
1703,-0.6156810054445363,-0.436935616618058,76.52343705543731,0.0
1704,2.9513072544381433,2.884914516523062,76.45119384589658,0.0
1705,6.444229247604477,6.162986493373806,76.39119996881549,0.0
1706,9.380809370773747,9.011093580739084,76.34383775253409,0.0
1707,11.44864068371611,11.135481439481774,76.30949966357026,0.0
1708,12.560356080968326,12.393587069821288,76.2885896692106,0.0
1709,12.817813750009385,12.806586255268975,76.28152467092924,1.0
1710,12.430501890475366,12.527520008572779,76.34347052290532,0.0
1711,11.639844263028651,11.78075709010927,76.52521165690314,0.0
1712,10.668056972659388,10.794710198872611,76.82135729078014,0.0
1713,9.68114704505542,9.74778009594026,77.22738228266084,0.0
1714,8.761479749443563,8.74006220477688,77.73947303568895,0.0
1715,7.904208529504521,7.793805925559511,78.35439218916103,0.0
1716,7.047778321600344,6.8768832433911555,79.06935671384495,0.0
1717,6.123743024974615,5.937750240111097,79.88192497347671,0.0
1718,5.097298351257789,4.938822244690879,80.78988901318276,0.0
1719,3.98268416438676,3.877832989223516,81.79116885974722,0.0
1720,2.8375924873316625,2.792253404408631,82.88370602317585,0.0
1721,1.7463578411525358,1.7480284639690815,84.06535371898325,0.0
1722,0.7963461554253155,0.8186722029270135,85.33376162566537,0.0
1723,0.050904878742151105,0.06286438287485518,86.68625328933348,0.0
1724,-0.47159303811012565,-0.4921324347135543,88.1196946251132,0.0
1725,-0.8017486435118615,-0.8569781433984387,89.63035238216717,0.0
1726,-1.0047269124974725,-1.0763429334978198,91.21374197837682,0.0
1727,-1.156715373776565,-1.2174120965346273,92.86446481678345,0.0
1728,-1.324131473872634,-1.3549303558073098,94.57603611508797,0.0
1729,-1.5525621579925626,-1.5561959509193786,96.34070545619404,0.0
1730,-1.8657293584205479,-1.8676747300228405,98.14927373891717,0.0
1731,-2.2695268445785874,-2.303616774318689,99.99091199479886,0.0
1732,-2.752845247829224,-2.837275355764325,101.85298963326667,0.0
1733,-3.2785861898644018,-3.3969203273093207,103.72092203457288,0.0
1734,-3.768025550436103,-3.8704108749551147,105.5780499193876,0.0
1735,-4.093738669123585,-4.121763395744583,107.40556539856578,0.0
1736,-4.098078068337019,-4.01985277122043,109.18250176541953,0.0
1737,-3.6402573344693145,-3.473905360469784,110.8858055535542,0.0
1738,-2.6553659880988056,-2.465379679539666,112.49050967109379,0.0
1739,-1.1977403398743385,-1.0643005601447602,113.97002500241607,0.0
1740,0.5553073242780026,0.5781309720432035,115.29656421242487,0.0
1741,2.3471240306827448,2.260684469479876,116.44170517372181,0.0
1742,3.917305047533583,3.7778903140229754,117.37709228082439,0.0
1743,5.076006807276856,4.965462461932295,118.07526212049808,0.0
1744,5.744778231011391,5.730572566297088,118.51056624977112,0.0
1745,5.95250679162396,6.058518587376329,118.66014948811218,1.0
1746,5.798121156840613,5.996829679913945,118.60736184646426,0.0
1747,5.400171496125785,5.626238124843709,118.45218378819854,0.0
1748,4.851555771174311,5.031663587909076,118.19975426679488,0.0
1749,4.195851714095404,4.2841130212086345,117.85562786662234,0.0
1750,3.435970928551356,3.437642635719987,117.4256915019452,0.0
1751,2.5696340563611404,2.5376889065850534,116.91608260298572,0.0
1752,1.6276927390509752,1.6319706722550291,116.33311043106067,0.0
1753,0.6876962381271574,0.7751338052248744,115.68318189774703,0.0
1754,-0.1476371117043045,0.023003696646759053,114.97273298037972,0.0
1755,-0.793038391172743,-0.5811005377860823,114.20816654256659,0.0
1756,-1.2178324759446402,-1.0207329217389745,113.39579709619511,0.0
1757,-1.456797470384275,-1.3135348154580637,112.54180279033343,0.0
1758,-1.5911888955905567,-1.507059345236489,111.65218468950148,0.0
1759,-1.7131415416459292,-1.6644774556703843,110.73273321336224,0.0
1760,-1.8933059216949153,-1.8458919446176698,109.78900145394636,0.0
1761,-2.1653960993687384,-2.0923929085356865,108.82628496505667,0.0
1762,-2.528219016976811,-2.4181711671537887,107.84960752988931,0.0
1763,-2.95663704960336,-2.8123042598211154,106.86371235438094,0.0
1764,-3.4137587513657106,-3.2480889166042877,105.87305810181606,0.0
1765,-3.8628385405631165,-3.6954256548814133,104.88181917485268,0.0
1766,-4.279500420121304,-4.131345122522324,103.89388966029988,0.0
1767,-4.660091255777462,-4.545138735977826,102.9128903757533,0.0
1768,-5.018905223645866,-4.9370445076688325,101.94217849190663,0.0
1769,-5.373650340257454,-5.312063337532452,100.98485924672788,0.0
1770,-5.728882855009344,-5.672234185377086,100.04379931489224,0.0
1771,-6.070046418671479,-6.0109625838566725,99.12164144553944,0.0
1772,-6.372390309969278,-6.311880631741041,98.22082003167432,0.0
1773,-6.615607291763681,-6.552935688677686,97.34357732389111,0.0
1774,-6.790665731226548,-6.714733568611772,96.49198004849642,0.0
1775,-6.896528806374469,-6.7908971911216796,95.6679362347997,0.0
1776,-6.9376991044974385,-6.797187549410445,94.87321209788831,0.0
1777,-6.9312810632769795,-6.775331863289507,94.10944886139791,0.0
1778,-6.916568372239113,-6.787472491067625,93.37817943961987,0.0
1779,-6.951484623263855,-6.898819298724886,92.68084492989472,0.0
1780,-7.090146001564731,-7.149917256138064,92.0188108948822,0.0
1781,-7.35089723992821,-7.525179421374908,91.39338344032963,0.0
1782,-7.687146094276143,-7.928991203993826,90.80582511779537,0.0
1783,-7.967266744213954,-8.182221789402991,90.25737070390173,0.0
1784,-7.97037038095632,-8.048357291040784,89.74924292860793,0.0
1785,-7.414623313355156,-7.28935035050463,89.28266824527013,0.0
1786,-6.035210579034173,-5.7389253836981,88.85889275549594,0.0
1787,-3.701802643955205,-3.370373556312036,88.47919842265756,0.0
1788,-0.5223870043105285,-0.33265205602947034,88.14491973012039,0.0
1789,3.1361511782130522,3.06353012334381,87.85746096457035,0.0
1790,6.7415511964227495,6.410573361512604,87.61831433219311,0.0
1791,9.76632811314772,9.300880724746555,87.42907914692206,0.0
1792,11.852676635449308,11.423826078154686,87.29148236677172,0.0
1793,12.89678972502235,12.630960539590987,87.20740079788925,0.0
1794,13.025333877185654,12.950687002245674,87.17888533820486,1.0
1795,12.49608301700807,12.553100315950696,87.22485239897806,0.0
1796,11.587767093710239,11.682602649963508,87.35965880716297,0.0
1797,10.529565137035549,10.583772567126328,87.5790252846787,0.0
1798,9.475512709915048,9.443524855268972,87.8790863504001,0.0
1799,8.499884574783415,8.363109774392937,88.25631057702826,0.0
1800,7.6001233674570905,7.361886450687708,88.70742840166645,0.0
1801,6.716163702481353,6.405044561616437,89.229365698157,0.0
1802,5.773172624044184,5.441712852729761,89.81918163679863,0.0
1803,4.731719346975806,4.438954684637361,90.47400961647385,0.0
1804,3.6161725288819904,3.4007703760881305,91.19100027215495,0.0
1805,2.5059134586884353,2.36803077227323,91.9672657505979,0.0
1806,1.4990445276769377,1.4027408665199426,92.7998246197747,0.0
1807,0.6714230743198413,0.565290955664618,93.68554694253136,0.0
1808,0.05055691421257258,-0.1055288960463674,94.62109921009859,0.0
1809,-0.3872310510502861,-0.6029761540700638,95.60288900341779,0.0
1810,-0.6995059149341256,-0.9517039323208412,96.62700943584314,0.0
1811,-0.9520574946952287,-1.1991470297542004,97.68918363473146,0.0
1812,-1.198877259630517,-1.4041326918442758,98.78470974566184,0.0
1813,-1.4755206046376133,-1.6267812901885494,99.90840719394636,0.0
1814,-1.8036293570259758,-1.9206796136858784,101.05456521411548,0.0
1815,-2.198604442515556,-2.325448842757448,102.2168949569707,0.0
1816,-2.6730236728865404,-2.8571404083266447,103.38848680001608,0.0
1817,-3.2310371086237835,-3.4960484146612165,104.5617748108578,0.0
1818,-3.8511873247668937,-4.175495253544784,105.72851062977408,0.0
1819,-4.461479712056223,-4.778560317756234,106.87974932675547,0.0
1820,-4.922449124144617,-5.149973988421139,108.00585002351936,0.0
1821,-5.040438050337672,-5.126121682757747,109.09649422004792,0.0
1822,-4.621759506671074,-4.578326097249679,110.14072479076374,0.0
1823,-3.551755230204942,-3.4567337350971052,111.12700847701218,0.0
1824,-1.860843460358819,-1.8185359128960075,112.04332435933179,0.0
1825,0.259341680160713,0.17232760882651732,112.87728020848368,0.0
1826,2.502980421850129,2.2770495102103463,113.61625776152331,0.0
1827,4.541588851387971,4.2364200933580705,114.2475868377715,0.0
1828,6.119114879593033,5.830045696830068,114.75874681199768,0.0
1829,7.110373071070901,6.920956200325313,115.13759234052331,0.0
1830,7.52489966958129,7.472527365564347,115.37259846618015,0.0
1831,7.467153873147013,7.535648860081639,115.45311842086589,1.0
1832,7.0804288257891885,7.214840294357299,115.40187795127832,0.0
1833,6.497415633749982,6.628248441603977,115.25108272982528,0.0
1834,5.807558773603908,5.876251202912541,115.00547542845872,0.0
1835,5.046262092786992,5.027627191210295,114.67020848582385,0.0
1836,4.2098302005163735,4.123803821775885,114.25076680301459,0.0
1837,3.290695055359087,3.194173395177716,113.75289129392233,0.0
1838,2.3131979461493684,2.2718561287201897,113.18250484788595,0.0
1839,1.346646910128169,1.4008324320766705,112.54564203088859,0.0
1840,0.48628950572472585,0.630986209305338,111.84838360156485,0.0
1841,-0.18655564936710256,0.004335853627219333,111.09679666314025,0.0
1842,-0.641199932662424,-0.45981022777030356,110.29688102370588,0.0
1843,-0.9092921940860859,-0.7728973573615974,109.45452210433112,0.0
1844,-1.0659597616086371,-0.9743313365702477,108.57545052446798,0.0
1845,-1.194393229702122,-1.1192471118334473,107.66520831159893,0.0
1846,-1.3558820687280166,-1.2623410424658756,106.72912152966411,0.0
1847,-1.5788190004698905,-1.4442322999671415,105.77227899912957,0.0
1848,-1.8645294260144971,-1.6847473302394484,104.79951668975269,0.0
1849,-2.198898304529961,-1.9839864443805912,103.81540730312847,0.0
1850,-2.56197751865033,-2.328918575558126,102.82425452310791,0.0
1851,-2.9354443353497435,-2.7017605415525727,101.83009139483711,0.0
1852,-3.309397913180084,-3.0867265413397753,100.83668229392394,0.0
1853,-3.685132158216078,-3.47331501371968,99.84752796256961,0.0
1854,-4.0693023378698285,-3.8562163121971733,98.86587311604659,0.0
1855,-4.4626698082740095,-4.233276922720184,97.89471615760849,0.0
1856,-4.854284255288528,-4.603209427287355,96.9368205800869,0.0
1857,-5.227802580365705,-4.963999730174001,95.99472767577615,0.0
1858,-5.573102795037222,-5.311946993388959,95.07077022084374,0.0
1859,-5.889708180146565,-5.640805307343617,94.16708684493668,0.0
