,PPG_Raw,PPG_Clean,PPG_Rate,PPG_Peaks
0,-0.048709307854715826,-0.007011552510184916,115.41235874008176,0.0
1,-0.05222469483177371,-0.009882227949038553,115.41235874008176,0.0
2,-0.055568563823921946,-0.012643149121629022,115.41235874008176,0.0
3,-0.05861323747585131,-0.015203000567163463,115.41235874008176,0.0
4,-0.06127181028262526,-0.017505980191966874,115.41235874008176,0.0
5,-0.06351695296925775,-0.019539079176277178,115.41235874008176,0.0
6,-0.06539177391329845,-0.021329618513280323,115.41235874008176,0.0
7,-0.06700517381914281,-0.02293348148357999,115.41235874008176,0.0
8,-0.06850732261012775,-0.024416703287218088,115.41235874008176,0.0
9,-0.07004820356270784,-0.025834841311518267,115.41235874008176,0.0
10,-0.07173047634107686,-0.027215358914425367,115.41235874008176,0.0
11,-0.07357269139825692,-0.02854777948800346,115.41235874008176,0.0
12,-0.07549698164245833,-0.02978458343551689,115.41235874008176,0.0
13,-0.0773470808136209,-0.030853085036792193,115.41235874008176,0.0
14,-0.07893157410600354,-0.0316755159820419,115.41235874008176,0.0
15,-0.08007854654362775,-0.0321920756427462,115.41235874008176,0.0
16,-0.0806846226304201,-0.03238050286394345,115.41235874008176,0.0
17,-0.08074424169429127,-0.03226618091542728,115.41235874008176,0.0
18,-0.08035184284013319,-0.0319188700299411,115.41235874008176,0.0
19,-0.07967742638721785,-0.03143540799225923,115.41235874008176,0.0
20,-0.07892224643109236,-0.03091136479550766,115.41235874008176,0.0
21,-0.07826499397268248,-0.03040780994106694,115.41235874008176,0.0
22,-0.07780978284509037,-0.029921271136704883,115.41235874008176,0.0
23,-0.07754629872081649,-0.029365110835338208,115.41235874008176,0.0
24,-0.07733053116243496,-0.028568767287536517,115.41235874008176,0.0
25,-0.07689214624792276,-0.027297848637608056,115.41235874008176,0.0
26,-0.07587160215609798,-0.025293558886271356,115.41235874008176,0.0
27,-0.0738857433096693,-0.022325287783774836,115.41235874008176,0.0
28,-0.0706141689398875,-0.01824646135349441,115.41235874008176,0.0
29,-0.06589081889122154,-0.01304189704236865,115.41235874008176,0.0
30,-0.05977855297731556,-0.006855589022873974,115.41235874008176,0.0
31,-0.05260287214556751,8.822992670952726e-06,115.41235874008176,0.0
32,-0.044927475787937994,0.0071172229074300195,115.41235874008176,0.0
33,-0.03746917340655077,0.013959786755368426,115.41235874008176,0.0
34,-0.030968630060050333,0.02002154653868709,115.41235874008176,0.0
35,-0.026049244831222583,0.02485526859688502,115.41235874008176,0.0
36,-0.023102106121087835,0.028142591427811222,115.41235874008176,0.0
37,-0.022227491698540717,0.029732095649530506,115.41235874008176,1.0
38,-0.02324562201205061,0.029648300350034372,115.72396353470575,0.0
39,-0.025768281009090958,0.02807207457830822,116.03901073448245,0.0
40,-0.029306008419288456,0.025298912977958936,116.35752917280135,0.0
41,-0.03337804396539222,0.021685469782015493,116.67954816441329,0.0
42,-0.03759563888214596,0.017595846480978693,117.00509751236716,0.0
43,-0.04170158572572885,0.013357407863145989,117.33420751510234,0.0
44,-0.04556494891818876,0.009232153968921294,117.66690897369962,0.0
45,-0.04914415201899835,0.005405157763261277,118.00323319929466,0.0
46,-0.05243903758867834,0.0019875832127015406,118.3432120206571,0.0
47,-0.05545138188864095,-0.0009707293553055558,118.68687779193841,0.0
48,-0.05816535397828983,-0.003464813861438227,119.0342634005927,0.0
49,-0.06054893233521523,-0.005519037213444523,119.38540227547435,0.0
50,-0.0625690414317819,-0.0071753163062838465,119.7403283951151,0.0
51,-0.06420992832884971,-0.008485804609732023,120.099076296186,0.0
52,-0.06548601615899959,-0.009509062808694391,120.46168108214763,0.0
53,-0.06644499280404352,-0.010307850273177628,120.82817843209202,0.0
54,-0.06716153117264943,-0.010946670375713853,121.198604609782,0.0
55,-0.06772492459188129,-0.01148786976325477,121.57299647289122,0.0
56,-0.06822455390998337,-0.011986088773387669,121.95139148244972,0.0
57,-0.06873612136959102,-0.012481830754371979,122.33382771249993,0.0
58,-0.06931015004678971,-0.012995578616802814,122.72034385996734,0.0
59,-0.06996336841567109,-0.013524071882446776,123.11097925475138,0.0
60,-0.07067365890434214,-0.014040028991191212,123.50577387004105,0.0
61,-0.07137986027844474,-0.014495838368215646,123.90476833286068,0.0
62,-0.07198800017852017,-0.014830728834848567,124.30800393485129,0.0
63,-0.072384718664861,-0.014979920339208632,124.71552264329276,0.0
64,-0.0724566195283746,-0.014883537034938141,125.12736711237284,0.0
65,-0.07211178784480354,-0.014492895026527099,125.5435806947082,0.0
66,-0.07129791663024906,-0.013772311248247944,125.96420745312447,0.0
67,-0.07001129926768487,-0.012695798007608412,126.38929217270025,0.0
68,-0.06829254901970126,-0.011239675908961189,126.81888037308241,0.0
69,-0.0662079478391186,-0.009373825304200232,127.25301832107861,0.0
70,-0.0638194350154447,-0.0070554602230549525,127.69175304353404,0.0
71,-0.06115107686344944,-0.004229439998218558,128.13513234049887,0.0
72,-0.0581643404187212,-0.0008379343921513056,128.58320479869423,0.0
73,-0.05475619549039147,0.003160202488749103,129.0360198052833,0.0
74,-0.05079001103910339,0.0077632045532563445,129.49362756195518,0.0
75,-0.0461582405041368,0.0128992390638922,129.95607909932977,0.0
76,-0.040860918059545934,0.01840614163528599,130.4234262916909,0.0
77,-0.035071851922071844,0.02402570732175774,130.89572187205638,0.0
78,-0.029162553814689934,0.029417686315402737,131.37301944759338,0.0
79,-0.023665656131708082,0.034194163304844094,131.85537351538756,0.0
80,-0.019181020556936105,0.037969702046311025,132.342839478575,0.0
81,-0.016249550285243233,0.04041803374635633,132.83547366284657,0.0
82,-0.015232183216704097,0.041323592734160024,133.33333333333334,1.0
83,-0.016229882977968516,0.0406167089363054,133.85217536940237,0.0
84,-0.01906649947276137,0.038384721465132596,134.40660629447555,0.0
85,-0.023336455625385225,0.03485675809815707,134.9949444997872,0.0
86,-0.028500533404575295,0.030365912110992474,135.61548113195644,0.0
87,-0.034001045423445654,0.02529740750118798,136.26646968761165,0.0
88,-0.039365079320772274,0.02003382893707469,136.94611586618007,0.0
89,-0.044271126912900166,0.014908096258096326,137.65256767655967,0.0
90,-0.04856757268861202,0.010171920881797983,138.3839058052663,0.0
91,-0.052246759016435856,0.0059830114196083636,139.13813426567526,0.0
92,-0.05539073587811005,0.0024096440755266265,139.91317136021527,0.0
93,-0.05811055667776133,-0.0005523694765921239,140.70684099986215,0.0
94,-0.060498825575604875,-0.0029569960847308273,141.51686443801148,0.0
95,-0.06260682949319632,-0.0048859241585692504,142.34085248874436,0.0
96,-0.06444687557838051,-0.0064315313871996325,143.17629831254914,0.0
97,-0.0660117021107258,-0.007686519401447123,144.020570865595,0.0
98,-0.06729888491343676,-0.008739220665994508,144.87090912148042,0.0
99,-0.06832941279809403,-0.009671806343566304,145.72441718676282,0.0
100,-0.06915428692346794,-0.010558100827109571,146.5780604432194,0.0
101,-0.06984840181965504,-0.01145843484609318,147.4286628603255,0.0
102,-0.0704948055880666,-0.012410610320032264,148.27290563045793,0.0
103,-0.07116377651598617,-0.013418075035498592,149.10732728635162,0.0
104,-0.07189060613638522,-0.014438230537160297,149.92832546483436,0.0
105,-0.07265511663864231,-0.015374909980017722,150.7321604822636,0.0
106,-0.0733661489164164,-0.01607911174333594,151.51496088479107,0.0
107,-0.07385567840762812,-0.016360928578398194,152.27273112996974,0.0
108,-0.0738885023407547,-0.01601340167039778,153.00136154469632,0.0
109,-0.07319256201668893,-0.01484615756762451,153.6966406874868,0.0
110,-0.0715105748847279,-0.01272379060311325,154.3542702201283,0.0
111,-0.06866619852857235,-0.009601795218835982,154.96988236445955,0.0
112,-0.06462986286498547,-0.005552134833140927,155.53905998418577,0.0
113,-0.05956431501791028,-0.000771684173051213,156.057359289206,0.0
114,-0.05383117288540506,0.00443023358754506,156.52033511113322,0.0
115,-0.04794874045419979,0.009664743848034858,156.9235686440144,0.0
116,-0.04250608537832056,0.014511774480576028,157.26269748451435,0.0
117,-0.03805376044652366,0.018575312217194384,157.5334477421436,0.0
118,-0.03500108731250052,0.021535361774369592,157.73166792397643,0.0
119,-0.03354895545721919,0.023187179786301214,157.8533642315223,0.0
120,-0.033675360595608175,0.023461333642380837,157.89473684210526,1.0
121,-0.035172962752224216,0.02242246701375762,157.81944189395023,0.0
122,-0.037721125160594914,0.020249123771168113,157.59736014693522,0.0
123,-0.04096593848363056,0.017200413405420945,157.2347646064545,0.0
124,-0.04458366988667013,0.01357692900367857,156.73859871822657,0.0
125,-0.04831394657943232,0.009683006678005812,156.1163645124375,0.0
126,-0.05196307932061721,0.005795588353057018,155.37600994406463,0.0
127,-0.05538885280314367,0.0021424257171157785,154.52581797335574,0.0
128,-0.05848188955811837,-0.001110012853891778,153.57429962535454,0.0
129,-0.06115526016097755,-0.0038602027891272463,152.5300929162483,0.0
130,-0.0633464412793404,-0.00606875155970347,151.40186915887853,0.0
131,-0.06502813137495131,-0.007750997507084382,150.19824777982421,0.0
132,-0.06621995373988694,-0.00896644931178027,148.92772041302624,0.0
133,-0.06699287260140115,-0.009806072641078094,147.59858469357124,0.0
134,-0.06746152296115124,-0.010378286901952532,146.21888786996988,0.0
135,-0.06776475286092055,-0.010794696030079499,144.79638009049773,0.0
136,-0.06803933332871977,-0.011156874752253028,143.3384770021377,0.0
137,-0.06839430243627279,-0.01154571187000908,141.85223112982237,0.0
138,-0.06889307201467496,-0.012014662864076884,140.3443113772455,0.0
139,-0.06954767534774897,-0.012587711492598616,138.8209899050576,0.0
140,-0.0703256169550241,-0.01326197968180733,137.28813559322035,0.0
141,-0.0711661283436821,-0.014013985232323008,135.75121327646866,0.0
142,-0.07200028791082248,-0.014807804057064687,134.2152879497869,0.0
143,-0.0727688972604688,-0.015603074602836706,132.6850331692107,0.0
144,-0.073433207290512,-0.01636098828192281,131.1647429171039,0.0
145,-0.07397618928182378,-0.017047087166256858,129.65834625581513,0.0
146,-0.0743953030994015,-0.017630650981446474,128.16942415534768,0.0
147,-0.07469050495418605,-0.018081439991658912,126.70122794606752,0.0
148,-0.0748524292641824,-0.01836531653794139,125.25669891382339,0.0
149,-0.0748548180147957,-0.018440619553970646,123.83848862004555,0.0
150,-0.0746530172225445,-0.01825704979962172,122.44897959183675,0.0
151,-0.0741881331422408,-0.017758286514085266,121.09030608564748,0.0
152,-0.07339541504239304,-0.016888727260172823,119.7643746821069,0.0
153,-0.07221568115517467,-0.015603790534556808,118.4728845185558,0.0
154,-0.070609115818762,-0.01388231897954007,117.21734700965526,0.0
155,-0.06857033715531526,-0.01173892541664575,115.9991049451779,0.0
156,-0.06614199331788266,-0.009233756509321114,114.81935088793634,0.0
157,-0.06342239806017028,-0.006477183931488872,113.6791448240728,0.0
158,-0.06056267580404428,-0.0036273843894915545,112.57943104301367,0.0
159,-0.0577516380324388,-0.0008795888863971698,111.52105424569949,0.0
160,-0.05519132999983284,0.0015531269831613546,110.50477489768076,0.0
161,-0.05307018625756166,0.003466385881262907,109.5312838587736,0.0
162,-0.05154104277437611,0.004695938891319437,108.60121633362292,0.0
163,-0.05070688438400846,0.005150238106261524,107.715165198161,0.0
164,-0.05061053921330418,0.004839251352704859,106.87369376596511,0.0
165,-0.051220429954940715,0.003893831309900976,106.07734806629836,0.0
166,-0.05240720806671562,0.002569888294860957,105.326668712518,0.0
167,-0.05391584381489712,0.0012327024657568081,104.62220244589919,0.0
168,-0.055349504505046346,0.0003192620921510505,103.96451344607708,0.0
169,-0.05618744526839371,0.00028049253410219284,103.35419450557619,0.0
170,-0.055853159777393475,0.0015100664559998984,102.79187817258885,0.0
171,-0.053831163661466924,0.004271032186929927,102.27824797361222,0.0
172,-0.04980776605280749,0.008634337406372943,101.81404983609197,0.0
173,-0.04379362802149814,0.014443195408813909,101.40010384121747,0.0
174,-0.03618322006834156,0.02131355504959851,101.03731644887513,0.0
175,-0.027721942801710198,0.028674137858667275,100.72669335095016,0.0
176,-0.019380881102036705,0.0358410851953954,100.46935312620937,0.0
177,-0.012170412353031346,0.042114370103953885,100.26654189052567,0.0
178,-0.0069441890242872535,0.046877940528968584,100.11964916097264,0.0
179,-0.004246369199913079,0.049684555014439344,100.03022518223872,0.0
180,-0.00423820606104099,0.05030976306618584,100.0,1.0
181,-0.006713642841466547,0.04876652267665327,100.02317942227077,0.0
182,-0.011188270180941122,0.045280643958705,100.09154644455631,0.0
183,-0.017029892943698485,0.040235354740696935,100.203428748095,0.0
184,-0.02359462406272112,0.03409885773542746,100.35725470904306,0.0
185,-0.03033783735430198,0.027350654160617202,100.55153931345328,0.0
186,-0.03688036475783686,0.020420544793294044,100.7848710739468,0.0
187,-0.04302325288924349,0.013649441353499445,101.05589979383865,0.0
188,-0.04871674828907945,0.007274918943143576,101.36332504518577,0.0
189,-0.053999293296027935,0.001438492462309527,101.70588524516711,0.0
190,-0.05892837864894826,-0.0037926730851362417,102.0823472309086,0.0
191,-0.06352521531089259,-0.00839868055573353,102.4914962467869,0.0
192,-0.06774866783706299,-0.012382700200728163,102.93212627076181,0.0
193,-0.07150259304092837,-0.01575512166070861,103.4030306177258,0.0
194,-0.07466886198037202,-0.018527827475386754,103.90299276849989,0.0
195,-0.07715050047323976,-0.02071689368965644,104.43077738319047,0.0
196,-0.07890815864301266,-0.022349721995236074,104.98512146736479,0.0
197,-0.07997801867548698,-0.023471928549050516,105.5647256690863,0.0
198,-0.08046738620615497,-0.024150187545789865,106.16824569443763,0.0
199,-0.08053201440932461,-0.024469153990257515,106.7942838388845,0.0
200,-0.08034401350852992,-0.02452285116549986,107.44138064181462,0.0
201,-0.08006005671387353,-0.024402801740176453,108.1080066819158,0.0
202,-0.07979725007901711,-0.024186209442734637,108.79255454180128,0.0
203,-0.07962024598684453,-0.02392746277427911,109.49333098149374,0.0
204,-0.07953975787149795,-0.02365523375278638,110.20854937204747,0.0
205,-0.07952062698573589,-0.0233758098448779,110.9363224527004,0.0
206,-0.0794969781074805,-0.02308147465315938,111.6746554874357,0.0
207,-0.07939196408003169,-0.022761209045063548,112.42143990959052,0.0
208,-0.07913920590169891,-0.022410116158010005,113.17444755601198,0.0
209,-0.0787019474463546,-0.02203403985596911,113.93132560501759,0.0
210,-0.07808476093280917,-0.02164691470746683,114.68959234478446,0.0
211,-0.07733260151347823,-0.021260299888081757,115.44663391043318,0.0
212,-0.07651416587167335,-0.020866926675414142,116.19970213857307,0.0
213,-0.07569087674643048,-0.020422367237573808,116.9459136969637,0.0
214,-0.07487814517969676,-0.01983047544253929,117.68225065367723,0.0
215,-0.07400990927996039,-0.018938503137506727,118.40556265412171,0.0
216,-0.07291909705582814,-0.017546452051613794,119.11257087485943,0.0
217,-0.0713447577512328,-0.015432360626442595,119.7998739196516,0.0
218,-0.06897121844462663,-0.012391359261641931,120.46395581489806,0.0
219,-0.06549652603273563,-0.008282335476989897,121.10119624795689,0.0
220,-0.060718088368615995,-0.0030729889779090884,121.70788317211967,0.0
221,-0.054615183174948026,0.0031271145034517354,122.2802278757756,0.0
222,-0.04740401711786416,0.010054591655090886,122.81438258016334,0.0
223,-0.039544254007621564,0.017306782206503658,123.30646058990983,0.0
224,-0.031687307602644446,0.024382757227135135,123.7525589733768,0.0
225,-0.024573525949577325,0.030744913584238004,124.14878369604175,0.0
226,-0.018901720478085634,0.035890455453021476,124.49127707044887,0.0
227,-0.015203769453837352,0.039419568617033336,124.77624732175099,0.0
228,-0.013755607457343567,0.04108761810206178,125.0,1.0
229,-0.014544815753420655,0.04083213623676167,125.19125802097643,0.0
230,-0.01729883729890462,0.03877082654251138,125.38106971189877,0.0
231,-0.021562020843919637,0.03517287862527628,125.56932050317518,0.0
232,-0.026798468984944746,0.030411051675652907,125.75589469660672,0.0
233,-0.03249336744675526,0.024905041440868875,125.94067548986766,0.0
234,-0.03822874961079748,0.01906703655430607,126.12354500333797,0.0
235,-0.04371942836526239,0.013258283671251293,126.30438430933322,0.0
236,-0.048808129861121444,0.00776174268266721,126.4830734637734,0.0
237,-0.05343127663152657,0.0027716935966027477,126.65949154033171,0.0
238,-0.057574075466567606,-0.0016024015620654686,126.83351666710082,0.0
239,-0.061233278726153924,-0.005322589220263529,127.0050260658115,0.0
240,-0.06439904186972313,-0.008404893563439562,127.1738960936368,0.0
241,-0.06705720719988999,-0.01090180880704776,127.34000228761025,0.0
242,-0.0692045681465018,-0.012887321268155743,127.5032194116841,0.0
243,-0.07086558052397451,-0.014445209873622356,127.66342150645056,0.0
244,-0.07210050159913488,-0.01566016095184718,127.8204819415436,0.0
245,-0.07300040864461844,-0.01661080886688593,127.97427347073642,0.0
246,-0.07367088467223398,-0.017364080605062004,128.12466828974448,0.0
247,-0.07421051374984135,-0.017970844149068927,128.27153809673962,0.0
248,-0.07469140628475388,-0.018463429029563314,128.41475415557642,0.0
249,-0.07514726533092106,-0.018855781244249924,128.5541873617259,0.0
250,-0.07557150328643064,-0.019146700868255456,128.6897083109077,0.0
251,-0.07592503278659918,-0.01932586886674684,128.82118737040582,0.0
252,-0.07615125105805132,-0.019381447180069004,128.9484947530465,0.0
253,-0.07619439707627584,-0.01930726012035978,129.07150059381266,0.0
254,-0.07601671098273363,-0.01910724123896796,129.19007502906143,0.0
255,-0.07560977404654379,-0.01879515326137782,129.30408827830624,0.0
256,-0.07499639629100542,-0.018388584152321023,129.4134107285177,0.0
257,-0.07422155626682396,-0.017897724680766725,129.51791302089129,0.0
258,-0.07333370121786116,-0.017311112263148236,129.61746614002257,0.0
259,-0.07236030910926915,-0.016581954700520846,129.7119415054246,0.0
260,-0.07128333380325472,-0.015619396054928934,129.80121106531362,0.0
261,-0.07002093012785345,-0.014288830615680212,129.8851473925834,0.0
262,-0.06842188723416666,-0.012423986268499429,129.96362378288086,0.0
263,-0.06627826702781002,-0.00985112790948079,130.0365143546872,0.0
264,-0.06335905151884212,-0.0064227955864545345,130.10369415130359,0.0
265,-0.059462591498139525,-0.002055635568823714,130.16503924463044,0.0
266,-0.05447909227387011,0.003235151709653307,130.22042684062436,0.0
267,-0.04844854552174591,0.009312776466175515,130.26973538630745,0.0
268,-0.041597124190561476,0.015913963698523916,130.31284467819754,0.0
269,-0.034337779625110816,0.022665824957055762,130.3496359720206,0.0
270,-0.0272284743989428,0.029123783881536865,130.37999209355877,0.0
271,-0.020892292905794425,0.03482520961709119,130.40379755048107,0.0
272,-0.01591462460365504,0.03934962759528479,130.42093864499725,0.0
273,-0.012740401156537011,0.04237445826109632,130.43130358716743,0.0
274,-0.011596261921926941,0.04371578194548194,130.43478260869566,1.0
275,-0.012457363469892771,0.0433466232949594,130.41173703424772,0.0
276,-0.01506736720034266,0.04139001854400167,130.34380001103693,0.0
277,-0.019006002421758653,0.038089503878716,130.23283510986718,0.0
278,-0.023785710447822083,0.03376428992265548,130.08078142313647,0.0
279,-0.028951242886758488,0.028759109101133152,129.88964142812836,0.0
280,-0.034156219715923586,0.02339891091456892,129.66146914092607,0.0
281,-0.039198628364298604,0.01795631401519425,129.39835866194792,0.0
282,-0.04401057475692607,0.01263575613219223,129.10243320120424,0.0
283,-0.048611957553374406,0.007573801106268622,128.7758346581876,0.0
284,-0.05304832940296154,0.0028513214449080223,128.42071381812883,0.0
285,-0.05733638289630843,-0.001488781216646494,128.03922121345508,0.0
286,-0.061435220221049684,-0.005424658569577117,127.63349868689816,0.0
287,-0.0652501015161242,-0.00894396792865189,127.20567168101748,0.0
288,-0.06866252867851681,-0.012039486341203401,126.75784226807001,0.0
289,-0.07157151064488945,-0.014710884759307326,126.29208292429404,0.0
290,-0.07392881540946569,-0.016969703199140866,125.8104310438501,0.0
291,-0.07575573727873822,-0.018843919750875324,125.31488417992168,0.0
292,-0.0771373861236629,-0.020379160256594135,124.80739599383666,0.0
293,-0.07819877195645789,-0.021635137109158688,124.28987288750996,0.0
294,-0.07907204179551384,-0.022677708426053166,123.76417128999871,0.0
295,-0.07986519049761413,-0.023568406537248232,123.23209556544766,0.0
296,-0.08064029506217954,-0.024353998406800467,122.69539650712184,0.0
297,-0.08140546250406928,-0.0250585085142679,122.15577038049943,0.0
298,-0.08212063162143667,-0.02567933399028013,121.61485847745092,0.0
299,-0.08271393314192067,-0.026187967093991158,121.07424714327601,0.0
300,-0.0831029816015472,-0.026534803216485135,120.53546823872345,0.0
301,-0.08321471284861996,-0.026656850013343763,120.0,0.0
302,-0.08299848628741807,-0.02648697993298007,119.46926826110091,0.0
303,-0.0824298645909335,-0.025963598994672817,118.944648004496,0.0
304,-0.08150583385081359,-0.025040004386581074,118.42746520820923,0.0
305,-0.08023508120239532,-0.02369299001262786,117.91899895957934,0.0
306,-0.0786284998836991,-0.02193022251988976,117.42048380842537,0.0
307,-0.07669507150489009,-0.019795510867842852,116.93311233491953,0.0
308,-0.0744466740792632,-0.017370502078371493,116.45803791014929,0.0
309,-0.07191216404628721,-0.01477090216042774,115.9963776300979,0.0
310,-0.06915648407630369,-0.012135455135863601,115.54921540656207,0.0
311,-0.06629567655235563,-0.009606923372100572,115.11760520133737,0.0
312,-0.06349594425281001,-0.007306236686408613,114.70257439282362,0.0
313,-0.06094714392072132,-0.005303473870135043,114.30512726702554,0.0
314,-0.058809630892690194,-0.003591700869901083,113.92624862774909,0.0
315,-0.05714617572575923,-0.00207101082834515,113.5669075236225,0.0
316,-0.05586238977760818,-0.0005495906872463145,113.2280610924152,0.0
317,-0.0546832594442697,0.0012340844036429124,112.91065852599856,0.0
318,-0.05318589440374846,0.0035684301946440657,112.61564516221314,0.0
319,-0.050890500757525825,0.006711251019430868,112.34396671289876,0.0
320,-0.047389432479396136,0.010828275063629395,112.09657364043822,0.0
321,-0.04247725820821498,0.015941023617773283,111.87442569839813,0.0
322,-0.03624073544964833,0.021896669797550863,111.67849665526221,0.0
323,-0.029078649142673742,0.028368556008228234,111.5097792238939,0.0
324,-0.021643451777894288,0.03488957817594596,111.3692902232893,0.0
325,-0.014720905087161631,0.040913341694613255,111.25807600345931,0.0
326,-0.009081337522572397,0.04589175397667039,111.17721816898091,0.0
327,-0.005341097770716324,0.04935414437078681,111.12783964197598,0.0
328,-0.003865389558157718,0.05097293689237918,111.1111111111111,1.0
329,-0.004728806810037184,0.050604227128649225,111.11676677651525,0.0
330,-0.007733972396632377,0.048297350728787145,111.13354423556429,0.0
331,-0.012476337734867428,0.04427416338445423,111.16116393339328,0.0
332,-0.018436011620485353,0.03888467352323395,111.19935220658628,0.0
333,-0.025075046776046585,0.032549588990878245,111.24784074781591,0.0
334,-0.03192016163883456,0.025701568341681174,111.3063660913151,0.0
335,-0.038615954911686984,0.018735522141368637,111.37466911775242,0.0
336,-0.04494165171523242,0.011974837243949387,111.45249457720011,0.0
337,-0.05079385157946553,0.005655957994032875,111.53959062899717,0.0
338,-0.05614633219593954,-7.047306538105098e-05,111.6357083974138,0.0
339,-0.06100318986632131,-0.005126754091678214,111.74060154212192,0.0
340,-0.06536166117540257,-0.009489678495918578,111.85402584256879,0.0
341,-0.06919562472101934,-0.01317216918011568,111.97573879543796,0.0
342,-0.07246181748461547,-0.01620887016583913,112.10549922446502,0.0
343,-0.0751216846708018,-0.018647219265606904,112.24306690195333,0.0
344,-0.07716627224743042,-0.02054338451661463,112.3882021814101,0.0
345,-0.07863187717039485,-0.021961093654374736,112.54066564079565,0.0
346,-0.07959976397425611,-0.02297104325912523,112.70021773594533,0.0
347,-0.08018112628304959,-0.023649106650752007,112.866618463792,0.0
348,-0.08049471074611914,-0.024072587058169153,113.0396270350791,0.0
349,-0.08064636867285935,-0.024314837800160475,113.21900155631646,0.0
350,-0.08071700161022403,-0.024439342295550604,113.40449872079137,0.0
351,-0.0807600813291745,-0.024494645734945163,113.5958735085053,0.0
352,-0.08080529771821202,-0.024511370655329698,113.79287889496305,0.0
353,-0.08086322467644091,-0.024502057900339984,113.99526556879783,0.0
354,-0.08092754630177376,-0.024463911568081437,114.20278165826866,0.0
355,-0.08097485909401578,-0.02438382935217064,114.41517246672055,0.0
356,-0.08096505113102952,-0.02424447822653666,114.63218021715008,0.0
357,-0.08084590735696738,-0.024029736355079583,114.85354380606935,0.0
358,-0.08056343009064264,-0.023727689491321164,115.07899856691266,0.0
359,-0.08007551251785545,-0.02332967219535519,115.30827604327811,0.0
360,-0.07936319112126478,-0.022824658430196983,115.54110377234569,0.0
361,-0.07843276658708342,-0.02218958447826761,115.77720507885957,0.0
362,-0.07730449213726542,-0.02137770257901486,116.01629888010886,0.0
363,-0.07598857575634689,-0.02030841805074121,116.25809950238524,0.0
364,-0.07445507830603112,-0.01886277397074182,116.50231650943967,0.0
365,-0.07260876488650152,-0.01688840096521079,116.7486545435016,0.0
366,-0.07028127052889792,-0.01421616526906579,116.99681317946448,0.0
367,-0.06724992901987577,-0.010688102338241998,117.24648679287915,0.0
368,-0.06328525060684964,-0.006193068818604912,117.49736444243297,0.0
369,-0.05821901917235599,-0.0007037037464846657,117.74912976762567,0.0
370,-0.052015799309179926,0.005693369813876605,118.00146090238424,0.0
371,-0.044826321197986956,0.012782000516725268,118.25403040538649,0.0
372,-0.037004184539084224,0.020221322156812035,118.50650520788815,0.0
373,-0.029076946964116078,0.027572764813471956,118.75854657986918,0.0
374,-0.021675459634883702,0.034346440774098576,119.0098101153315,0.0
375,-0.01543673275275882,0.04005975035944579,119.25994573759436,0.0
376,-0.010902098391612316,0.04429814681044854,119.50859772543997,0.0
377,-0.008432681296032002,0.046767270577878696,119.75540476096614,0.0
378,-0.008159140322401675,0.047327313924865465,120.0,1.0
379,-0.00997447361222556,0.046004109967689596,120.25494577833119,0.0
380,-0.013569470556930035,0.042976171888884286,120.53239176697991,0.0
381,-0.018501540784201118,0.03854160203922448,120.83135031230943,0.0
382,-0.024280353242386372,0.03307235429276967,121.15083359970181,0.0
383,-0.03044971979997634,0.02696499606141437,121.4898497818391,0.0
384,-0.036646466811026006,0.02059662321218012,121.84739925128017,0.0
385,-0.04262442150254062,0.014292243278191445,122.22247105025049,0.0
386,-0.04824321576555032,0.008306531314937655,122.61403941319941,0.0
387,-0.053433086884571414,0.002819369203417286,123.02106044023834,0.0
388,-0.05815355799229079,-0.0020580894188533955,123.4424689020698,0.0
389,-0.06236319799537083,-0.006271370886634832,123.87717517946405,0.0
390,-0.06601032594254189,-0.009809018804103002,124.32406234274809,0.0
391,-0.06904411858756349,-0.012690431683572319,124.78198337914355,0.0
392,-0.0714367230060584,-0.014956623103336064,125.24975857812795,0.0
393,-0.07320323740243406,-0.016663844893070635,125.7261730872902,0.0
394,-0.07440887282442736,-0.01787917109716892,126.20997465340267,0.0
395,-0.07515953869873454,-0.01867702765848446,126.69987156561783,0.0
396,-0.07557995359169042,-0.019136053143004986,127.19453081980643,0.0
397,-0.07578850674656543,-0.019336209734324268,127.69257652505627,0.0
398,-0.07587845237003203,-0.019356377010189118,128.19258857522232,0.0
399,-0.07591105710062615,-0.019272575528716102,128.69310161012368,0.0
400,-0.07592048424461453,-0.019156537958291447,129.1926042924835,0.0
401,-0.0759254317516088,-0.019073814162411117,129.68953892796034,0.0
402,-0.07594074445025233,-0.01908027519906066,130.18230145657787,0.0
403,-0.07598351500800943,-0.019216019417272332,130.66924184446972,0.0
404,-0.07607124852620183,-0.019496371937250654,131.14866490506702,0.0
405,-0.07621273509180562,-0.0199008014210641,131.61883157860765,0.0
406,-0.0763941707453629,-0.02036187946889529,132.07796069808322,0.0
407,-0.0765636569951998,-0.020757500449908074,132.524231268404,0.0
408,-0.07661720746984435,-0.020910072727362818,132.95578528360016,0.0
409,-0.07638971476119882,-0.020595977497901173,133.37073110423555,0.0
410,-0.07565536132664974,-0.019567131400966387,133.76714741384947,0.0
411,-0.07414302583814182,-0.017584090788700185,134.1430877691205,0.0
412,-0.07157166832196045,-0.014457189219220103,134.49658575354553,0.0
413,-0.06770668202042986,-0.010089354525959313,134.82566073873414,0.0
414,-0.06243037773509788,-0.004512304946123516,135.1283242509408,0.0
415,-0.0558103138957789,0.002092479321322057,135.40258693322255,0.0
416,-0.04814264640485304,0.009394828707657323,135.6464660856625,0.0
417,-0.03994886565234672,0.01694202840208093,135.85799375751762,0.0
418,-0.03191532447490372,0.024207955030381853,136.03522535602332,0.0
419,-0.024783145098705203,0.03065790751638229,136.1762487270462,0.0
420,-0.019214367161220193,0.03581789886447833,136.27919365296867,0.0
421,-0.015670414003167068,0.039335690114002,136.34224170328966,0.0
422,-0.0143362565051115,0.041022346403347225,136.36363636363637,1.0
423,-0.015109131828357832,0.040867270685189555,136.3216362848504,0.0
424,-0.01765049708544899,0.03902543869678028,136.19764352352996,0.0
425,-0.02148178821336108,0.03578138483265726,135.99487530013496,0.0
426,-0.02609423206929966,0.03149886301371246,135.7167941368626,0.0
427,-0.031042567479117083,0.026567000758452065,135.36707078411825,0.0
428,-0.03600100983499783,0.021352914485372743,134.94954723708796,0.0
429,-0.04077389496953784,0.016167687253361734,134.46820039729695,0.0
430,-0.04526853655223506,0.011248422372424436,133.92710687333684,0.0
431,-0.04944888834418715,0.006755056918678473,133.33040934785103,0.0
432,-0.053291810211377265,0.002777803162568736,132.68228486718579,0.0
433,-0.056762345016358906,-0.0006499809510020112,131.98691533842504,0.0
434,-0.05981338072471959,-0.003538085322129832,131.24846044811704,0.0
435,-0.062403698759935934,-0.005927788636920986,130.4710331497932,0.0
436,-0.06452161345907445,-0.007883111762215981,129.6586778049176,0.0
437,-0.06620133536843834,-0.009484243385538405,128.8153510053404,0.0
438,-0.06752456956868721,-0.01082163285879714,127.94490505543052,0.0
439,-0.068607224876426,-0.011989374880969446,127.05107404926916,0.0
440,-0.06957689569022782,-0.01307728035414062,126.13746244271472,0.0
441,-0.0705489763437313,-0.014162028296005474,125.20753599167567,0.0
442,-0.07160792729965972,-0.015298629042453025,124.26461490621344,0.0
443,-0.07279687701559193,-0.016513835698531282,123.3118690546503,0.0
444,-0.07411539102676779,-0.017803031886037293,122.35231504207763,0.0
445,-0.07552331656582086,-0.01913156601310964,121.3888149828798,0.0
446,-0.07694849791868134,-0.020440658312964814,120.42407678641347,0.0
447,-0.07829717588340014,-0.02165707631576962,119.4606557781123,0.0
448,-0.07946680721159105,-0.02270495249610564,118.50095748435345,0.0
449,-0.08036090991468478,-0.02351757378811765,117.54724141779363,0.0
450,-0.08090433357206259,-0.024046835926919034,116.60162570998526,0.0
451,-0.08105597379322863,-0.02426839844398658,115.66609244940395,0.0
452,-0.08081550579981554,-0.024181390194782337,114.74249359511417,0.0
453,-0.0802216830563892,-0.023802690667462205,113.83255734878666,0.0
454,-0.0793417460711299,-0.023157134378837055,112.93789488035044,0.0
455,-0.07825371212298109,-0.022266160278488746,112.06000731495489,0.0
456,-0.07702514234621348,-0.021138137030937885,111.20029290094082,0.0
457,-0.0756931664797847,-0.01976357246927979,110.36005429002279,0.0
458,-0.07425104112497889,-0.01811752884349781,109.54050587176609,0.0
459,-0.07264619096042184,-0.01616988066708181,108.74278111463653,0.0
460,-0.07079318213601955,-0.013901862365795449,107.9679398753746,0.0
461,-0.06860196355570333,-0.011325154214395066,107.21697564719165,0.0
462,-0.06601691753035512,-0.008498156319521614,106.49082272532358,0.0
463,-0.06305674392225141,-0.005533677399058986,105.79036327583279,0.0
464,-0.05984122524987476,-0.002593383040514639,105.11643430027966,0.0
465,-0.056591287923155764,0.00013299601281625915,104.46983449503746,0.0
466,-0.05359505994841817,0.002461950528436484,103.851331009675,0.0
467,-0.05114353805142047,0.004258242664412127,103.26166611404669,0.0
468,-0.04945084924282903,0.005475815227131783,102.70156378859024,0.0
469,-0.0485809501582434,0.006187284369802066,102.17173625691997,0.0
470,-0.04840209915925509,0.0065927875994066494,101.67289048420356,0.0
471,-0.04858342885018311,0.007002469515444344,101.20573466911314,0.0
472,-0.04863798917938372,0.007792265282103587,100.77098476144135,0.0
473,-0.04800713558173909,0.009338759054697754,100.36937104186747,0.0
474,-0.04617324940950421,0.011944337996384823,100.00164480495697,0.0
475,-0.04278086087160498,0.01576725805939544,99.66858519138958,0.0
476,-0.0377404345309683,0.0207715874423704,99.37100622076628,0.0
477,-0.031287153125641,0.02670895400639924,99.10976408227845,0.0
478,-0.023973102938724258,0.03313805450943028,98.88576474719285,0.0
479,-0.016586811999473247,0.03948021210377457,98.69997197468865,0.0
480,-0.010015021147369909,0.04510163244159255,98.55341579128664,0.0
481,-0.0050794709872423955,0.04940723169534698,98.44720153416999,0.0
482,-0.0023886675331372836,0.05192841135314564,98.38251956039994,0.0
483,-0.0022387378529664975,0.052388550644277505,98.36065573770492,1.0
484,-0.0045823322806666025,0.050734914323199,98.37013521126595,0.0
485,-0.009066550648176986,0.04713289397290443,98.3981190360464,0.0
486,-0.01512539993291828,0.04192625173152066,98.44393981276076,0.0
487,-0.022101976317899744,0.03557350329578794,98.50694749049296,0.0
488,-0.029371264689153142,0.028574362461867987,98.58650700574039,0.0
489,-0.036436532311054974,0.02140061380211897,98.68199604441634,0.0
490,-0.042980682123602176,0.014443083181815801,98.79280291585485,0.0
491,-0.04886709212926543,0.00798148469428789,98.91832452919783,0.0
492,-0.054098817992928025,0.0021782316107515926,99.0579644637677,0.0
493,-0.05875583145823588,-0.0029077505566978117,99.21113112615691,0.0
494,-0.06293339311870376,-0.007294475587183928,99.37723598780973,0.0
495,-0.06669982484212296,-0.011045932776014386,99.55569189784715,0.0
496,-0.07008146939540924,-0.0142439809903483,99.74591146679799,0.0
497,-0.07307132541797756,-0.01696789625351685,99.94730551776209,0.0
498,-0.07565031110551312,-0.01928337477845356,100.15928160234785,0.0
499,-0.07780858044540924,-0.021240137693406335,100.38124257950581,0.0
500,-0.07955807897391458,-0.022875531707363814,100.61258525612644,0.0
501,-0.080933827124826,-0.024220856857703203,100.85269908898668,0.0
502,-0.08198702776006224,-0.025307431879344644,101.1009649483233,0.0
503,-0.08277569483034382,-0.02617029152304414,101.35675394397838,0.0
504,-0.08335752471075603,-0.026848526797557896,101.61942631571071,0.0
505,-0.08378644483147407,-0.027382337744200663,101.88833038989266,0.0
506,-0.08411099334817221,-0.027807699848386668,102.16280160541693,0.0
507,-0.08437142394828827,-0.028150080514620784,102.44216161222053,0.0
508,-0.08459375970926539,-0.02841886380261194,102.72571744639252,0.0
509,-0.08478187956549249,-0.028604047422439133,103.0127607863622,0.0
510,-0.08491125027428872,-0.028676373877617428,103.3025672951678,0.0
511,-0.08492859848244066,-0.028591388706714925,103.59439605427026,0.0
512,-0.08476017718351511,-0.028297082994406583,103.88748909480563,0.0
513,-0.08432794709411506,-0.02774393709597055,104.18107103254843,0.0
514,-0.08356939200846232,-0.026895531627259498,104.4743488131892,0.0
515,-0.08245454940577011,-0.025737598446866464,104.7665115747973,0.0
516,-0.08099444661954754,-0.02428353348156371,105.05673063454266,0.0
517,-0.07923845679968906,-0.02257495603560407,105.34415960687554,0.0
518,-0.0772624712656272,-0.020676746393025764,105.62793466040604,0.0
519,-0.07515279254540028,-0.01866694578197029,105.90717492067174,0.0
520,-0.07299072395124293,-0.016622792684994368,106.18098302582773,0.0
521,-0.0708404353580787,-0.014604883324388926,106.4484458420272,0.0
522,-0.06873990974627271,-0.012641925579494548,106.70863534487172,0.0
523,-0.0666936214651107,-0.01071877670401953,106.96060967279642,0.0
524,-0.06466646188217412,-0.008770379951723086,107.20341435760054,0.0
525,-0.06258011287471565,-0.006683783122169315,107.43608373653926,0.0
526,-0.06031415233665559,-0.0043095668419351205,107.65764254944945,0.0
527,-0.057714259469566695,-0.0014827080883180882,107.8671077232849,0.0
528,-0.054609474652089776,0.0019487695947113977,108.06349034519152,0.0
529,-0.05083980805232485,0.00609083792964161,108.24579782385011,0.0
530,-0.046293860247021736,0.0109713049457764,108.41303623726778,0.0
531,-0.04095253757292563,0.016514540825198175,108.56421286350795,0.0
532,-0.03492975239627774,0.02252907244036746,108.6983388890262,0.0
533,-0.028496657865041835,0.02871258265833969,108.81443228733768,0.0
534,-0.022075954187435794,0.03467609566244778,108.91152085869737,0.0
535,-0.01619906878242522,0.039985487849401424,108.98864541934888,0.0
536,-0.011430029655230222,0.04421469647029974,109.04486312671301,0.0
537,-0.008271127129546066,0.047002037306298185,109.07925092467406,0.0
538,-0.0070722784433596975,0.04809973118498771,109.09090909090908,1.0
539,-0.007966077068801826,0.04740756305171672,109.06822437297645,0.0
540,-0.010844429838485319,0.04498450513426889,109.00099791768554,0.0
541,-0.015382625007300525,0.04103651216069411,108.89054866151966,0.0
542,-0.021105106947664678,0.0358835062342516,108.73829046860769,0.0
543,-0.027476767501669323,0.029912631660778996,108.54572163527082,0.0
544,-0.03399702953174433,0.023527178270113094,108.31441428890236,0.0
545,-0.040273725048370984,0.017100614145924807,108.04600379562832,0.0
546,-0.04606032026756521,0.010943022714233176,107.74217828346632,0.0
547,-0.05125154508454776,0.005283583412437436,107.4046683787364,0.0
548,-0.05584519642379519,0.00026863454195593696,107.03523724357943,0.0
549,-0.059887528216009366,-0.004028557917414747,106.63567099189463,0.0
550,-0.06342291393088452,-0.007592069677307694,106.20776955009919,0.0
551,-0.06646431363083367,-0.010447342082472666,105.7533380180954,0.0
552,-0.06899131594453398,-0.012648990693588382,105.27417857494022,0.0
553,-0.07097128348296373,-0.014273793354367105,104.7720829631508,0.0
554,-0.07239099871429078,-0.01541759742543471,104.24882557552127,0.0
555,-0.07328403346604011,-0.01619305886821426,103.70615715891165,0.0
556,-0.07374273424590727,-0.016724648577617695,103.14579914080556,0.0
557,-0.0739106169857417,-0.017138309137571736,102.56943857660136,0.0
558,-0.07395769834041756,-0.017545171984589644,101.97872370864313,0.0
559,-0.07404547513363371,-0.01802122034013962,101.37526012194566,0.0
560,-0.07428943564695215,-0.01858698080941424,100.7606074764111,0.0
561,-0.07472625439452424,-0.01919260495589477,100.13627679106288,0.0
562,-0.07529170080029446,-0.019713641776766662,99.50372825239361,0.0
563,-0.07581456116069332,-0.019961285175970345,98.86436951628968,0.0
564,-0.07603114130861546,-0.01970811925459143,98.21955447110147,0.0
565,-0.0756230340962152,-0.018726898567277873,97.57058242820248,0.0
566,-0.0742767887124589,-0.016836444119848203,96.91869770576074,0.0
567,-0.07175789453852971,-0.013946162599136589,96.26508957135516,0.0
568,-0.06798451553712585,-0.010089771990085095,95.61089250944033,0.0
569,-0.06308138782871886,-0.0054400056448864155,94.95718678042438,0.0
570,-0.05739438371534363,-0.0002993489574748334,94.30499923921205,0.0
571,-0.05145358883968657,0.004933347387114047,93.65530438241444,0.0
572,-0.04588675332065707,0.009815308311678147,93.00902559498351,0.0
573,-0.041301510051370234,0.013921907736900808,92.36703656873922,0.0
574,-0.038167196814807916,0.016906649219208387,91.73016286707573,0.0
575,-0.036729452458649434,0.018547744445948484,91.09918361201738,0.0
576,-0.036980900442091354,0.018773041211003236,90.47483327171152,0.0
577,-0.03869259821984911,0.017659935289765324,89.8578035283621,0.0
578,-0.04149108684422082,0.015412281976204392,89.24874520850136,0.0
579,-0.04495294311878016,0.012320799550328707,88.6482702593446,0.0
580,-0.04868745348264862,0.00871598141163691,88.05695375675933,0.0
581,-0.0523876322558855,0.004922707792053419,87.47533593209351,0.0
582,-0.05584485000366764,0.001223873514235381,86.90392420673612,0.0
583,-0.058935788515285276,-0.002162761217750573,86.34319522482261,0.0
584,-0.06159716366014709,-0.005093640104985078,85.79359687594483,0.0
585,-0.06380244821254732,-0.00749629287755302,85.25555030107554,0.0
586,-0.06554821654544483,-0.009357600662735893,84.72945187617496,0.0
587,-0.0668500689369825,-0.01070756173097107,84.21567516911051,0.0
588,-0.06774310394597635,-0.011602337039905361,83.71457286659688,0.0
589,-0.06828108732891922,-0.012109503719419507,83.22647866885305,0.0
590,-0.06853096489760094,-0.01229740855939328,82.75170915058285,0.0
591,-0.06856307943236158,-0.01222948857812127,82.29056558772277,0.0
592,-0.06844036660254113,-0.011963475392811004,81.84333575016748,0.0
593,-0.06821081200796192,-0.011554521424386394,81.41029566139187,0.0
594,-0.06790643965792058,-0.011060493583448943,80.99171132653956,0.0
595,-0.06754965513300275,-0.01054706321651418,80.58784043115388,0.0
596,-0.06716481112559183,-0.010089946727126556,80.19893401329131,0.0
597,-0.06679039591213111,-0.009771911934725496,79.82523811228944,0.0
598,-0.06648610257750472,-0.009673091641629526,79.46699539796774,0.0
599,-0.06632968361011837,-0.009854718199844546,79.12444678452637,0.0
600,-0.06640089924919185,-0.010338385555651048,78.79783303388706,0.0
601,-0.06675352829518345,-0.011084932027573293,78.48739635369184,0.0
602,-0.06738052614847287,-0.011978465800388407,78.19338199565603,0.0
603,-0.06818106674555696,-0.012821382244843804,77.91603986046283,0.0
604,-0.06894044618779001,-0.013345077506326346,77.6556261158996,0.0
605,-0.06933372550601116,-0.013238401353529376,77.41240483547985,0.0
606,-0.06896076242598344,-0.0121920847067576,77.18664966537744,0.0
607,-0.0674136016580949,-0.009953197041344055,76.97864552813256,0.0
608,-0.06436769738385349,-0.006380174569877991,76.78869037228277,0.0
609,-0.05967824701837453,-0.001487165082984244,76.61709697783964,0.0
610,-0.05345567044418375,0.004532882284075701,76.46419482838442,0.0
611,-0.04609411907968737,0.011313611939556175,76.3303320615112,0.0
612,-0.038236303015256226,0.01835091133593601,76.21587751041953,0.0
613,-0.030675452026775688,0.02506421320797107,76.1212228506687,0.0
614,-0.02421515062992392,0.03087314467292513,76.04678486747555,0.0
615,-0.01952233923314899,0.035275689682667304,75.99300786049258,0.0
616,-0.017011903576789136,0.037913652627223286,75.96036620476846,0.0
617,-0.01679158349445604,0.038614098456390814,75.94936708860759,1.0
618,-0.018677146227887357,0.0374008078080615,75.99372080047301,0.0
619,-0.022266845365863375,0.03447616700556082,76.12447366061093,0.0
620,-0.027048319281340195,0.030179643673299533,76.3385679590711,0.0
621,-0.03250508695448024,0.02493270967957547,76.63342826520318,0.0
622,-0.03819478398573009,0.019181084898427764,77.0068977302575,0.0
623,-0.04378472454263389,0.013343642352173684,77.45718220613232,0.0
624,-0.04904712320613316,0.007774086836066442,77.98280045656075,0.0
625,-0.05383014080549263,0.0027377839121858383,78.5825390076266,0.0
626,-0.05802660950589057,-0.0015970284400499092,79.25541039064247,0.0
627,-0.061557892435340815,-0.005156307762690953,80.00061368652453,0.0
628,-0.06437846339133861,-0.00794878236667779,80.81749639790787,0.0
629,-0.06649368201681774,-0.01004890487049414,81.70551676204312,0.0
630,-0.0679755144702391,-0.01157640060043788,82.66420568102683,0.0
631,-0.06896203528388133,-0.01267420540102655,83.69312749209523,0.0
632,-0.06963504474601889,-0.013486613192355357,84.7918388348759,0.0
633,-0.07018108124986248,-0.014139782119526576,85.95984489971822,0.0
634,-0.0707489916605051,-0.014726999416923485,87.19655236666458,0.0
635,-0.07141877922592856,-0.015300884141550189,88.50121837380436,0.0
636,-0.07219177785945569,-0.015873809216421664,89.87289489283566,0.0
637,-0.07300405969910839,-0.016426339599562263,91.31036794568558,0.0
638,-0.07375703195458853,-0.016921765993260222,92.8120911771175,0.0
639,-0.07435428859472808,-0.017323346000494587,94.37611341371027,0.0
640,-0.07473313163015141,-0.0176100831770357,96.0,0.0
641,-0.07488226099422819,-0.0177870255942938,97.68074791965779,0.0
642,-0.07484231561217426,-0.017887142295457396,99.41469499590096,0.0
643,-0.07469119180561744,-0.017963602039629926,101.19742383369699,0.0
644,-0.0745196501373761,-0.01807335596706866,103.02366162875947,0.0
645,-0.0744038347126258,-0.018254902851959402,104.88717753464414,0.0
646,-0.07438026919105141,-0.018504635959894027,106.78067995489006,0.0
647,-0.07442675558851708,-0.018756979034538143,108.69571691050568,0.0
648,-0.07445063855086989,-0.01887346823158731,110.62258351207987,0.0
649,-0.07428499680772004,-0.01864497476049136,112.55024151386718,0.0
650,-0.07369378096606805,-0.017809427191076692,114.46625689914701,0.0
651,-0.07238832282967508,-0.016084827839356455,116.35676237412295,0.0
652,-0.07005876620260548,-0.013214352999884256,118.20645243818419,0.0
653,-0.06642298048126691,-0.009017342463183017,119.99861923179972,0.0
654,-0.06129094764171178,-0.003437633182577458,121.7152374966029,0.0
655,-0.05463481345940136,0.0034203556086424298,123.33710655696159,0.0
656,-0.04664676543132308,0.01127657507037378,124.8440560893585,0.0
657,-0.037763334000546475,0.019687259442505534,126.21522044699711,0.0
658,-0.028639322569048706,0.02808508418702755,127.42938336341513,0.0
659,-0.020067377660761655,0.03584328799195557,128.46539096402716,0.0
660,-0.012855898815202691,0.042354220417826265,129.30262627693912,0.0
661,-0.0076920106632640175,0.0471091609921174,129.92153310327765,0.0
662,-0.005022294031506063,0.049765311450574716,130.3041715826882,0.0
663,-0.0049800406514468,0.0501879885133631,130.43478260869566,1.0
664,-0.007375744168582796,0.04846084526567113,130.3913305901487,0.0
665,-0.011751318110944407,0.04486331492764012,130.26270327028473,0.0
666,-0.01748261514364667,0.03982087260015446,130.05172937587653,0.0
667,-0.023903268438223213,0.0338386249637538,129.7615238229598,0.0
668,-0.030418823838671966,0.0274310690795775,129.39545167000006,0.0
669,-0.036585058505498494,0.0210602323617694,128.95709133325812,0.0
670,-0.04213706934955009,0.015091230287328086,128.4501976826341,0.0
671,-0.04697187888734412,0.009769595574135476,127.87866558985041,0.0
672,-0.05110091340144386,0.005219862145954138,127.24649444390906,0.0
673,-0.054594710176215235,0.001461024425596114,126.55775408422184,0.0
674,-0.05753906511860431,-0.0015676210206175805,125.81655253251758,0.0
675,-0.060012153917544914,-0.003976969689417619,125.02700583325998,0.0
676,-0.062081129954870536,-0.005900395123510246,124.19321024128244,0.0
677,-0.06380928080952566,-0.007471247775664219,123.31921692674821,0.0
678,-0.06526339833078877,-0.008806924297312752,122.4090093030847,0.0
679,-0.06651468660300511,-0.009999310214987487,121.46648302454014,0.0
680,-0.06763221360368891,-0.011110572404545065,120.49542864740319,0.0
681,-0.06867236968860607,-0.012173101067263353,119.49951690328633,0.0
682,-0.06966931910539077,-0.01319261331471564,118.48228649445167,0.0
683,-0.07063028121652176,-0.014153731704490807,117.44713428992331,0.0
684,-0.0715371234820108,-0.015027515753584759,116.39730777683005,0.0
685,-0.07235364705019628,-0.015780358695494656,115.33589960361356,0.0
686,-0.07303675646583982,-0.01638340225194454,114.26584403986422,0.0
687,-0.07354928617449492,-0.01682129670875922,113.18991517094997,0.0
688,-0.07387218025496194,-0.0170989055163964,112.11072664359861,0.0
689,-0.07401375283132368,-0.017244568361311986,111.03073278046571,0.0
690,-0.0740139709579148,-0.017308879579022364,109.95223088678378,0.0
691,-0.07394229628107557,-0.017358609836529586,108.87736457978563,0.0
692,-0.07388865897906305,-0.017466305984329605,107.808127981121,0.0
693,-0.07394844226765558,-0.017697075552176582,106.74637062339882,0.0
694,-0.07420363335932692,-0.018094879724061243,105.69380293380526,0.0
695,-0.07470333880791089,-0.018671101419465406,104.65200217006391,0.0
696,-0.07544759051826552,-0.01939805437874944,103.62241869646866,0.0
697,-0.0763786339951971,-0.02020938726428396,102.60638250005535,0.0
698,-0.0773832949678916,-0.02100808244511039,101.60510985895706,0.0
699,-0.07830812169530378,-0.02168116539885428,100.61971008644173,0.0
700,-0.07898584322050284,-0.022118656903677043,99.65119228493283,0.0
701,-0.07926813614340363,-0.022233096631493865,98.70047205438213,0.0
702,-0.07905712986383609,-0.021975482486001258,97.76837810864335,0.0
703,-0.07832760661132827,-0.02134390726444909,96.85565876196944,0.0
704,-0.0771337152113081,-0.0203825274364655,95.96298825541923,0.0
705,-0.07559763573720238,-0.019170533201408574,95.09097289983346,0.0
706,-0.07388201404112635,-0.01780307893051581,94.24015701815618,0.0
707,-0.07215206529474394,-0.016368154201376554,93.41102867527606,0.0
708,-0.07053603937584269,-0.014924627769908234,92.60402518829486,0.0
709,-0.06909353658847914,-0.01348682775125662,91.81953841424784,0.0
710,-0.06779977101314398,-0.012019919537744863,91.05791981586174,0.0
711,-0.06655064433144635,-0.010448176573086335,90.3194853089938,0.0
712,-0.06518898801933157,-0.008675429255420456,89.6045198980089,0.0
713,-0.06354718125918958,-0.006614111711249422,88.91328210757409,0.0
714,-0.061496524778665795,-0.004217030828276013,88.24600822123345,0.0
715,-0.05899087026509051,-0.0015047804656548938,87.60291633872174,0.0
716,-0.05609282430501495,0.0014180790573463126,86.98421026532925,0.0
717,-0.052975835803055774,0.0043633364644937896,86.39008324778796,0.0
718,-0.04990273380273121,0.00707840763206119,85.82072157215086,0.0
719,-0.04718717450299448,0.009283533651307935,85.27630804002382,0.0
720,-0.045146022275020015,0.010722196122384802,84.7570253403164,0.0
721,-0.04404805408968378,0.011216835284616611,84.26305933444284,0.0
722,-0.04406098609274993,0.010719769577353856,83.79460227365833,0.0
723,-0.045198920561609866,0.009348568912836,83.35185596799289,0.0
724,-0.04727743592646052,0.007396421309146308,82.93503492707632,0.0
725,-0.04989081734167054,0.005311408133051046,82.54436949406639,0.0
726,-0.05242962938551113,0.0036438320359909915,82.18010899493069,0.0
727,-0.05415208484012531,0.0029670827695696183,81.84252492652523,0.0
728,-0.05430861236305209,0.0037837462235601627,81.5319142082949,0.0
729,-0.052299693353779896,0.006433245541325587,81.2486025240366,0.0
730,-0.04782980859244673,0.011018844530289586,80.99294778205073,0.0
731,-0.041013096182682875,0.01736951526231195,80.7653437242209,0.0
732,-0.032394191431719205,0.02504609588937715,80.56622371714938,0.0
733,-0.0228702221163899,0.033392522078441275,80.39606476151152,0.0
734,-0.013529985673169294,0.041623705915732244,80.2553917593431,0.0
735,-0.0054524286751796965,0.04893413510733967,80.14478208313174,0.0
736,0.00048202553390024944,0.05460734899411262,80.0648704954476,0.0
737,0.0037213084129209366,0.058107024288631605,80.01635447354093,0.0
738,0.0040888973147145714,0.05913515510861981,80.0,1.0
739,0.0017511714756652586,0.05765033712651841,80.04000599781595,0.0
740,-0.0028716011383679296,0.05384745135891514,80.15795390806345,0.0
741,-0.00921816827127101,0.048107084742053635,80.351051665193,0.0
742,-0.01669310253695117,0.040927374561556464,80.61688016305125,0.0
743,-0.024747475054080353,0.032852043000063724,80.95334323150347,0.0
744,-0.03292563273240394,0.024406502076111492,81.35862310268938,0.0
745,-0.04088071491449266,0.016050016343682354,81.83114020251742,0.0
746,-0.048367665536020045,0.008147258207977754,82.36951627885452,0.0
747,-0.05522405345650034,0.0009583496743036986,82.97254001559186,0.0
748,-0.06134747767859289,-0.005356517450405008,83.63913438977971,0.0
749,-0.06667577803548205,-0.010723191687040206,84.36832511393905,0.0
750,-0.07117394382789657,-0.015135599134468464,85.15920957279315,0.0
751,-0.07482942366300549,-0.018637702141459503,86.01092571741012,0.0
752,-0.07765492782731807,-0.021307670886528213,86.92262042388136,0.0
753,-0.07969499546012698,-0.02324494170962227,87.89341686155409,0.0
754,-0.08103080179670785,-0.024559739704965097,88.92238045066007,0.0
755,-0.08177814639379796,-0.025364263510360543,90.0084830240543,0.0
756,-0.08207638109553844,-0.025765000816508902,91.15056484588827,0.0
757,-0.08206993254254517,-0.02585628658049928,92.34729418475833,0.0
758,-0.08188723933619453,-0.025715852496478793,93.59712419380891,0.0
759,-0.08162310066066147,-0.025403395839231444,94.89824691934659,0.0
760,-0.08132944823409742,-0.02496291382899327,96.24854434695199,0.0
761,-0.08101709270793853,-0.02442871354266627,97.64553650433376,0.0
762,-0.08066800523982844,-0.023833836751049962,99.0863267778739,0.0
763,-0.08025493655206495,-0.023218503811405868,100.56754476952322,0.0
764,-0.0797631466950643,-0.0226354960463875,102.08528722661404,0.0
765,-0.07920806302220283,-0.022149501644055335,103.63505782263864,0.0
766,-0.07864303323949796,-0.021828502890587586,105.21170685405109,0.0
767,-0.07815303642819273,-0.021727187403536755,106.80937224644867,0.0
768,-0.07783306208118344,-0.02186476357000293,108.42142362969442,0.0
769,-0.0777535123544168,-0.022201880216358064,110.04041163802887,0.0
770,-0.07791899819442406,-0.022622927331608436,111.65802500492472,0.0
771,-0.07823066708570676,-0.02293023048130867,113.26505843367744,0.0
772,-0.07846464575032115,-0.02285519320732058,114.85139460616709,0.0
773,-0.0782787758188276,-0.022088329686980462,116.40600400827816,0.0
774,-0.07725521052873643,-0.020325869278746196,117.91696645732904,0.0
775,-0.07497752502647526,-0.01732612636496259,119.37151826364796,0.0
776,-0.07112968831098034,-0.012965266523555053,120.7561287896337,0.0
777,-0.06559421843770259,-0.007280556676684444,122.05660972933066,0.0
778,-0.05852217231432527,-0.0004903651274408708,123.25825966946482,0.0
779,-0.05035105778461185,0.007015877133666248,124.34604537225984,0.0
780,-0.04175843009945757,0.014718544955287502,125.30481972715428,0.0
781,-0.0335560147909786,0.022033616309304758,126.11957447110045,0.0
782,-0.026546601908216092,0.028391778833928356,126.77572363479177,0.0
783,-0.021377973453222704,0.03331600108665091,127.25941134110653,0.0
784,-0.0184304624531284,0.03648291152154392,127.55783521614197,0.0
785,-0.01776615773350911,0.037756950256407414,127.65957446808511,1.0
786,-0.019150608486142237,0.03719240233928095,127.65433887212906,0.0
787,-0.022137368363346736,0.03500548535096139,127.63888235363962,0.0
788,-0.02618832990699912,0.031524820786992085,127.61358372868996,0.0
789,-0.03079419798497277,0.027132345856631306,127.57882589111848,0.0
790,-0.03556245947800879,0.022207238604512184,127.53499523821618,0.0
791,-0.040253584507748554,0.017082889414181724,127.48248111567938,0.0
792,-0.04476490333549833,0.012022345377904396,127.42167528296663,0.0
793,-0.04907867685496341,0.007212448030365278,127.35297140006728,0.0
794,-0.05320018703666095,0.002772542978752861,127.27676453655951,0.0
795,-0.05711040815278586,-0.0012288169402238465,127.19345070371148,0.0
796,-0.060747603104862255,-0.004755997651309404,127.10342641025619,0.0
797,-0.0640182163077278,-0.007792456158779241,127.0070882423569,0.0
798,-0.06682593910925498,-0.010333547713594859,126.90483246816683,0.0
799,-0.06910313389878392,-0.012385854512082314,126.79705466728343,0.0
800,-0.07083157122175253,-0.013970903705893056,126.68414938529797,0.0
801,-0.07204690040115351,-0.015130182827534259,126.56650981354807,0.0
802,-0.07282915168583436,-0.015928441597680625,126.44452749409605,0.0
803,-0.07328630714491742,-0.01645309866625595,126.31859204987545,0.0
804,-0.07353823745636201,-0.016808763732859635,126.18909093987617,0.0
805,-0.07370510776936069,-0.01710710928084291,126.05640923917287,0.0
806,-0.0739001178508576,-0.017453377835804924,125.92092944354273,0.0
807,-0.07422350171678403,-0.017931598464809274,125.78303129836581,0.0
808,-0.07475425326390786,-0.01859106726662969,125.64309165145681,0.0
809,-0.07553788182114618,-0.01943676530841776,125.5014843294374,0.0
810,-0.07657160355253419,-0.02042605681199119,125.35858003722628,0.0
811,-0.07779149116974513,-0.021473149348370652,125.21474628019762,0.0
812,-0.07906803990016519,-0.02246140812407225,125.07034730853847,0.0
813,-0.08021627705117323,-0.02326185996520755,124.9257440833211,0.0
814,-0.08102326265878097,-0.023754453778584338,124.78129426379758,0.0
815,-0.08128994040388018,-0.023847364451424935,124.63735221542044,0.0
816,-0.0808775902188548,-0.023489354413147815,124.494269038095,0.0
817,-0.07974442810544728,-0.022671291134855977,124.35239261417502,0.0
818,-0.07795779511972646,-0.02141536236600384,124.21206767572552,0.0
819,-0.07567293230445692,-0.01975389165960434,124.07363589059153,0.0
820,-0.07307948049229045,-0.017703089524051755,123.93743596683196,0.0
821,-0.07032866799237186,-0.015239530393058925,123.80380377510201,0.0
822,-0.06746368641785376,-0.012287681095824787,123.67307248859491,0.0
823,-0.064379004216899,-0.008724925587433922,123.54557274018624,0.0
824,-0.06082871167301033,-0.004406421494123568,123.42163279645881,0.0
825,-0.056489782781442024,0.0007932965185054562,123.30157874832513,0.0
826,-0.051067467934378316,0.006930336451823671,123.18573471800647,0.0
827,-0.04441365384756321,0.013945037013047144,123.07442308217303,0.0
828,-0.036621587863494544,0.021631723071705883,122.96796471109796,0.0
829,-0.028065319151342014,0.02963452150479954,122.86667922373069,0.0
830,-0.019368135259209465,0.037473585943151415,122.7708852586488,0.0
831,-0.011305430267296022,0.044599063854184585,122.6809007609072,0.0
832,-0.0046663279499490565,0.05046348281263602,122.59704328486374,0.0
833,-0.00010898115249083134,0.05459869364183751,122.51963031312665,0.0
834,0.0019555621952802053,0.056682268501536466,122.44897959183673,1.0
835,0.0014252840741317404,0.05658059272954897,122.38155410377918,0.0
836,-0.001495886435276929,0.05436113732573615,122.313658322553,0.0
837,-0.006360711789192774,0.050273148134936316,122.24537238266106,0.0
838,-0.01258161672327424,0.04470251237473279,122.17677607469562,0.0
839,-0.019546613248276983,0.03811129732424605,122.1079488412723,0.0
840,-0.02672006704917342,0.030974401622960633,122.03896977401384,0.0
841,-0.033706783911777505,0.02372471435574861,121.96991761157264,0.0
842,-0.04026981609858246,0.016714728784182425,121.90087073867974,0.0
843,-0.04630628207420103,0.010197858511437487,121.83190718620845,0.0
844,-0.05179734239835145,0.0043280999255256546,121.76310463224071,0.0
845,-0.05675444743074299,-0.0008266844881022941,121.6945404041243,0.0
846,-0.06118174984780481,-0.005264094784573275,121.62629148150913,0.0
847,-0.06506488843145761,-0.009025018196171058,121.55843450035117,0.0
848,-0.06838342351607939,-0.012174173264102132,121.49104575787241,0.0
849,-0.07113403158632024,-0.01478544618849226,121.42420121846584,0.0
850,-0.07334870035177632,-0.01693222772931859,121.35797652053468,0.0
851,-0.0750972075935365,-0.018681854795823363,121.29244698425542,0.0
852,-0.07647269360680486,-0.0200929847875982,121.22768762025458,0.0
853,-0.07756793150928004,-0.02121501581084686,121.16377313918966,0.0
854,-0.07845385044457732,-0.0220891003219419,121.10077796222497,0.0
855,-0.07916981371639076,-0.022750538463039007,121.03877623239437,0.0
856,-0.07972892334380657,-0.023232242019072098,120.97784182684214,0.0
857,-0.08013460926035038,-0.02356861999636258,120.91804836993532,0.0
858,-0.08040010016510726,-0.02379888316336175,120.85946924724055,0.0
859,-0.08056169841837846,-0.02396863260122406,120.80217762035944,0.0
860,-0.08067992774392634,-0.024128807676553694,120.74624644261725,0.0
861,-0.08082798647251908,-0.02433158135113821,120.69174847560072,0.0
862,-0.08107215694980353,-0.024623437667636448,120.6387563065409,0.0
863,-0.0814516694178021,-0.025036243638053582,120.58734236653899,0.0
864,-0.0819648990003574,-0.02557749343727152,120.53757894963266,0.0
865,-0.08256529914592932,-0.026221033346881254,120.48953823270243,0.0
866,-0.08316610985578667,-0.026899557424664388,120.44329229621813,0.0
867,-0.08364975053328733,-0.027500124609308646,120.39891314582657,0.0
868,-0.08387703093094737,-0.02786396805502498,120.35647273478271,0.0
869,-0.08369272438956901,-0.027791911533443694,120.31604298722748,0.0
870,-0.0829268283609583,-0.027056615045272788,120.27769582231704,0.0
871,-0.0813941745707177,-0.025422415027643804,120.24150317920926,0.0
872,-0.07889809446318483,-0.022672519886094825,120.20753704291357,0.0
873,-0.07524527678347735,-0.01864175094475041,120.17586947101383,0.0
874,-0.07027714557243028,-0.013251114073842257,120.14657262127237,0.0
875,-0.06391724669106513,-0.0065387298996467235,120.1197187801272,0.0
876,-0.05622560267923623,0.0013193347556527523,120.09538039209427,0.0
877,-0.04744338385703149,0.010004434983448433,120.07363009008891,0.0
878,-0.03800884283051627,0.019071032052833097,120.05454072668185,0.0
879,-0.028530783378317198,0.027983369743490798,120.038185406307,0.0
880,-0.019717812960814058,0.0361695847429245,120.02463751843918,0.0
881,-0.012275786114153087,0.04308568247000373,120.01397077176352,0.0
882,-0.00679654799670069,0.048279109301488946,120.00625922935718,0.0
883,-0.0036644132606412777,0.05144108392210947,120.0015773449086,0.0
884,-0.0030021390740813184,0.052438699388159156,120.0,1.0
885,-0.004667666939328262,0.05132170922368443,120.0029580241079,0.0
886,-0.008300058275826442,0.048303938258366416,120.01166974221499,0.0
887,-0.013401253235541298,0.043724178833930136,120.02589275861429,0.0
888,-0.019432387791685008,0.037995052747021696,120.04538601067374,0.0
889,-0.02590133276890787,0.031549816950805824,120.06990955132866,0.0
890,-0.03242234679804633,0.02479623304686658,120.09922434194968,0.0
891,-0.03873794601520032,0.018083805517818276,120.13309205533828,0.0
892,-0.04470448423512205,0.011686813276888586,120.17127488863761,0.0
893,-0.05025311489441965,0.005801722146593979,120.2135353859783,0.0
894,-0.05534377463113845,0.0005547697018092974,120.25963627070999,0.0
895,-0.059929790275391547,-0.0039856353660469995,120.30934028709846,0.0
896,-0.06394470678206672,-0.007796492410138049,120.3624100513953,0.0
897,-0.06731315545106764,-0.010890726698665313,120.4186079122129,0.0
898,-0.06997785067027067,-0.013311280826031627,120.47769582016157,0.0
899,-0.07192901091550555,-0.015127427764711217,120.539435206728,0.0
900,-0.07322272295794185,-0.016430923536999365,120.60358687239558,0.0
901,-0.07398028131814334,-0.01732977455158327,120.66991088402615,0.0
902,-0.07436839181192569,-0.017938551692058772,120.73816648154123,0.0
903,-0.07456686233603185,-0.018365843038467514,120.80811199395664,0.0
904,-0.07473371254443438,-0.018700984916516627,120.87950476484036,0.0
905,-0.07497712554060447,-0.019003116997648895,120.95210108727593,0.0
906,-0.075340499636721,-0.019295573729135634,121.02565614842648,0.0
907,-0.07580276013458535,-0.019567643784090216,121.09992398380449,0.0
908,-0.07629243669457962,-0.019784054132424036,121.17465744136136,0.0
909,-0.07671146366047092,-0.01990058871762143,121.24960815551825,0.0
910,-0.07696331868997058,-0.019882512888063246,121.32452653126467,0.0
911,-0.07697982956428177,-0.01972137232829466,121.39916173845629,0.0
912,-0.07674152645443946,-0.01944556584375791,121.47326171644434,0.0
913,-0.07628753128183381,-0.01912096981866024,121.54657318917054,0.0
914,-0.07571239755768364,-0.018839731989112842,121.61884169085913,0.0
915,-0.07514892156320228,-0.018697871935427678,121.68981160243519,0.0
916,-0.07473784489813623,-0.018765079632101132,121.75922619879265,0.0
917,-0.07458776920971193,-0.01905253763706031,121.82682770702841,0.0
918,-0.07473149313334967,-0.019486129653645694,121.89235737575042,0.0
919,-0.07508783805558122,-0.019892548327698704,121.95555555555555,0.0
920,-0.07543983540337629,-0.020004300649048387,122.01616179076099,0.0
921,-0.0754397062265091,-0.019486477378088396,122.07391492245672,0.0
922,-0.07464744564058418,-0.017983838856353872,122.12855320293028,0.0
923,-0.07260284271303837,-0.015182074984197984,122.1798144214947,0.0
924,-0.0689214303622493,-0.01087306177180996,122.22743604172979,0.0
925,-0.06339559938420278,-0.005011613002362409,122.27115535012302,0.0
926,-0.05607633391529399,0.002248599339904435,122.31070961607037,0.0
927,-0.047311811706243205,0.010549339127404071,122.3458362631704,0.0
928,-0.03772752460175803,0.019356381248075753,122.37627305171468,0.0
929,-0.028146654464591185,0.02801977511663302,122.4017582722461,0.0
930,-0.019464770318092604,0.03585665580974426,122.42203095002314,0.0
931,-0.01250461269219756,0.04224255102524929,122.43683106019333,0.0
932,-0.00788161402082118,0.04669506018410745,122.44589975344088,0.0
933,-0.0059082685887301345,0.04893510417046133,122.44897959183673,1.0
934,-0.006556825956327346,0.048915407409865455,122.4291563010221,0.0
935,-0.009487079157983117,0.04681246630355598,122.37064589664382,0.0
936,-0.01413153982523325,0.04298545583121855,122.27493854250051,0.0
937,-0.019816910004821837,0.03791167685240268,122.14358511212814,0.0
938,-0.025892072699832274,0.03211188931087419,121.97818823204814,0.0
939,-0.031832118445034405,0.026079488362294692,121.78039350145055,0.0
940,-0.037296273578352156,0.02022505114229519,121.55188095833392,0.0
941,-0.04213255783494031,0.01484316096423382,121.29435685410841,0.0
942,-0.04633825138244842,0.010102943825860444,121.00954579039617,0.0
943,-0.04999694905824672,0.00605885810903149,120.6991832634161,0.0
944,-0.053216363132463695,0.0026750706371435973,120.36500865308057,0.0
945,-0.05608582335795444,-0.00014426542563800247,120.00875868590188,0.0
946,-0.058661540219817634,-0.002525518189530362,119.63216139313332,0.0
947,-0.06097581398155964,-0.004601255394087896,119.23693057834808,0.0
948,-0.06305799367852909,-0.006492820351686343,118.82476080197418,0.0
949,-0.06495279310741767,-0.008299372152074777,118.39732288421035,0.0
950,-0.06672554233052877,-0.010091800872885276,117.95625992228625,0.0
951,-0.06845163842840418,-0.011909835513409772,117.50318381322059,0.0
952,-0.07019519076240273,-0.01376131182924821,117.03967226908232,0.0
953,-0.0719864144601791,-0.01562344635028844,116.56726630825715,0.0
954,-0.0738072774830273,-0.017446586705809754,116.087468203351,0.0
955,-0.07559100410641197,-0.01916099039027605,115.60173986409089,0.0
956,-0.07723554334949344,-0.020686704989988963,115.1115016318751,0.0
957,-0.07862649223721595,-0.02194579282911528,114.61813146143716,0.0
958,-0.07966273727395094,-0.022875291407093403,114.12296446437645,0.0
959,-0.0802783976620961,-0.02343874679519392,113.62729278902226,0.0
960,-0.08045668530325202,-0.02363410688418643,113.13236581119403,0.0
961,-0.08023391175882685,-0.023496261304208267,112.63939061084399,0.0
962,-0.07969416265879493,-0.023093458117144305,112.14953271028037,0.0
963,-0.07895660822708299,-0.022517999493236025,111.66391705062092,0.0
964,-0.07815791277531774,-0.021872758253852202,111.18362918427805,0.0
965,-0.07743204585563015,-0.021255913944695497,110.70971666259388,0.0
966,-0.07688958764851542,-0.020746686384342204,110.2431905991866,0.0
967,-0.07659890129538878,-0.02039463983422543,109.78502739111451,0.0
968,-0.07657230896948318,-0.020214346511405776,109.3361705815811,0.0
969,-0.07676093840932344,-0.020185963908929305,108.8975328495725,0.0
970,-0.07706119993785343,-0.020260850193413185,108.46999811352012,0.0
971,-0.07733339160783578,-0.02037006457073468,108.05442373779964,0.0
972,-0.0774291744126854,-0.02043285147682524,107.65164283260344,0.0
973,-0.077220901982235,-0.02036229123927253,107.26246663944802,0.0
974,-0.07662355754651674,-0.020066329606451976,106.8876869962956,0.0
975,-0.07560058127761789,-0.019444211991074153,106.52807887798053,0.0
976,-0.0741488264963432,-0.018380488023201122,106.1844030093345,0.0
977,-0.07226501933718858,-0.01674054624364523,105.85740855010492,0.0
978,-0.06990470861591096,-0.014372381719291241,105.547835852465,0.0
979,-0.0669514177717303,-0.011118491876331031,105.25641929362956,0.0
980,-0.06321455727219884,-0.0068393700549486056,104.98389018782945,0.0
981,-0.058467233958899086,-0.0014465025662899807,104.73097978367308,0.0
982,-0.0525206862058884,0.005060960529976713,104.49842235475292,0.0
983,-0.045315902222368525,0.012564402292559375,104.28695839325651,0.0
984,-0.03700213929898353,0.020807991762069867,104.09733791833779,0.0
985,-0.027972108688348436,0.02940226176621335,103.93032391312224,0.0
986,-0.018835596984567826,0.037852065019498164,103.7866959064846,0.0
987,-0.010333039274777392,0.04560647008072704,103.66725371818977,0.0
988,-0.003210376357395318,0.05212287168656435,103.57282138865749,0.0
989,0.001911181224116776,0.056933987844406654,103.50425131755125,0.0
990,0.0046363629467790065,0.059705507296699885,103.46242863864688,0.0
991,0.004844632827722077,0.060274160239425535,103.44827586206897,1.0
992,0.002680366918291767,0.05866030586653177,103.46806380277023,0.0
993,-0.0015048830421907197,0.055054546063924306,103.52637987215361,0.0
994,-0.007236527542884454,0.04978295772448027,103.62171162679543,0.0
995,-0.014003784889633879,0.04325907650431167,103.75261661943205,0.0
996,-0.021330599229002472,0.03593208785921851,103.91771190067391,0.0
997,-0.02882046352138675,0.028239770538396592,104.11566420871571,0.0
998,-0.036173171386958955,0.02057215374612563,104.34518075343507,0.0
999,-0.04317772618220786,0.013248499667303237,104.60500051421228,0.0
1000,-0.049689931273410815,0.0065070732453456365,104.89388598224473,0.0
1001,-0.05560579561140026,0.0005049683544540561,105.21061528835467,0.0
1002,-0.06084200405630558,-0.00467560496554521,105.55397466653169,0.0
1003,-0.06533113605701923,-0.00901777504127927,105.92275121191722,0.0
1004,-0.06903231949274345,-0.012559200013171273,106.3157258997943,0.0
1005,-0.07195020089440492,-0.015380603806785732,106.73166683953949,0.0
1006,-0.07415033602111931,-0.017593297461808884,107.16932274454786,0.0
1007,-0.07575999743625093,-0.019325141419875114,107.62741660595836,0.0
1008,-0.07694967337387747,-0.020705010726003736,108.10463956467412,0.0
1009,-0.07789913740931033,-0.021846904320384,108.59964498275839,0.0
1010,-0.0787588117922126,-0.022835886159134903,109.11104272184208,0.0
1011,-0.079619221672605,-0.023718569109381884,109.63739364274772,0.0
1012,-0.08049805511598314,-0.024500556842214385,110.17720434712777,0.0
1013,-0.08134757091238298,-0.02515213672988545,110.72892218854541,0.0
1014,-0.08207805142202586,-0.025621829879415248,111.29093058707214,0.0
1015,-0.08258864470449888,-0.025855577654060845,111.86154468810822,0.0
1016,-0.0827966377538333,-0.025817825347777715,112.43900741269098,0.0
1017,-0.08265921173845896,-0.025509908460237592,113.02148595297025,0.0
1018,-0.08218578731620577,-0.02498115892767026,113.60706877269365,0.0
1019,-0.08144173513078223,-0.024329075527353847,114.19376317833759,0.0
1020,-0.0805443111717544,-0.023686659382050546,114.77949353178968,0.0
1021,-0.07964991686222088,-0.023197401705417932,115.36210018006382,0.0
1022,-0.07893032974032307,-0.022981109565496857,115.93933918121068,0.0
1023,-0.07853649962736341,-0.023096325728039827,116.50888290815512,0.0
1024,-0.0785524530939655,-0.023506996759351806,117.06832161341053,0.0
1025,-0.0789474760713653,-0.024061701148407142,117.61516603723663,0.0
1026,-0.07953961922693119,-0.02449271447805792,118.14685113956025,0.0
1027,-0.07998537074058655,-0.024439299133092347,118.66074103161591,0.0
1028,-0.07980760297119739,-0.02349513272451906,119.15413517652736,0.0
1029,-0.07846624929263174,-0.021274485643105703,119.6242759187287,0.0
1030,-0.07546458880357816,-0.01748676506661649,120.06835739001593,0.0
1031,-0.07047127482803725,-0.012005646486923434,120.48353582499752,0.0
1032,-0.06342873196302609,-0.004918302605373305,120.86694130069962,0.0
1033,-0.05461682337211659,0.0034572442604830743,121.21569089409824,0.0
1034,-0.0446490825041284,0.012593115955481207,121.52690322750583,0.0
1035,-0.03439562294954281,0.02180994648101108,121.79771434526658,0.0
1036,-0.024846656407158062,0.030363919319838478,122.02529483646587,0.0
1037,-0.016946582369645347,0.03754757573292719,122.20686808782628,0.0
1038,-0.011435805751484184,0.042786366961634716,122.33972951927306,0.0
1039,-0.008734374886866798,0.04571366009346424,122.4212666225699,0.0
1040,-0.008890296544102333,0.046211363744558004,122.44897959183673,1.0
1041,-0.01159986558593145,0.04441045982047865,122.41779894852762,0.0
1042,-0.016291423091467395,0.04065382424745157,122.32556687596322,0.0
1043,-0.02225071547539627,0.03543091099486284,122.17437655119552,0.0
1044,-0.028757932771885823,0.02929855896864865,121.96647641201412,0.0
1045,-0.03520547078080798,0.022803431257602327,121.70424997997893,0.0
1046,-0.041172153433036415,0.0164193627681681,121.39019559914396,0.0
1047,-0.046442562847928595,0.010507985781945312,121.02690635027542,0.0
1048,-0.050975555082006456,0.005304845433656418,120.61705037768748,0.0
1049,-0.054839320077713215,0.0009274405857877324,120.16335184017724,0.0
1050,-0.05813756152857045,-0.002602372140449974,119.66857266989176,0.0
1051,-0.06095064715207183,-0.005330590174530303,119.13549529421643,0.0
1052,-0.06330756572412284,-0.007345678594824861,118.5669064467771,0.0
1053,-0.0651922147472835,-0.008760262403423194,117.96558216514597,0.0
1054,-0.06657534310770799,-0.009700711910566387,117.33427404547075,0.0
1055,-0.06745559700640588,-0.01030208021401107,116.67569679853854,0.0
1056,-0.06789184110659448,-0.010703990461379998,115.99251712814161,0.0
1057,-0.06801376167442867,-0.011043155498891698,115.28734393132875,0.0
1058,-0.06800605237503726,-0.011440074472504709,114.5627198013882,0.0
1059,-0.06806996266634832,-0.011980395791738723,113.82111379830403,0.0
1060,-0.06837221006787932,-0.01269447587436657,113.06491543796311,0.0
1061,-0.06899424424942485,-0.01354080609069824,112.2964298404973,0.0
1062,-0.06989484513891503,-0.014399496914377757,111.51787396969729,0.0
1063,-0.07089676605233318,-0.015080616963253315,110.73137388926864,0.0
1064,-0.07170412866922055,-0.015349122377510531,109.93896295760842,0.0
1065,-0.0719516815217805,-0.014964083383512265,109.14258088054883,0.0
1066,-0.07127999294619075,-0.013725932031801799,108.3440735409089,0.0
1067,-0.06942299163338493,-0.011522597012542032,107.54519352448355,0.0
1068,-0.06628791984982856,-0.008364527642219507,106.74760126406062,0.0
1069,-0.06200545945435589,-0.004400148298916776,105.95286672596497,0.0
1070,-0.056931986186246834,9.298102477635242e-05,105.16247156729565,0.0
1071,-0.051597233324211914,0.004740915831115354,104.37781169625396,0.0
1072,-0.04660664379140745,0.00912438246927912,103.6002001725992,0.0
1073,-0.04252290167223227,0.012838532879209693,102.83087039016908,0.0
1074,-0.039759145157317606,0.015550066017911823,102.07097948843798,0.0
1075,-0.038513040917411076,0.017041336097788934,101.32161194515665,0.0
1076,-0.03875688608751813,0.01723434923133669,100.58378330713175,0.0
1077,-0.04027970111087347,0.016192165171098144,99.85844402109767,0.0
1078,-0.042760799523475834,0.014099868455179682,99.14648333134727,0.0
1079,-0.045847200077011256,0.011230775969645048,98.44873321528799,0.0
1080,-0.04921171404217326,0.00790521270825615,97.76597233234303,0.0
1081,-0.05258143974310059,0.0044489660766418825,97.0989299656084,0.0
1082,-0.05574091174000359,0.0011569327149955292,96.44828993939778,0.0
1083,-0.05852341822998891,-0.001734701822365937,95.81469449925459,0.0
1084,-0.060804582478653314,-0.0040664089299293545,95.19874814419448,0.0
1085,-0.06250557066985428,-0.005763416212585989,94.60102140386661,0.0
1086,-0.0636040552315908,-0.006834657851735588,94.02205455600696,0.0
1087,-0.06414457770375452,-0.007363475047106895,93.4623612820181,0.0
1088,-0.06423911692000911,-0.007491047787479789,92.92243226076629,0.0
1089,-0.06405295052654605,-0.007393785482442422,92.40273870276205,0.0
1090,-0.06377727537142942,-0.007256420006117791,91.90373582880653,0.0
1091,-0.06359506001119222,-0.007243249010478132,91.42586629896942,0.0
1092,-0.0636481855617035,-0.007470667368300036,90.9695635994364,0.0
1093,-0.06401214774600418,-0.007984567887074506,90.53525539635741,0.0
1094,-0.06468111285066863,-0.008746198140476523,90.12336686736057,0.0
1095,-0.06556309807073891,-0.009629512108184055,89.7343240229049,0.0
1096,-0.066484006862762,-0.010431916460905081,89.36855703115178,0.0
1097,-0.06720036732714915,-0.010898625461258913,89.02650356157234,0.0
1098,-0.06742262242367296,-0.010758744713812503,88.70861216410637,0.0
1099,-0.06685160979291734,-0.009768962072512405,88.41534570238058,0.0
1100,-0.06522869363415368,-0.007758723818864126,88.14718486131687,0.0
1101,-0.06239462457680854,-0.00466949734057342,87.90463175145159,0.0
1102,-0.058345413475550244,-0.0005806366622020786,87.6882136344897,0.0
1103,-0.053268724634729266,0.004284224624949156,87.49848679707979,0.0
1104,-0.0475450535744621,0.009573446744785129,87.33604060256938,0.0
1105,-0.04170581258278572,0.014845583019810048,87.20150175364893,0.0
1106,-0.036353401338322454,0.019624554653213895,87.09553880238565,0.0
1107,-0.03206112766904865,0.02346331470837145,87.01886694826574,0.0
1108,-0.029277571863344263,0.026005511144589523,86.97225316960171,0.0
1109,-0.028257624828732005,0.02703469885803229,86.95652173913044,1.0
1110,-0.02903265465976572,0.026502753275012402,86.97381062388256,0.0
1111,-0.03142025971309326,0.024532838885060033,87.024868843737,0.0
1112,-0.035065223111336696,0.021396789665895987,87.10853841689428,0.0
1113,-0.03950007984614579,0.01747116018955923,87.22372709061052,0.0
1114,-0.04421490879188458,0.013179701561360072,87.36939992341776,0.0
1115,-0.04872826275086524,0.008932038148011917,87.54457143413399,0.0
1116,-0.05265188971473424,0.005068596406860899,87.74829823679761,0.0
1117,-0.05574090213389238,0.0018203868738120937,87.97967209075044,0.0
1118,-0.05792043345417455,-0.0007106474069457146,88.23781330390217,0.0
1119,-0.059282078804997744,-0.0025488121513942297,88.52186443496092,0.0
1120,-0.06004931175396166,-0.0038215180989117185,88.83098424730547,0.0
1121,-0.06051888371967179,-0.004721498302021452,89.16434187337029,0.0
1122,-0.060991798375281396,-0.005462428589553795,89.52111115405694,0.0
1123,-0.06171011288462159,-0.006236710828694024,89.9004651228973,0.0
1124,-0.06281363631417608,-0.0071831423592639485,90.30157060958649,0.0
1125,-0.06432458228701994,-0.008369668504396351,90.72358294216693,0.0
1126,-0.06616059327019654,-0.009792982945301386,91.16564073166671,0.0
1127,-0.06816970263039702,-0.011393167039822712,91.62686072744705,0.0
1128,-0.07017650372067273,-0.013078603111438075,92.10633273596085,0.0
1129,-0.07202769155840394,-0.014754638734607323,92.60311460012291,0.0
1130,-0.07362683633097962,-0.016349202560642533,93.11622724109282,0.0
1131,-0.07495182871292641,-0.017829726488998814,93.64464976900987,0.0
1132,-0.07605293187535535,-0.019207972102711277,94.18731467413359,0.0
1133,-0.07703382903717512,-0.02053216075400083,94.74310311494824,0.0
1134,-0.07802148371218241,-0.021868576681977246,95.31084032510233,0.0
1135,-0.07913222679486483,-0.02327702403218829,95.8892911665719,0.0
1136,-0.08044104036735436,-0.024785795795020667,96.47715586214333,0.0
1137,-0.08195910003554051,-0.026371972696042478,97.073065946185,0.0
1138,-0.08362231524483568,-0.02795192143156057,97.67558047866073,0.0
1139,-0.08529177483352299,-0.02938497426986542,98.2831825733801,0.0
1140,-0.08676598276230253,-0.030490739309311836,98.89427629748151,0.0
1141,-0.08780428884350669,-0.03107769729655761,99.5071840050064,0.0
1142,-0.08816039233051025,-0.030978137766555662,100.1201441730076,0.0
1143,-0.08762356915537423,-0.030082561380515342,100.73130981378759,0.0
1144,-0.08606289022158037,-0.028365896656069242,101.33874754139967,0.0
1145,-0.08346634639590686,-0.025898612175029218,101.94043737425943,0.0
1146,-0.0799637671759846,-0.022838190370863057,102.5342733583757,0.0
1147,-0.07582194375593201,-0.01940026505088454,103.11806509706837,0.0
1148,-0.07140443904275019,-0.01581340218932593,103.68954027283047,0.0
1149,-0.06709740110774826,-0.01226604126857912,104.24634824493846,0.0
1150,-0.06321406755809532,-0.008857332776183667,104.78606480224275,0.0
1151,-0.059900730201890746,-0.0055644203996816745,105.30619814401584,0.0
1152,-0.05707192224359204,-0.002236476346386629,105.80419615255349,0.0
1153,-0.05439997548191735,0.0013794145111689256,106.2774550092107,0.0
1154,-0.0513731434116084,0.005582680076061539,106.72332919055445,0.0
1155,-0.047418542760352025,0.010643790048839353,107.13914286324516,0.0
1156,-0.04206512359693065,0.016724686874301006,107.52220267512439,0.0
1157,-0.03510427867243842,0.023813477534950205,107.86981191589427,0.0
1158,-0.02669924759255955,0.031689825631443146,108.17928599395495,0.0
1159,-0.017404501859296186,0.039931230784617834,108.44796914678363,0.0
1160,-0.008081867047500519,0.04796120052390534,108.67325227119747,0.0
1161,0.00026723480267283546,0.05513053899378594,108.85259172759557,0.0
1162,0.006707064917861417,0.06081519713508889,108.98352893961672,0.0
1163,0.01055329385995275,0.0645104398773062,109.063710578508,0.0
1164,0.011490906568180305,0.06590242772055163,109.09090909090908,1.0
1165,0.009599448940534867,0.0649041991249707,109.06556482395771,0.0
1166,0.005289176091351218,0.06165174555109541,108.99036650279342,0.0
1167,-0.0008245831774452911,0.056464971302880695,108.86666338422246,0.0
1168,-0.00806870454454147,0.04978545012682734,108.69592535021478,0.0
1169,-0.015841131222007265,0.042106374472083666,108.479730773783,0.0
1170,-0.023692386564644247,0.03390941612634912,108.2197540949738,0.0
1171,-0.03134828073162983,0.025619030643449302,107.91775325870452,0.0
1172,-0.038680288435976665,0.017578577865659008,107.57555715843682,0.0
1173,-0.04564335260023875,0.010046399909631718,107.19505321986918,0.0
1174,-0.05220673964299516,0.0032054000195234373,106.77817524735191,0.0
1175,-0.05830182590606802,-0.0028222482206179383,106.3268916429798,0.0
1176,-0.06380275846575843,-0.007962689604930004,105.84319409470099,0.0
1177,-0.06854409850667521,-0.012184570851338235,105.32908681567727,0.0
1178,-0.07236692881756825,-0.015500031141289405,104.7865764028932,0.0
1179,-0.07517529862670369,-0.017969072134386622,104.21766236895682,0.0
1180,-0.07698165398500148,-0.01970182734751821,103.62432838744267,0.0
1181,-0.07792420773073742,-0.02085335902353466,103.00853427922866,0.0
1182,-0.07824909890682223,-0.02160776174064845,102.37220875526111,0.0
1183,-0.07826159288738105,-0.022151822190121608,101.7172429201866,0.0
1184,-0.07825935586145198,-0.02264219454715244,101.04548453141798,0.0
1185,-0.07846465901697659,-0.023172891785539742,100.35873299950921,0.0
1186,-0.07897125633068303,-0.023751027537161466,99.65873510822743,0.0
1187,-0.0797173430323136,-0.02428780402575744,98.94718142641837,0.0
1188,-0.08049047084584564,-0.02460889761625536,98.22570337863206,0.0
1189,-0.08096477965283436,-0.02448428329480404,97.49587093745018,0.0
1190,-0.08076555625892322,-0.02367311076757462,96.75919089746495,0.0
1191,-0.07955076268618758,-0.021975538517400847,96.0171056888142,0.0
1192,-0.07709423742597724,-0.01928135013565164,95.27099268698784,0.0
1193,-0.07335224679801428,-0.015605274932521923,94.52216397518798,0.0
1194,-0.06849595651965545,-0.011101276394482362,93.77186651575308,0.0
1195,-0.06289857969042159,-0.00605218866077243,93.02128268794506,0.0
1196,-0.057076960051007,-0.0008360585618426514,92.27153115065718,0.0
1197,-0.05160025823408542,0.004124756944389541,91.52366799024075,0.0
1198,-0.0469885664516963,0.008422363275144673,90.77868811558784,0.0
1199,-0.0436272981034203,0.01171936429466843,90.03752686477141,0.0
1200,-0.04171735218427634,0.01379259049517365,89.30106178986831,0.0
1201,-0.041268486958913546,0.01455784423469077,88.5701145890125,0.0
1202,-0.04212927530627966,0.01407291586327468,87.84545315719747,0.0
1203,-0.04403731926665764,0.012520111058396479,87.12779372982287,0.0
1204,-0.046671764797164256,0.010172747813439116,86.4178030954257,0.0
1205,-0.049696248188193945,0.007352055887832339,85.7161008564185,0.0
1206,-0.05278999223791877,0.00438156215903877,85.02326171895689,0.0
1207,-0.055672036538929257,0.0015455853192646565,84.33981779525183,0.0
1208,-0.05812455763072999,-0.0009427764719854633,83.6662609037212,0.0
1209,-0.060016199124539975,-0.002960503907185742,83.0030448543257,0.0
1210,-0.06131950831845804,-0.0044787006992329905,82.35058770825466,0.0
1211,-0.06211318523296036,-0.005552292469314963,81.70927400281181,0.0
1212,-0.06256265646929267,-0.006297925680323293,81.07945693390282,0.0
1213,-0.06288018005328426,-0.006864370317614952,80.4614604899451,0.0
1214,-0.06327401228637082,-0.007400844268086929,79.85558153231096,0.0
1215,-0.06390074378970349,-0.008028861419855184,79.26209181858376,0.0
1216,-0.06483373406291368,-0.008822338825269914,78.68123996595686,0.0
1217,-0.06605471108380528,-0.009798909216745207,78.11325335304804,0.0
1218,-0.06746805953611744,-0.010923047013462518,77.55833995923992,0.0
1219,-0.0689311667120765,-0.012119252829713122,77.01669014140285,0.0
1220,-0.07029119386303068,-0.013291681664238896,76.48847834851401,0.0
1221,-0.07141893727089159,-0.014345631897651931,75.9738647752665,0.0
1222,-0.07223305065740758,-0.015206391034035201,75.47299695627035,0.0
1223,-0.07271142487563255,-0.015831960858062162,74.98601130289208,0.0
1224,-0.07288973624366664,-0.016217853589604477,74.5130345851692,0.0
1225,-0.07284937707212896,-0.01639403969235674,74.05418536157495,0.0
1226,-0.07269812294245749,-0.016415802478012526,73.60957535970692,0.0
1227,-0.07254740334527685,-0.016351358634804043,73.1793108112342,0.0
1228,-0.07249035854725525,-0.01626942581532243,72.76349374467054,0.0
1229,-0.07258496451813432,-0.01622942636292577,72.36222323974786,0.0
1230,-0.07284590119159658,-0.016275861574818824,71.9755966473552,0.0
1231,-0.07324705301717455,-0.01643688149997318,71.60371077918369,0.0
1232,-0.07373366624404872,-0.0167256169340938,71.24666307138736,0.0
1233,-0.07424008609202384,-0.017141850204304154,70.90455272673435,0.0
1234,-0.07470687351139649,-0.017671406365621777,70.57748183989068,0.0
1235,-0.07509091237578987,-0.018281388108576047,70.2655565106517,0.0
1236,-0.07536407468797915,-0.01891095106685886,69.96888795012131,0.0
1237,-0.07549949476549186,-0.019459364850598907,69.68759358503917,0.0
1238,-0.0754483909873284,-0.019775081646979432,69.42179816567726,0.0
1239,-0.07511358515180638,-0.019650819201842168,69.17163488297419,0.0
1240,-0.07432782554314475,-0.018829721283531685,68.93724650085306,0.0
1241,-0.07284569067908533,-0.017026188839020726,68.71878650998376,0.0
1242,-0.07035726941488965,-0.013962045365126161,68.51642030960707,0.0
1243,-0.06652941810175707,-0.009414796645676021,68.33032642444584,0.0
1244,-0.06107501336534797,-0.003270731278589285,68.1606977641905,0.0
1245,-0.053841635074283536,0.0044274328593744,68.00774293357625,0.0
1246,-0.044900224207566675,0.013449681107136152,67.87168760167059,0.0
1247,-0.03460610332609227,0.023374282078371764,67.7527759396782,0.0
1248,-0.023605066796073555,0.03361511371733301,67.65127213735329,0.0
1249,-0.012769189100043404,0.04347970513872316,67.56746200900315,0.0
1250,-0.003068083866769914,0.05225011391644235,67.50165470108657,0.0
1251,0.004596325625146375,0.05927315402649118,67.45418451457155,0.0
1252,0.009549420200548296,0.06404371439725648,67.42541285654488,0.0
1253,0.011456119129395814,0.06626585429777512,67.41573033707866,1.0
1254,0.010358330114038878,0.06588091422552475,67.44851210585311,0.0
1255,0.006632493928363536,0.06305891458734869,67.54530631552764,0.0
1256,0.0008840412622045455,0.05815721625562695,67.70403886126391,0.0
1257,-0.0061895267142991406,0.0516568222927438,67.92294000424484,0.0
1258,-0.013930590812830894,0.04409026385932133,68.20050815379386,0.0
1259,-0.02181752842193331,0.03597503496438659,68.53547788604389,0.0
1260,-0.029507169798953705,0.027763318372895984,68.92679136210661,0.0
1261,-0.03682244404105101,0.019813428725377804,69.37357243312526,0.0
1262,-0.04369969607571964,0.012382604640968235,69.87510281676452,0.0
1263,-0.05012031653230889,0.005636093971794933,70.43079980521283,0.0
1264,-0.056053010655124226,-0.0003350046386513903,71.0401950230109,0.0
1265,-0.06142585437808974,-0.005494616115784725,71.7029137974231,0.0
1266,-0.0661339748183225,-0.009846587240758011,72.41865473740815,0.0
1267,-0.070074367620891,-0.01342566464821858,73.18716914182231,0.0
1268,-0.07318958091963948,-0.01629346863260484,74.00823987527208,0.0
1269,-0.07550032762367215,-0.018536342577654366,74.88165936280413,0.0
1270,-0.07711348568445352,-0.020261519554570166,75.80720636406177,0.0
1271,-0.07820288844922847,-0.02158911587362771,76.7846211953478,0.0
1272,-0.07897071932723694,-0.022639472212634768,77.81357907599931,0.0
1273,-0.07960313052707016,-0.023517530581107393,78.89366128556941,0.0
1274,-0.08023353249361391,-0.02429753279991396,80.02432383274108,0.0
1275,-0.08092225756481167,-0.02501189598283225,81.20486335821155,0.0
1276,-0.08165491119917934,-0.025647559773074067,82.4343800249093,0.0
1277,-0.08235644257423576,-0.026151620199613233,83.7117371931947,0.0
1278,-0.08291521059098854,-0.026446071608067202,85.03551773995909,0.0
1279,-0.0832109857852066,-0.02644943229405032,86.40397696302135,0.0
1280,-0.08314193422716178,-0.026101339671819546,87.81499212054229,0.0
1281,-0.08264717183594202,-0.025385167089215614,89.26600879418895,0.0
1282,-0.08172285035507634,-0.02434351880320595,90.7539844393267,0.0
1283,-0.08043061969700188,-0.023082179455108195,92.27532970008484,0.0
1284,-0.0788974666181244,-0.021759712198784732,93.82584832533499,0.0
1285,-0.07730535235259928,-0.02056229368517956,95.4006768254816,0.0
1286,-0.07586838806377817,-0.019666289720940353,96.99422535906422,0.0
1287,-0.07479578167406437,-0.01919409650297587,98.60012172854536,0.0
1288,-0.07424168307983411,-0.019171324770552303,100.21116078752611,0.0
1289,-0.07424841890903745,-0.01949482232253406,101.81926200205173,0.0
1290,-0.07469580598345633,-0.0199206988625343,103.41543834419086,0.0
1291,-0.0752734312924303,-0.02007906803334783,104.98978009562322,0.0
1292,-0.07549225724514926,-0.0195177292206979,106.53145746222539,0.0
1293,-0.07474531091107164,-0.01777110966614677,108.02874609825615,0.0
1294,-0.07241524451655278,-0.014444636232706528,109.46907965380026,0.0
1295,-0.0680119499487826,-0.009299782447296305,110.83913323030761,0.0
1296,-0.06131046418548258,-0.002322770976060119,112.12494109575631,0.0
1297,-0.05245295026861237,0.006238733543711891,113.31205112059064,0.0
1298,-0.04198230448622199,0.015881492800881053,114.3857171128452,0.0
1299,-0.030789633004357095,0.025897645532683294,115.33112854839067,0.0
1300,-0.019980041389815954,0.03546401733811808,116.13367514129199,0.0
1301,-0.010684053894080187,0.043754774009744896,116.77924135881946,0.0
1302,-0.0038578532668039445,0.05005712356178385,117.25452348748479,0.0
1303,-0.0001190997462367374,0.05386888135444549,117.54735938397907,0.0
1304,0.0003445196284971062,0.054960495218570965,117.6470588235294,1.0
1305,-0.0022238379916405407,0.053391676739402254,117.6470588235294,0.0
1306,-0.007234719680612166,0.049482242961725514,117.6470588235294,0.0
1307,-0.01389670228875368,0.04374583998727882,117.6470588235294,0.0
1308,-0.02138186315119892,0.03680178132653908,117.6470588235294,0.0
1309,-0.028971316520096813,0.02928291892478333,117.6470588235294,0.0
1310,-0.03614854156321788,0.0217559793947152,117.6470588235294,0.0
1311,-0.042626019510054895,0.01466593799179854,117.6470588235294,0.0
1312,-0.048311976688034886,0.008309354192560202,117.6470588235294,0.0
1313,-0.05324133354026416,0.0028350192467174688,117.6470588235294,0.0
1314,-0.05750188458575562,-0.0017346469270478181,117.6470588235294,0.0
1315,-0.06118122210225449,-0.005470378544763782,117.6470588235294,0.0
1316,-0.0643455292409597,-0.008499744888499083,117.6470588235294,0.0
1317,-0.06704544354496479,-0.010974349370807832,117.6470588235294,0.0
1318,-0.06933392025578056,-0.013044241255118345,117.6470588235294,0.0
1319,-0.07127988552801959,-0.014840505349527938,117.6470588235294,0.0
1320,-0.0729680616232997,-0.016465133726222648,117.6470588235294,0.0
1321,-0.07448494901762502,-0.017986486539251913,117.6470588235294,0.0
1322,-0.07589847124593352,-0.019438709818121295,117.6470588235294,0.0
1323,-0.07724122830697941,-0.020823983673463595,117.6470588235294,0.0
1324,-0.07850462409003207,-0.022117019645063084,117.6470588235294,0.0
1325,-0.07964557485930127,-0.02327155843239133,117.6470588235294,0.0
1326,-0.0806021318187259,-0.024228675653309918,117.6470588235294,0.0
1327,-0.08131157214403853,-0.024926555656724612,117.6470588235294,0.0
1328,-0.08172511948670592,-0.025311156983674307,117.6470588235294,0.0
1329,-0.08181646208484353,-0.02534695107620614,117.6470588235294,0.0
1330,-0.08158462371093221,-0.025026694636048456,117.6470588235294,0.0
1331,-0.08105370453833699,-0.024378990274059327,117.6470588235294,0.0
1332,-0.08027193093984283,-0.02347221174359071,117.6470588235294,0.0
1333,-0.0793109802630803,-0.022413287010399192,117.6470588235294,0.0
1334,-0.07826484262283032,-0.02133997194093892,117.6470588235294,0.0
1335,-0.07724638351598077,-0.02040575890564056,117.6470588235294,0.0
1336,-0.07637946739546225,-0.019757554133874655,117.6470588235294,0.0
1337,-0.07578479879107598,-0.019507716628340326,117.6470588235294,0.0
1338,-0.07555841059060817,-0.01970380433180878,117.6470588235294,0.0
1339,-0.07574315483413106,-0.020301065756314542,117.6470588235294,0.0
1340,-0.07629596002973321,-0.021143857943732677,117.6470588235294,0.0
1341,-0.07705706362083849,-0.02196224327044268,117.6470588235294,0.0
1342,-0.07773117828640112,-0.02238861763712486,117.6470588235294,0.0
1343,-0.07789284584563387,-0.021996239754003555,117.6470588235294,0.0
1344,-0.07702671565126075,-0.02035727685634354,117.6470588235294,0.0
1345,-0.07460646726591373,-0.01711322674450559,117.6470588235294,0.0
1346,-0.07020411610377558,-0.012046441805963586,117.6470588235294,0.0
1347,-0.06360799056582332,-0.005139183481339785,117.6470588235294,0.0
1348,-0.05491826572855985,0.003392872252712802,117.6470588235294,0.0
1349,-0.04458870798660127,0.01310213718365454,117.6470588235294,0.0
1350,-0.03339428686106649,0.023348816806646543,117.6470588235294,0.0
1351,-0.022324040192893434,0.03337439557245012,117.6470588235294,0.0
1352,-0.012420551236873915,0.04239729186859314,117.6470588235294,0.0
1353,-0.0046037082243425755,0.04971413668539311,117.6470588235294,0.0
1354,0.0004788598281130333,0.05478874830241012,117.6470588235294,0.0
1355,0.0025405826581300682,0.05731345023711789,117.6470588235294,1.0
1356,0.0016677937792462544,0.057233279203611036,117.67654429465783,0.0
1357,-0.00174059921889019,0.054731369923929615,117.763228867373,0.0
1358,-0.007083540942811381,0.05018147713931985,117.90456799195057,0.0
1359,-0.013687142016579869,0.044079405930817196,118.0981484979461,0.0
1360,-0.02092187228652734,0.0369678571267916,118.3416657219186,0.0
1361,-0.02828438690117415,0.02936850418397849,118.63290228866737,0.0
1362,-0.035432698703829126,0.021731532078627755,118.96970829051091,0.0
1363,-0.042176121832687666,0.014407581057177942,119.34998264949145,0.0
1364,-0.04843223145849036,0.007641530476455105,119.77165548268623,0.0
1365,-0.054170102495701054,0.0015831845180818167,120.23267132214302,0.0
1366,-0.059360699603134025,-0.003692434710318873,120.7309730692401,0.0
1367,-0.06395051358456565,-0.008162592182224763,121.26448658925233,0.0
1368,-0.06786428010873469,-0.011837824650524631,121.8311058762116,0.0
1369,-0.07103047851822704,-0.014749375505966781,122.42867874129762,0.0
1370,-0.07341446679230038,-0.01694332250967842,123.05499300041247,0.0
1371,-0.07504252343877738,-0.018479670412771883,123.70776315861129,0.0
1372,-0.07600606481841723,-0.01943382824099437,124.38461761094614,0.0
1373,-0.07644538436739204,-0.019898063605638453,125.08308640120447,0.0
1374,-0.07652120256108579,-0.0199813037748799,125.80058960208585,0.0
1375,-0.07638611888104918,-0.019806520243965512,126.53442640257164,0.0
1376,-0.07616583527669736,-0.019505509860582103,127.28176501052184,0.0
1377,-0.07595393397467773,-0.01921106248492968,128.03963350070066,0.0
1378,-0.075817530560424,-0.019046446450487798,128.8049117602031,0.0
1379,-0.07580705561102205,-0.019112167341434595,129.57432470422577,0.0
1380,-0.07596269594132321,-0.019470361243471485,130.3444369547772,0.0
1381,-0.07631202841609326,-0.020128090155176442,131.1116491926075,0.0
1382,-0.07685688881973982,-0.021022070236271923,131.87219640758687,0.0
1383,-0.07755151010784625,-0.022008589483783248,132.62214828408443,0.0
1384,-0.07827775605120414,-0.022863026082623288,133.35741196460106,0.0
1385,-0.07882626065207578,-0.023292958410219,134.07373743590955,0.0
1386,-0.07889369283247098,-0.022967077077225152,134.7667257761188,0.0
1387,-0.07810529964102415,-0.021559052820794837,135.43184048726187,0.0
1388,-0.07606757124520266,-0.018801700477009457,136.06442211511063,0.0
1389,-0.07244813650334879,-0.014543103337083132,136.6597063249539,0.0
1390,-0.06706989020645293,-0.00879390206069901,137.21284555824747,0.0
1391,-0.05999670091124532,-0.0017546732141821087,137.71893433983442,0.0
1392,-0.05158316240656557,0.006185250658292191,138.17303823870085,0.0
1393,-0.04246479834852875,0.014481203981076607,138.57022640730074,0.0
1394,-0.033479113403827705,0.022495976266135687,138.9056075362324,0.0
1395,-0.025528487159522096,0.029582463918541385,139.1743689639891,0.0
1396,-0.01941579863201333,0.03517174075035242,139.3718185778256,0.0
1397,-0.015694786256454037,0.03885026809599598,139.49342903436062,0.0
1398,-0.014574593351475219,0.04041189100626538,139.53488372093022,1.0
1399,-0.01590236747759958,0.03987557593947556,139.47874627541205,0.0
1400,-0.019224934044646466,0.037467206516504814,139.31235401963986,0.0
1401,-0.023908504472830574,0.03357126137153564,139.0391086658186,0.0
1402,-0.029281031710561164,0.028663937112857796,138.66286699913758,0.0
1403,-0.03475881301296888,0.02324189052840135,138.18788769587206,0.0
1404,-0.03992721199613063,0.017759832798808755,137.61877589500585,0.0
1405,-0.044561849072882076,0.01258630246327087,136.96042665876558,0.0
1406,-0.048596014193886136,0.007981435827865962,136.21796839507385,0.0
1407,-0.052056062386743505,0.004095116688789591,135.3967072262836,0.0
1408,-0.05499371600036608,0.0009799746865619616,134.50207317960283,0.0
1409,-0.057440264812206564,-0.001387875812387967,133.53956895150856,0.0
1410,-0.05939487569701129,-0.0030867184132093942,132.5147218671986,0.0
1411,-0.06084348317016573,-0.004229761453086772,131.43303952232017,0.0
1412,-0.061792726638286104,-0.004949515021926394,130.29996946277984,0.0
1413,-0.06229946663884986,-0.005385013014351452,129.12086313351452,0.0
1414,-0.062480855040286346,-0.0056699557436319875,127.90094421194618,0.0
1415,-0.06249957367768597,-0.005920336026608836,126.64528133882807,0.0
1416,-0.06252908367892997,-0.006221586406678035,125.35876516983436,0.0
1417,-0.06271069657839065,-0.00661700757669135,124.04608959629674,0.0
1418,-0.06311620460226182,-0.0071004379788555064,122.71173692302587,0.0
1419,-0.0637271034665489,-0.007616262369338258,121.35996674469995,0.0
1420,-0.06443597199606987,-0.008068778242608612,119.99480822895713,0.0
1421,-0.06506958169636148,-0.008340893439940524,118.62005549288698,0.0
1422,-0.06542850292554882,-0.00831967270766233,117.23926574867637,0.0
1423,-0.06533505514175933,-0.007924079131262439,115.8557598922272,0.0
1424,-0.06468018802925825,-0.007129010463913197,114.47262521410738,0.0
1425,-0.06345969241166988,-0.005979837556666395,113.09271992374856,0.0
1426,-0.06179086588161326,-0.004593214889805036,111.71867919398206,0.0
1427,-0.05990304330919745,-0.003142690359674217,110.3529224525524,0.0
1428,-0.05810013844029129,-0.001831007960979024,108.99766166905741,0.0
1429,-0.05670043320757103,-0.0008541832897499449,107.65491040887323,0.0
1430,-0.05596641393307631,-0.0003646281264875751,106.32649344923757,0.0
1431,-0.05604240782522659,-0.000441189982454836,105.01405677612338,0.0
1432,-0.056917514859953486,-0.0010727173021443407,103.71907780333201,0.0
1433,-0.05842521843313894,-0.0021588976981646354,102.44287567697344,0.0
1434,-0.06028079026559907,-0.003528320061950612,101.1866215489014,0.0
1435,-0.06214655014309947,-0.004969923114494769,99.95134872155252,0.0
1436,-0.06370701848670626,-0.006271159823921828,98.73796258388366,0.0
1437,-0.06473384698949834,-0.007255011790128737,97.54725027367569,0.0
1438,-0.06512476714991448,-0.007808658378451736,96.379890015377,0.0
1439,-0.06490974941256329,-0.007898866892915943,95.23646009494459,0.0
1440,-0.06422755632645878,-0.007572348801977827,94.11744744388078,0.0
1441,-0.06328337994464175,-0.006942568750376019,93.0232558139535,0.0
1442,-0.0623012613170205,-0.0061670164602724824,91.95421353203976,0.0
1443,-0.06148345958857689,-0.005420254267563788,90.91058083125738,0.0
1444,-0.06098430244707693,-0.004868011652453661,89.89255676017306,0.0
1445,-0.06090033765885918,-0.00464644574319013,88.90028567650843,0.0
1446,-0.06127371934457898,-0.004848892055605528,87.93386333552625,0.0
1447,-0.06210300234289713,-0.005520530171407013,86.99334258627584,0.0
1448,-0.06335529512527581,-0.006659835921120891,86.0787386912059,0.0
1449,-0.06497554207611811,-0.008224750807782342,85.19003428641636,0.0
1450,-0.0668914920231347,-0.010141226817316586,84.32718400109458,0.0
1451,-0.06901549268726588,-0.01231208778285049,83.49011875555021,0.0
1452,-0.07124574795342545,-0.01462478472574515,82.67874975779165,0.0
1453,-0.07346965253928821,-0.016957400598793953,81.89297221883892,0.0
1454,-0.0755703507722679,-0.01918301231195501,81.13266880699729,0.0
1455,-0.07743540179498999,-0.02117313477440358,80.39771286117009,0.0
1456,-0.0789645572524293,-0.022801379736614977,79.68797138301082,0.0
1457,-0.08007346510463681,-0.023948593950709588,79.00330782733782,0.0
1458,-0.08069216912272832,-0.024510520732172355,78.34358470979542,0.0
1459,-0.08076071386239113,-0.02440839414623293,77.70866605026477,0.0
1460,-0.0802269390319304,-0.023601832771360978,77.0984196700349,0.0
1461,-0.07905169332962514,-0.022102089903015053,76.51271936025599,0.0
1462,-0.07722369239145681,-0.019982442556508637,75.9514469387336,0.0
1463,-0.07478130632493524,-0.017381695333550495,75.41449421169625,0.0
1464,-0.07183379479590005,-0.014496889832301345,74.9017648567995,0.0
1465,-0.06857180740303112,-0.011562659364965986,74.41317624332183,0.0
1466,-0.06525749068321893,-0.008817268569355085,73.94866120528185,0.0
1467,-0.062188651057881676,-0.006458850157801319,73.50816978306675,0.0
1468,-0.059638561889217796,-0.004598937183654879,73.09167094912442,0.0
1469,-0.05778150262295321,-0.003223089343270186,72.69915433334535,0.0
1470,-0.056621437830247055,-0.0021692363440233807,72.33063196395857,0.0
1471,-0.05594487517145536,-0.0011326311780298654,71.98614004010045,0.0
1472,-0.05531736204314226,0.00029807935178334695,71.66574075270344,0.0
1473,-0.054136003640592775,0.002575574759243247,71.36952417100638,0.0
1474,-0.05173839394384428,0.006108412121241007,71.09761021283141,0.0
1475,-0.047552859324062564,0.011170549271759814,70.85015071782558,0.0
1476,-0.04125897100044232,0.017824289140704073,70.62733164415133,0.0
1477,-0.0329162436510398,0.02587434940976395,70.42937541066345,0.0
1478,-0.02301920167775211,0.03486564728313904,70.25654340846195,0.0
1479,-0.012452359240206903,0.04412876262134445,70.10913870790387,0.0
1480,-0.0023465338096420115,0.0528668259841638,69.98750898974224,0.0
1481,0.006131197240157542,0.0602682964455406,69.89204973209308,0.0
1482,0.011999955952463304,0.06562417278964308,69.82320768848302,0.0
1483,0.014642312652953723,0.06842722097261707,69.78148469638072,0.0
1484,0.013893749086615753,0.06843507488901197,69.76744186046511,1.0
1485,0.010028814289567204,0.06568742797922852,69.76982687880982,0.0
1486,0.003657378705232237,0.06047775092201521,69.77694963306826,0.0
1487,-0.004433658910044426,0.05328939983173593,69.78876308985278,0.0
1488,-0.013447896617962791,0.0447123220960632,69.80522205484108,0.0
1489,-0.02271394836873112,0.0353584973806457,69.82628311068412,0.0
1490,-0.03175881200042614,0.02579171999032945,69.85190455724711,0.0
1491,-0.040312620976793126,0.016481478234057063,69.88204635406056,0.0
1492,-0.0482583507802849,0.007783429567756841,69.91667006486443,0.0
1493,-0.05555484652710988,-5.761976274508418e-05,69.95573880413413,0.0
1494,-0.06216546845348219,-0.006890614368969639,69.99921718548292,0.0
1495,-0.06801711108588135,-0.012636632733175234,70.04707127184001,0.0
1496,-0.07299911323781307,-0.01727070094039771,70.09926852730817,0.0
1497,-0.07699511068138921,-0.020811424083902033,70.1557777706099,0.0
1498,-0.07992952943756668,-0.023318707634409186,70.21656913003471,0.0
1499,-0.08180778477200706,-0.024896441699370584,70.28161399980418,0.0
1500,-0.08273498137258152,-0.025695173027595757,70.35088499777513,0.0
1501,-0.08290825915546503,-0.025909742393743662,70.42435592440488,0.0
1502,-0.08258782078002126,-0.025768341493700105,70.50200172290566,0.0
1503,-0.08205717236836631,-0.025511845091318108,70.58379844051787,0.0
1504,-0.08158302593090346,-0.025364924510268942,70.66972319083558,0.0
1505,-0.0813812769663856,-0.025502778960255414,70.75975411711968,0.0
1506,-0.08159060447818438,-0.026018949293202726,70.85387035653653,0.0
1507,-0.0822523537941536,-0.026900391374503802,70.95205200526287,0.0
1508,-0.08329564013710189,-0.0280156786654975,71.05428008439938,0.0
1509,-0.08452935820167227,-0.02912083705440065,71.16053650663747,0.0
1510,-0.08564612040042108,-0.02988492889912623,71.27080404362597,0.0
1511,-0.08624500187605123,-0.029934279198983428,71.38506629398628,0.0
1512,-0.08587876639808975,-0.028910572716311526,71.50330765192528,0.0
1513,-0.08412624371971933,-0.026534587252509165,71.62551327639851,0.0
1514,-0.0806821789438029,-0.022664877717863133,71.75166906077598,0.0
1515,-0.07544727407641298,-0.017340091539065034,71.88176160296526,0.0
1516,-0.06859405011255182,-0.010795316182751296,72.01577817594753,0.0
1517,-0.06058390867064617,-0.0034469565636035242,72.15370669868346,0.0
1518,-0.05212005770423837,0.004153518218806015,72.2955357073468,0.0
1519,-0.04403857101826797,0.011390261682721371,72.44125432684461,0.0
1520,-0.03716006065066432,0.017666145631349807,72.5908522425844,0.0
1521,-0.03213913606463276,0.022483369036895053,72.74431967244841,0.0
1522,-0.029351420715256968,0.0255071213428341,72.90164733893732,0.0
1523,-0.02884678378725097,0.026601555701442126,73.0628264414452,0.0
1524,-0.030376834018855995,0.025833375579687613,73.22784862862916,0.0
1525,-0.033482527150641206,0.02344513197903192,73.39670597083749,0.0
1526,-0.03761187490989133,0.019806120661785533,73.56939093256004,0.0
1527,-0.042232948453762735,0.01535218179587673,73.74589634486665,0.0
1528,-0.04691396086938116,0.010526124129776791,73.92621537779812,0.0
1529,-0.05135676823175812,0.005728200113755315,74.11034151267629,0.0
1530,-0.05538708253626942,0.0012820535413274226,74.2982685142991,0.0
1531,-0.058918096769106,-0.00258279968368628,74.48999040298746,0.0
1532,-0.06190958730138719,-0.005734369070839828,74.68550142645111,0.0
1533,-0.06434058684635593,-0.008131692048284952,74.8847960314406,0.0
1534,-0.06620310565354091,-0.009812704926090553,75.08786883515349,0.0
1535,-0.067512650263788,-0.0108794634929146,75.29471459636237,0.0
1536,-0.06832394329288581,-0.011481889062672968,75.50532818623334,0.0
1537,-0.06873984599848,-0.011799707383493301,75.7197045588033,0.0
1538,-0.06890663761927524,-0.012021617179437491,75.9378387210848,0.0
1539,-0.06899557296080892,-0.012321175983262387,76.1597257027677,0.0
1540,-0.0691752246757433,-0.01283024996885909,76.38536052548665,0.0
1541,-0.06958004108214608,-0.013612689492620825,76.61473817162391,0.0
1542,-0.07027909179888751,-0.014642571125025329,76.84785355261748,0.0
1543,-0.07124779955182248,-0.015792296061195706,77.08470147674383,0.0
1544,-0.07234648253651828,-0.016835579461775316,77.32527661634624,0.0
1545,-0.0733124513865241,-0.01746866030969454,77.5695734744782,0.0
1546,-0.0737748076647927,-0.01734998733742145,77.81758635093331,0.0
1547,-0.07329995247633452,-0.016154659460308148,78.06930930763204,0.0
1548,-0.07146933760543349,-0.013635850405848183,78.32473613333673,0.0
1549,-0.06797985922884711,-0.009682385485309156,78.58386030766634,0.0
1550,-0.06274494919147,-0.004360589482902637,78.84667496438271,0.0
1551,-0.055966282228034965,0.002069847107057876,79.11317285392053,0.0
1552,-0.04814748626813053,0.009171918806855224,79.38334630513359,0.0
1553,-0.040034733943744884,0.016378971668007804,79.6571871862303,0.0
1554,-0.032491563075678374,0.023066960613415795,79.93468686487223,0.0
1555,-0.026338340507511472,0.028638781875572714,80.2158361674093,0.0
1556,-0.022200334237842036,0.03260539498688896,80.50062533722648,0.0
1557,-0.020405875187890315,0.03464916946247541,80.78904399217753,0.0
1558,-0.02095834017977979,0.03465889040116771,81.08108108108108,1.0
1559,-0.02358044250743533,0.03273201008367913,81.40645293975415,0.0
1560,-0.027807335640465242,0.02914638060367079,81.79392825956572,0.0
1561,-0.0330947046870636,0.024309193066876456,82.24221508034886,0.0
1562,-0.038911596115748064,0.018694030219878855,82.75018788844947,0.0
1563,-0.044801079628062006,0.01277743500815586,83.31686197617111,0.0
1564,-0.050407383236094255,0.006984588538146591,83.94136910965351,0.0
1565,-0.05547904983401586,0.0016504567486913444,84.62293405520029,0.0
1566,-0.05986077765162761,-0.0030008810924297526,85.36085155706911,0.0
1567,-0.06348305886326412,-0.006859239907060525,86.15446339405045,0.0
1568,-0.06635239672199843,-0.009916536389812046,87.0031351699359,0.0
1569,-0.06853988979016334,-0.012244413230665356,87.90623251611754,0.0
1570,-0.07016465571381561,-0.01396599073528523,88.86309640483779,0.0
1571,-0.07137079115058527,-0.015226319796329043,89.87301729073592,0.0
1572,-0.07230041421796128,-0.016165546321136332,90.93520781804577,0.0
1573,-0.0730684379443595,-0.016897942326654085,92.0487738528951,0.0
1574,-0.07374540888302387,-0.01749889842985459,93.21268362657624,0.0
1575,-0.07435266131643638,-0.018000784929327062,94.42573480850345,0.0
1576,-0.07487015003960835,-0.018397377394184383,95.68651936913271,0.0
1577,-0.07525338669796655,-0.01865543480986783,96.99338614589053,0.0
1578,-0.07545359196352455,-0.018731135407789867,98.3444010918087,0.0
1579,-0.07543528529240706,-0.018588497305862463,99.73730526989681,0.0
1580,-0.07518768355526627,-0.018216659229713737,101.16947075915166,0.0
1581,-0.07472925178162554,-0.01764294781339125,102.63785476324843,0.0
1582,-0.07410717183203384,-0.016938984281300275,104.13895236281644,0.0
1583,-0.07339439831190119,-0.01621769235735525,105.66874852861723,0.0
1584,-0.07268603090590176,-0.015620017921806343,107.22267021678726,0.0
1585,-0.0720943464900488,-0.015291533176461675,108.79553959802128,0.0
1586,-0.07173914637766854,-0.015350889437732336,110.38152972760372,0.0
1587,-0.0717287548088226,-0.015854168539825304,111.97412423736834,0.0
1588,-0.07212856814457316,-0.016761214869809103,113.56608291549277,0.0
1589,-0.07291891234972556,-0.017911457126106117,115.1494153230633,0.0
1590,-0.07395086782834713,-0.01901690918892407,116.71536486056972,0.0
1591,-0.07491504915023156,-0.019678443483490033,118.25440592101432,0.0
1592,-0.07534106571761094,-0.019427880505118157,119.75625692234694,0.0
1593,-0.07464216493017009,-0.017793300430401372,121.20991206932904,0.0
1594,-0.07220949440303044,-0.014379217174035385,122.6036946194745,0.0
1595,-0.06754490909390311,-0.008948268755223754,123.92533418428079,0.0
1596,-0.06040448482672872,-0.001488379068142075,125.16207015266792,0.0
1597,-0.0509133358712119,0.007749917189236578,126.30078265190187,0.0
1598,-0.03961241671671104,0.018256772569248212,127.3281515471949,0.0
1599,-0.027412709719782984,0.02931011930441444,128.23084282637387,0.0
1600,-0.015458422938990277,0.04006068530465026,128.99572034430824,0.0
1601,-0.004929491600049307,0.04964082287241568,129.61007936331106,0.0
1602,0.0031664641558759453,0.05727775665242833,130.06189669906075,0.0
1603,0.008159529107749156,0.062390951620676365,130.34009067283935,0.0
1604,0.009801603356563954,0.064657006172031,130.43478260869566,1.0
1605,0.008256351873600982,0.06403276014173923,130.42892266820718,0.0
1606,0.004009053611592269,0.06073620710281242,130.41153904110533,0.0
1607,-0.0022702294079978576,0.05519302224507498,130.3829303672347,0.0
1608,-0.009869582028231351,0.047962123057192635,130.343400671604,0.0
1609,-0.0181488700658154,0.039655611794046565,130.29325885463345,0.0
1610,-0.026603074110534263,0.030866746088775453,130.23281819065267,0.0
1611,-0.03487278066734449,0.022115251250619406,130.16239583586113,0.0
1612,-0.04271588806946901,0.01381388292263637,130.08231234687696,0.0
1613,-0.04996410529404267,0.006255251770801364,129.99289121091155,0.0
1614,-0.056487539900105535,-0.0003853386552332399,129.89445838852,0.0
1615,-0.06218154521711913,-0.006036503919231802,129.787341869789,0.0
1616,-0.06697642787982229,-0.010711776196447576,129.67187124473685,0.0
1617,-0.07085866621141677,-0.01448843114930453,129.54837728861347,0.0
1618,-0.0738870503293299,-0.017486015421404173,129.41719156270386,0.0
1619,-0.07619045342556387,-0.019845441173562885,129.2786460311562,0.0
1620,-0.07794354009036479,-0.02170929805338309,129.1330726942739,0.0
1621,-0.07932752937395227,-0.023204405974375494,128.9808032386355,0.0
1622,-0.08048992339904158,-0.024428146197095796,128.82216870432953,0.0
1623,-0.0815171428661588,-0.02544030896010832,128.65749916952086,0.0
1624,-0.08242808770182664,-0.0262618218407315,128.487123452498,0.0
1625,-0.08318817207844814,-0.02688078812160502,128.3113688312838,0.0
1626,-0.08373630730663585,-0.027265010833154277,128.13056078083508,0.0
1627,-0.08401426455784054,-0.027378944825294023,127.94502272779606,0.0
1628,-0.0839893518631955,-0.02720210067707366,127.75507582272091,0.0
1629,-0.0836659372787876,-0.02674548321758652,127.56103872962971,0.0
1630,-0.08308652008161402,-0.026062708799171972,127.36322743271847,0.0
1631,-0.0823264211167699,-0.02525295452196471,127.16195506000233,0.0
1632,-0.08148653662066918,-0.024453791017775707,126.95753172363433,0.0
1633,-0.0806863007009993,-0.02382321940236658,126.75026437660932,0.0
1634,-0.08005548176913338,-0.023511874595711326,126.5404566855325,0.0
1635,-0.07972058112013912,-0.023628319171082292,126.32840891910763,0.0
1636,-0.07978111741725333,-0.024202435558265928,126.11441785197663,0.0
1637,-0.08027397611597878,-0.02515373080721213,125.89877668352506,0.0
1638,-0.08112999706833549,-0.026272330853389453,125.68177497125163,0.0
1639,-0.08213413499487629,-0.027219964455560252,125.46369857828878,0.0
1640,-0.08290570042721108,-0.027555911979574625,125.24482963465152,0.0
1641,-0.08291530697715342,-0.026788726228160524,125.02544651178658,0.0
1642,-0.0815487123985493,-0.024449086826722432,124.80582380999006,0.0
1643,-0.0782155514706202,-0.020173536305187395,124.58623235826059,0.0
1644,-0.0724859482560904,-0.013784507633748628,124.36693922615827,0.0
1645,-0.06422455633681846,-0.005350387217850252,124.14820774724133,0.0
1646,-0.05368469125849366,0.0047887275122945605,123.93029755366115,0.0
1647,-0.04152908886083341,0.016038370874192638,123.71346462150187,0.0
1648,-0.028759823548902608,0.027610730981004965,123.49796132646317,0.0
1649,-0.016564774686841897,0.038620862157112405,123.28403650949409,0.0
1650,-0.006113821967830779,0.048201905589330525,123.07193555200149,0.0
1651,0.0016450958905814097,0.055618823425901145,122.86190046026896,0.0
1652,0.006138941875647629,0.06036039648621349,122.65416995874017,0.0
1653,0.00723620145827905,0.06219400816919446,122.44897959183673,1.0
1654,0.005218122600245229,0.061175791474124726,122.24393299050791,0.0
1655,0.0006723352964190126,0.05761796278282338,122.03646857482612,0.0
1656,-0.005655193472030206,0.05202329662323837,121.82657231863207,0.0
1657,-0.01300870479101917,0.04500184809358823,121.61423095423298,0.0
1658,-0.02073740408394691,0.03718627977591149,121.39943197772648,0.0
1659,-0.02835692928931394,0.029159686613307326,121.1821636540609,0.0
1660,-0.03555568113738879,0.021404769965049586,120.96241502182316,0.0
1661,-0.04215990998595975,0.014277244705532597,120.74017589774562,0.0
1662,-0.048081123434738256,0.008001111670407856,120.51543688092379,0.0
1663,-0.053270149709743544,0.0026800531319994027,120.2881893567366,0.0
1664,-0.05769405701365551,-0.001681872217377662,120.05842550046157,0.0
1665,-0.06133874323916191,-0.005156174586398108,119.82613828057745,0.0
1666,-0.06422744001706733,-0.007866446846386177,119.5913214617469,0.0
1667,-0.0664390622542537,-0.009967213347527981,119.35396960747237,0.0
1668,-0.06811230274079404,-0.011625333501848583,119.11407808241871,0.0
1669,-0.06942954283266717,-0.013003580220763809,118.87164305439603,0.0
1670,-0.07058444787056387,-0.014246238899399813,118.62666149599677,0.0
1671,-0.07174404051666317,-0.01546719572511348,118.3791311858817,0.0
1672,-0.0730176710926292,-0.016741506425773326,118.12905070970942,0.0
1673,-0.0744418760567876,-0.018101506056988473,117.87641946070399,0.0
1674,-0.07598384907963461,-0.019538049627946683,117.62123763985704,0.0
1675,-0.07756000426602346,-0.02100663267310206,117.36350625575948,0.0
1676,-0.07906215997958543,-0.022437251807632813,117.10322712405936,0.0
1677,-0.08038317580151218,-0.023746252457529586,116.84040286654229,0.0
1678,-0.08143598499386528,-0.024848275323571666,116.5750369098317,0.0
1679,-0.0821634696187707,-0.02566676943305279,116.30713348370595,0.0
1680,-0.08253992637420354,-0.026142228794842515,116.03669761903078,0.0
1681,-0.08256689966431684,-0.02623806922650843,115.76373514530454,0.0
1682,-0.08226667742473735,-0.025944621195122843,115.48825268781547,0.0
1683,-0.08167615767451242,-0.02528188144415102,115.2102576644097,0.0
1684,-0.08084271577731328,-0.02430138305106723,114.92975828186995,0.0
1685,-0.07982263050363476,-0.023086903063934183,114.64676353190434,0.0
1686,-0.0786818124040247,-0.021752950978165805,114.36128318674619,0.0
1687,-0.07749800776964309,-0.02043937099816106,114.07332779436491,0.0
1688,-0.07636307495467581,-0.01930025573768675,113.78290867329028,0.0
1689,-0.07538304522544488,-0.01848594483667034,113.49003790705045,0.0
1690,-0.07467255173872654,-0.018118249175827546,113.19472833822704,0.0
1691,-0.07433962825219992,-0.018261057654082657,112.89699356212886,0.0
1692,-0.07445813842745402,-0.01889075621481061,112.59684792008774,0.0
1693,-0.07502904912824196,-0.01987281178324185,112.29430649237979,0.0
1694,-0.07593779901365638,-0.02095174494977174,111.98938509077549,0.0
1695,-0.07692093143015762,-0.02176092745223727,111.68210025072334,0.0
1696,-0.0775581290305635,-0.02185590457308086,111.37246922317124,0.0
1697,-0.07730367071021745,-0.02077047306799474,111.06050996603082,0.0
1698,-0.07556346230851105,-0.018089331202106408,110.74624113529003,0.0
1699,-0.07181115417786035,-0.013526020401626163,110.42968207578006,0.0
1700,-0.06572220488826278,-0.006991548353214479,110.11085281160197,0.0
1701,-0.05729268940023881,0.0013612502051108186,109.78977403622063,0.0
1702,-0.04690581296641387,0.011129313096550332,109.46646710223219,0.0
1703,-0.03531770146187557,0.021692138077561852,109.14095401081228,0.0
1704,-0.02355481216430317,0.03228261281770767,108.8132574008531,0.0
1705,-0.012742054240684383,0.042084476786849845,108.48340053779661,0.0
1706,-0.003903362342745539,0.05033899563543483,108.15140730217276,0.0
1707,0.0022141486184321726,0.05644132517568668,107.8173021778507,0.0
1708,0.005248906462223468,0.06000946673026074,107.4811102400124,0.0
1709,0.005244119312400831,0.06091504861569136,107.14285714285714,1.0
1710,0.0025815699994641175,0.05927371970604747,106.78982726948495,0.0
1711,-0.002143530709501407,0.05540145526856434,106.41019884212218,0.0
1712,-0.008267925483558584,0.049749399814933225,106.00534814474008,0.0
1713,-0.015187216459684088,0.04283256719112384,105.57665943984297,0.0
1714,-0.022435962468964718,0.03516642729881484,105.12551945293303,0.0
1715,-0.02970929288233803,0.027220887182294463,104.6533121785062,0.0
1716,-0.036832298593944976,0.019394996816030702,104.16141402561868,0.0
1717,-0.043697816162972226,0.01200976323097501,103.65118931612977,0.0
1718,-0.05020028253936873,0.00531237681572003,103.1239861440704,0.0
1719,-0.05619145017950205,-0.0005161231216855768,102.58113260026452,0.0
1720,-0.0614738400546595,-0.005356169521643819,102.02393336236678,0.0
1721,-0.06583322004795898,-0.009150858918669666,101.4536666469049,0.0
1722,-0.06909700763410354,-0.011911722525614857,100.87158151673967,0.0
1723,-0.07119619366484689,-0.013724431555782115,100.27889553458431,0.0
1724,-0.07220726616397095,-0.014748346863209258,99.67679275085325,0.0
1725,-0.07235770137390404,-0.015204718627379479,99.06642201213009,0.0
1726,-0.07199083975482667,-0.015351262645587956,98.44889557493752,0.0
1727,-0.07149867784879024,-0.015444872755475875,97.8252880082364,0.0
1728,-0.07123997236757469,-0.01569817032280221,97.19663536715737,0.0
1729,-0.07146376898168882,-0.016238306720971426,96.56393461984307,0.0
1730,-0.07225529017964433,-0.017077157492368267,95.92814330892992,0.0
