,PPG_Raw,PPG_Clean,PPG_Rate,PPG_Peaks
0,-0.05843603383264121,0.0032390660743101913,99.56808365537623,0.0
1,-0.057939116030383694,0.00378647994353566,99.56808365537623,0.0
2,-0.05727053493286108,0.004424362327992513,99.56808365537623,0.0
3,-0.056301278815658586,0.0052228382492884645,99.56808365537623,0.0
4,-0.05498067526576897,0.006219206834966563,99.56808365537623,0.0
5,-0.053345322469944695,0.007411159114172684,99.56808365537623,0.0
6,-0.05150405967001551,0.008758672912145458,99.56808365537623,0.0
7,-0.04960508605236894,0.010193569712195396,99.56808365537623,0.0
8,-0.04779611364181301,0.011633914166884387,99.56808365537623,0.0
9,-0.04618951865949901,0.012999516157840433,99.56808365537623,0.0
10,-0.044841940765549024,0.014224948351033852,99.56808365537623,0.0
11,-0.04375264677297487,0.015267577370101783,99.56808365537623,0.0
12,-0.042878778653384554,0.01610971810838184,99.56808365537623,0.0
13,-0.042160261029170545,0.01675563537609379,99.56808365537623,0.0
14,-0.04154449324342854,0.017225269479680477,99.56808365537623,0.0
15,-0.04100202098995038,0.017546987051162886,99.56808365537623,0.0
16,-0.04052872851677574,0.01775135485734284,99.56808365537623,0.0
17,-0.04013582306567569,0.01786713516131051,99.56808365537623,0.0
18,-0.039833531126631565,0.017919762393413544,99.56808365537623,0.0
19,-0.03961617818360676,0.017931818219009243,99.56808365537623,0.0
20,-0.03945482555573608,0.017924670784480935,99.56808365537623,0.0
21,-0.03929994138128158,0.01792048470540463,99.56808365537623,0.0
22,-0.03909243121647219,0.017944075323050222,99.56808365537623,0.0
23,-0.03877834340608465,0.01802433385904055,99.56808365537623,0.0
24,-0.038321603916537744,0.018194992093999395,99.56808365537623,0.0
25,-0.037710312697881235,0.018494266495856043,99.56808365537623,0.0
26,-0.03695487292091847,0.018962537449540125,99.56808365537623,0.0
27,-0.03607956038800424,0.019636934526211597,99.56808365537623,0.0
28,-0.03511199828336546,0.020541813115166584,99.56808365537623,0.0
29,-0.03407644356745676,0.021674839669175387,99.56808365537623,0.0
30,-0.03299621780379265,0.022989775759807547,99.56808365537623,0.0
31,-0.0319079273142319,0.024378831506415073,99.56808365537623,0.0
32,-0.03088580818122946,0.025659173139913522,99.56808365537623,0.0
33,-0.030069679479366927,0.026569206297867083,99.56808365537623,0.0
34,-0.02968609373086274,0.026780036112827782,99.56808365537623,1.0
35,-0.030050900446421298,0.02592567204996809,98.9375370626333,0.0
36,-0.03154368239891352,0.023652132643217687,98.31511509363226,0.0
37,-0.0345504404056522,0.019681112114985053,97.7008480669704,0.0
38,-0.03937928693929947,0.013879219162447252,97.09476104749672,0.0
39,-0.04616277007371343,0.006320158656505706,96.49687416333232,0.0
40,-0.054767569327681974,-0.0026742550306525503,95.90720291166441,0.0
41,-0.06473542595714746,-0.012526882736446927,95.32575845352305,0.0
42,-0.07527671408187739,-0.02243983400728291,94.75254789776797,0.0
43,-0.0853300787693187,-0.031471595399641346,94.18757457452881,0.0
44,-0.09368931540015142,-0.03864897857690088,93.63083829835598,0.0
45,-0.099183683218873,-0.043098196209655264,93.08233562135096,0.0
46,-0.10088236136378724,-0.04417389276016987,92.54206007655381,0.0
47,-0.09828153800072847,-0.041563504210113816,92.01000241187384,0.0
48,-0.0914286675644069,-0.035347603805284365,91.4861508148552,0.0
49,-0.08094710252530421,-0.0260044802576992,90.97049112857287,0.0
50,-0.06794655496900617,-0.01435752014902452,90.46300705895962,0.0
51,-0.0538358891372745,-0.001474657108100217,89.96368037386334,0.0
52,-0.04008421111204415,0.011462337404703843,89.4724910941383,0.0
53,-0.027991952472928957,0.023296594179711368,88.98941767707133,0.0
54,-0.018527946098538844,0.03302141355965037,88.51443719244388,0.0
55,-0.012262951227832516,0.0398755712275523,88.04752549152973,0.0
56,-0.009395399530843097,0.04339982164647845,87.5886573693245,0.0
57,-0.00983582293294605,0.04345373441236286,87.13780672030158,0.0
58,-0.013303838596144615,0.0401982396433022,86.69494668798487,0.0
59,-0.019399132843472333,0.03405259221742058,86.26004980862554,0.0
60,-0.027630353260649488,0.025634882359156102,85.83308814926575,0.0
61,-0.03741206699112679,0.01569368878942667,85.41403344046802,0.0
62,-0.048057898975397806,0.00503639599790574,85.00285720398477,0.0
63,-0.05879982128164881,-0.005541719040483327,84.59953087563765,0.0
64,-0.06884928891010482,-0.01532376100396399,84.20402592367192,0.0
65,-0.07749323700225337,-0.02372832117496851,83.81631396284628,0.0
66,-0.08419841410395006,-0.030352177189548232,83.43636686451416,0.0
67,-0.08869044545843831,-0.03499354613536042,83.06415686294761,0.0
68,-0.09098185610195193,-0.03765251392919118,82.6996566581507,0.0
69,-0.09134115691606252,-0.03850831979978971,82.3428395154047,0.0
70,-0.09021433016973182,-0.03787692377398348,81.99367936178348,0.0
71,-0.08812296112140741,-0.0361556932067152,81.65215087987313,0.0
72,-0.0855662805131053,-0.0337641397063225,81.31822959892652,0.0
73,-0.08294843210279916,-0.031089852892234402,80.99189198367921,0.0
74,-0.08054122041755092,-0.02844711369733547,80.67311552105073,0.0
75,-0.0784811226888784,-0.02605264876568579,80.36187880495157,0.0
76,-0.0767912234192009,-0.024019437580300604,80.05816161941368,0.0
77,-0.0754156620085512,-0.022366263741654683,79.7619450202603,0.0
78,-0.07425561303227536,-0.02103845942321684,79.47321141552828,0.0
79,-0.07319966377245067,-0.019934330838156288,79.19194464485498,0.0
80,-0.07214545065261982,-0.018932020510571863,78.91813005804039,0.0
81,-0.07101222991876556,-0.017912738773786796,78.65175459299405,0.0
82,-0.06974555636608594,-0.01677792907584548,78.39280685327665,0.0
83,-0.0683159973921868,-0.015459569506667424,78.14127718544529,0.0
84,-0.06671434351391087,-0.013924112932238875,77.8971577564129,0.0
85,-0.06494610781409371,-0.012171348883120305,77.66044263103258,0.0
86,-0.06302782092925707,-0.010229721298756949,77.43112785011984,0.0
87,-0.060986389078203695,-0.008149485952779928,77.20921150912733,0.0
88,-0.05886084058748468,-0.005994747024142684,76.99469383769002,0.0
89,-0.05670401638905885,-0.003835084872906203,76.78757728026113,0.0
90,-0.054581156542429295,-0.001737321927973226,76.58786657806435,0.0
91,-0.05256335938728863,0.0002419939915664568,76.39556885259155,0.0
92,-0.05071616137448673,0.0020626582566248405,76.2106936908811,0.0
93,-0.049085990797139364,0.003704582844753992,76.03325323281767,0.0
94,-0.04768886420184515,0.005168506957115079,75.86326226070226,0.0
95,-0.046505671663927564,0.006473247690145458,75.70073829134736,0.0
96,-0.04548661271605197,0.0076497353669863506,75.545701670963,0.0
97,-0.044564333017165676,0.008732849841610955,75.39817567310692,0.0
98,-0.04367214011632073,0.00975275308328322,75.25818659998491,0.0
99,-0.042761623682977715,0.010727768362870161,75.12576388739755,0.0
100,-0.04181403310330597,0.011660726456155674,75.0009402136435,0.0
101,-0.04084198751095254,0.012540050234707872,74.8837516127034,0.0
102,-0.03988159877358612,0.013345787881116294,74.77423759204434,0.0
103,-0.03897832471525392,0.014059550640132583,74.67244125540138,0.0
104,-0.03817144630776148,0.014676136013471196,74.57840943091196,0.0
105,-0.03748151056151124,0.015213784881122901,74.49219280499864,0.0
106,-0.036903091338027286,0.01571973831145405,74.4138460624182,0.0
107,-0.036403172648134634,0.016268153949144316,74.3434280329189,0.0
108,-0.03592454176388258,0.01694855095228961,74.28100184497397,0.0
109,-0.035394074249125294,0.017844715777892053,74.226635087088,0.0
110,-0.03473694657537101,0.019006238836709155,74.18039997720352,0.0
111,-0.03389830921247385,0.020417240450035356,74.14237354076884,0.0
112,-0.03287266212954284,0.021968909999195055,74.11263779806475,0.0
113,-0.03173777649583877,0.023443643407902143,74.09127996142739,0.0
114,-0.030685286719425987,0.024518242686044342,74.07839264304762,0.0
115,-0.03003583079203751,0.02479143361384452,74.07407407407408,1.0
116,-0.03022516425861665,0.02383682899497691,74.07407407407408,0.0
117,-0.031751009017651446,0.021276898330842654,74.07407407407408,0.0
118,-0.03507916942134223,0.016867531543406637,74.07407407407408,0.0
119,-0.04052021286303637,0.010577843383846638,74.07407407407408,0.0
120,-0.048101290613647624,0.0026474874949161493,74.07407407407408,0.0
121,-0.057466929113664,-0.0063948731697372405,74.07407407407408,0.0
122,-0.0678437448510763,-0.015762738439611453,74.07407407407408,0.0
123,-0.07809473516087359,-0.02449429279468371,74.07407407407408,0.0
124,-0.086869553852034,-0.0315770788422241,74.07407407407408,0.0
125,-0.09283169950888814,-0.03609540707399516,74.07407407407408,0.0
126,-0.09491844336752392,-0.03737424080092721,74.07407407407408,0.0
127,-0.09257269080620162,-0.03509193420382262,74.07407407407408,0.0
128,-0.08588487984085394,-0.02933918041353467,74.07407407407408,0.0
129,-0.07560075105374214,-0.020612047409136306,74.07407407407408,0.0
130,-0.06298475728840279,-0.009740660212580039,74.07407407407408,0.0
131,-0.04956998700579486,0.0022314669543646495,74.07407407407408,0.0
132,-0.03686024644988723,0.01419270172049471,74.07407407407408,0.0
133,-0.026065075401737737,0.02510488187107058,74.07407407407408,0.0
134,-0.017936850521775422,0.03411635036122307,74.07407407407408,0.0
135,-0.012743984394846015,0.0406306827583287,74.07407407407408,0.0
136,-0.010368481570864271,0.04432730770621537,74.07407407407408,0.0
137,-0.010476924974663168,0.04514147071134521,74.07407407407408,0.0
138,-0.012695438987211781,0.04321845404927581,74.07407407407408,0.0
139,-0.01672689354356978,0.0388589799824539,74.07407407407408,0.0
140,-0.022378042254706305,0.03246949409357982,74.07407407407408,0.0
141,-0.029503056567377357,0.024524405557754078,74.07407407407408,0.0
142,-0.0379027977605697,0.015540094401719643,74.07407407407408,0.0
143,-0.047233923466411906,0.006055197088277174,74.07407407407408,0.0
144,-0.05697395567476102,-0.003390051001399483,74.07407407407408,0.0
145,-0.06646241909830658,-0.01228067607704816,74.07407407407408,0.0
146,-0.0750058797421231,-0.02016086194119461,74.07407407407408,0.0
147,-0.08200980446183413,-0.026670818608692595,74.07407407407408,0.0
148,-0.08709202164518075,-0.03157916265191984,74.07407407407408,0.0
149,-0.09014251528429836,-0.03480268002436961,74.07407407407408,0.0
150,-0.09131593639074702,-0.036407547716715886,74.07407407407408,0.0
151,-0.09096644914223212,-0.036590302531889246,74.07407407407408,0.0
152,-0.08955051887746589,-0.03564160470832871,74.07407407407408,0.0
153,-0.08752781359289667,-0.0338996656723064,74.07407407407408,0.0
154,-0.08528452392802431,-0.031702068646680986,74.07407407407408,0.0
155,-0.08309155437312352,-0.02934430134303956,74.07407407407408,0.0
156,-0.08109754425627669,-0.027051032233641546,74.07407407407408,0.0
157,-0.07934766626629486,-0.0249628479450504,74.07407407407408,0.0
158,-0.07781544497439243,-0.023137809944999043,74.07407407407408,0.0
159,-0.07643593987826404,-0.021564590489311003,74.07407407407408,0.0
160,-0.07513255204167611,-0.020182556704802637,74.07407407407408,0.0
161,-0.07383418762571417,-0.018904032347123977,74.07407407407408,0.0
162,-0.07248306497232238,-0.017634804236914672,74.07407407407408,0.0
163,-0.071035663239295,-0.016290310266632958,74.07407407407408,0.0
164,-0.06946035163969491,-0.014806393814584061,74.07407407407408,0.0
165,-0.06773523184809022,-0.013144693836379711,74.07407407407408,0.0
166,-0.06584858803960783,-0.011293493594822783,74.07407407407408,0.0
167,-0.06380220729598333,-0.00926517777772645,74.07407407407408,0.0
168,-0.06161551407991935,-0.007091468321753759,74.07407407407408,0.0
169,-0.05932723717418896,-0.0048174820174872145,74.07407407407408,0.0
170,-0.056992095788700264,-0.0024955012896437628,74.07407407407408,0.0
171,-0.054672468539865716,-0.0001792217802726575,74.07407407407408,0.0
172,-0.05242775538166712,0.002080886043661679,74.07407407407408,0.0
173,-0.050305500250309367,0.004240643200867995,74.07407407407408,0.0
174,-0.04833754017485527,0.006263465900281564,74.07407407407408,0.0
175,-0.046542023036629965,0.008120055676133057,74.07407407407408,0.0
176,-0.044929462178868736,0.009786967456625736,74.07407407407408,0.0
177,-0.04350939437681383,0.011244799701366095,74.07407407407408,0.0
178,-0.04229429589937899,0.012476838347359983,74.07407407407408,0.0
179,-0.041298946564963045,0.013468882136000598,74.07407407407408,0.0
180,-0.04053557365913347,0.014210708733776261,74.07407407407408,0.0
181,-0.04000688069851246,0.014699272226598387,74.07407407407408,0.0
182,-0.039699788677607,0.014943320650726942,74.07407407407408,0.0
183,-0.03958222609236343,0.014968733780654865,74.07407407407408,0.0
184,-0.039603929692661036,0.014823526845783974,74.07407407407408,0.0
185,-0.03970059589025046,0.014581157708340134,74.07407407407408,0.0
186,-0.0397995446742336,0.014340549756744102,74.07407407407408,0.0
187,-0.039824842890789275,0.01422118738182094,74.07407407407408,0.0
188,-0.03970076236243821,0.014351894351391588,74.07407407407408,0.0
189,-0.039354270179993024,0.014852622117017955,74.07407407407408,0.0
190,-0.03871926932523126,0.015809853132367824,74.07407407407408,0.0
191,-0.03774651044334276,0.017248017737255043,74.07407407407408,0.0
192,-0.03642246789562478,0.019101372660496264,74.07407407407408,0.0
193,-0.03479749552985656,0.021192608318914504,74.07407407407408,0.0
194,-0.03301864441803858,0.023225398260157973,74.07407407407408,0.0
195,-0.03135704827092446,0.02479753782666937,74.07407407407408,0.0
196,-0.030215898798794667,0.02543882282739911,74.07407407407408,1.0
197,-0.030104999754431382,0.024673414749125724,74.0744991736787,0.0
198,-0.031573267427072206,0.022100726677403072,74.07576021213445,0.0
199,-0.035101318771116816,0.017483007888060283,74.07783583917528,0.0
200,-0.04097025711529968,0.010823331512628605,74.08070475443789,0.0
201,-0.04913573518368814,0.0024161167191064136,74.08434570283062,0.0
202,-0.05914334018620747,-0.007145301537371336,74.08873747003169,0.0
203,-0.07011833283287566,-0.017013024172938384,74.09385887811574,0.0
204,-0.08084864518167204,-0.02618008523634701,74.09968878130711,0.0
205,-0.0899575053194736,-0.03361527473720488,74.1062060618587,0.0
206,-0.09613722676965647,-0.038415680035965655,74.1133896260555,0.0
207,-0.09839612311916957,-0.039949369021579834,74.12121840034153,0.0
208,-0.09626241840212042,-0.03796034766237616,74.12967132756974,0.0
209,-0.08989524518998612,-0.0326139019789713,74.13872736337345,0.0
210,-0.0800721918061951,-0.02447172606900839,74.14836547265912,0.0
211,-0.0680509113766588,-0.014400481088854382,74.15856462621983,0.0
212,-0.05533243272040951,-0.003431381342810529,74.16930379746834,0.0
213,-0.04337855219728938,0.007401266053645885,74.18056195929023,0.0
214,-0.033348250429754665,0.01721048584488399,74.19231808101569,0.0
215,-0.02591420858373943,0.025367047716141445,74.20455112551056,0.0
216,-0.02120020984900691,0.031550555417675846,74.21724004638577,0.0
217,-0.018848579681233383,0.035735770887249385,74.2303637853252,0.0
218,-0.018192913701495946,0.03812340862851981,74.24390126953205,0.0
219,-0.018485201857461057,0.03903654375028087,74.25783140929326,0.0
220,-0.01911538033855924,0.038810103812222385,74.27213309566251,0.0
221,-0.019767467051277472,0.03770032496874812,74.28678519826131,0.0
222,-0.02047669087365746,0.03583400042570099,74.30176656319888,0.0
223,-0.021579949524710117,0.03320590269239658,74.3170560111104,0.0
224,-0.023580002444810743,0.02972000977053381,74.3326323353145,0.0
225,-0.026965235143631795,0.025259378068734968,74.3484743000897,0.0
226,-0.03203667405935894,0.01976327607947148,74.36456063907043,0.0
227,-0.038789870708159625,0.013289803354719482,74.38087005376293,0.0
228,-0.046882324182154274,0.006047371646172258,74.39738121218133,0.0
229,-0.055691912045109836,-0.00161258798364999,74.41407274760446,0.0
230,-0.06444584476346259,-0.009239085142530676,74.43092325745384,0.0
231,-0.0723810764890551,-0.01634979562133617,74.44791130229316,0.0
232,-0.07889159123093657,-0.02250740383918842,74.46501540495007,0.0
233,-0.0836264152137662,-0.027386697473557806,74.48221404976042,0.0
234,-0.08652039107548536,-0.03081857608286518,74.49948568193608,0.0
235,-0.08776050542435648,-0.03280355986867206,74.51680870705623,0.0
236,-0.08770689429085837,-0.03349479061180505,74.53416149068322,0.0
237,-0.08679535008668543,-0.033156999007662766,74.55152235810348,0.0
238,-0.08544676627928594,-0.032112073423723034,74.56886959419388,0.0
239,-0.08400110852462654,-0.03068309475118858,74.58618144341449,0.0
240,-0.08268321624038423,-0.02914719928484281,74.60343610992815,0.0
241,-0.0815986345464927,-0.027704206535713326,74.62061175784737,0.0
242,-0.08075180981952183,-0.026463705843294254,74.63768651160946,0.0
243,-0.0800766897918016,-0.025449307234947156,74.65463845648036,0.0
244,-0.07947029090167737,-0.02461582253645606,74.67144563918757,0.0
245,-0.0788220623553441,-0.023873645719017476,74.68808606868318,0.0
246,-0.07803494078288092,-0.023114541327205147,74.7045377170371,0.0
247,-0.07703705258017055,-0.02223411704807732,74.72077852046145,0.0
248,-0.07578538535410748,-0.021147979279146512,74.73678638046628,0.0
249,-0.07426395166192426,-0.01980045744369846,74.75253916514748,0.0
250,-0.07247899112877887,-0.0181664315840899,74.76801471060689,0.0
251,-0.07045305384250364,-0.016247953932415946,74.78319082250555,0.0
252,-0.06821903220111815,-0.014067920453377587,74.79804527775008,0.0
253,-0.06581481902407148,-0.01166305351023425,74.8125558263127,0.0
254,-0.06327926979852001,-0.00907801809391789,74.82670019318539,0.0
255,-0.06065014884704929,-0.0063617706232202914,74.84045608046792,0.0
256,-0.05796434990339485,-0.003566400608968529,74.85380116959064,0.0
257,-0.055259915959502234,-0.0007479300203682652,74.86671312367176,0.0
258,-0.05257870091642889,0.0020320823473007794,74.87916959000924,0.0
259,-0.0499683895198408,0.004705621434527584,74.89114820270751,0.0
260,-0.04748302186814011,0.007199463997728389,74.90262658543892,0.0
261,-0.04518166402738743,0.009439703499015533,74.91358235433977,0.0
262,-0.043124954835867785,0.011359948714423697,74.92399312104088,0.0
263,-0.04136901189561423,0.012912623743901541,74.93383649583231,0.0
264,-0.039956204124693355,0.014081715270832733,74.94309009096217,0.0
265,-0.03890317318327597,0.0148943236750941,74.9517315240688,0.0
266,-0.0381881611608815,0.015427725873352505,74.95973842174612,0.0
267,-0.0377414101490402,0.015808598691252493,74.96708842324153,0.0
268,-0.037443154496732335,0.016201771053647143,74.97375918428548,0.0
269,-0.037132965309048235,0.016787432222139825,74.97972838105244,0.0
270,-0.03663207525464994,0.017728000608211926,74.98497371425178,0.0
271,-0.03577747013668915,0.019128528754493935,74.98947291334834,0.0
272,-0.03446372663673677,0.020997079909918236,74.99320374091099,0.0
273,-0.03268627887107134,0.02321334530216513,74.99614399708842,0.0
274,-0.03057810941180832,0.0255142662005271,74.99827152421096,0.0
275,-0.028430706332324068,0.02750411224428869,74.99956421151654,0.0
276,-0.026689703005716717,0.028693171083653372,75.0,1.0
277,-0.02591677822110731,0.028564166723886265,74.99983222532043,0.0
278,-0.026713487568871503,0.02665946912611318,74.99933015002578,0.0
279,-0.029610631106658798,0.02267624788232535,74.99849565386243,0.0
280,-0.034937802031640174,0.016552380652523884,74.99733062528381,0.0
281,-0.04269896983693115,0.008524527592669496,74.99583696128393,0.0
282,-0.05248689239343305,-0.0008577295916346013,74.99401656723145,0.0
283,-0.06346766301283956,-0.010771256492356003,74.99187135670388,0.0
284,-0.0744549198390321,-0.02021209186962857,74.98940325132254,0.0
285,-0.08407291749045555,-0.0281302724916768,74.98661418058772,0.0
286,-0.09098399330113302,-0.033585456849880554,74.9835060817145,0.0
287,-0.09413594619471939,-0.03589559423010173,74.9800808994689,0.0
288,-0.09297476642481106,-0.03474995338425016,74.97634058600474,0.0
289,-0.08757150325047329,-0.030263173332753267,74.97228710070088,0.0
290,-0.07862872003956153,-0.02295789325403911,74.96792240999918,0.0
291,-0.06735853381382625,-0.013677788440227079,74.96324848724282,0.0
292,-0.05525470455249958,-0.0034473291102432744,74.95826731251547,0.0
293,-0.043808116821148727,0.0066941041449382985,74.952980872481,0.0
294,-0.03423071145666318,0.015850740092746212,74.94739116022363,0.0
295,-0.0272520619956833,0.02339053802478091,74.94150017508913,0.0
296,-0.02303447394747669,0.02900483282585383,74.93530992252637,0.0
297,-0.021221556657806773,0.03269927311180652,74.92882241392972,0.0
298,-0.02110094103646067,0.03472325316293788,74.92203966648214,0.0
299,-0.021834323683312173,0.035458373176982735,74.91496370299896,0.0
300,-0.022694442061853178,0.03529457418040932,74.90759655177254,0.0
301,-0.023251040449841092,0.03452369625807722,74.89994024641757,0.0
302,-0.02346391894855128,0.03327426854055664,74.89199682571716,0.0
303,-0.023665637963143908,0.031500039089523826,74.88376833346983,0.0
304,-0.024443456277520956,0.029021023292810633,74.87525681833728,0.0
305,-0.02645399192653909,0.025603108670494285,74.86646433369295,0.0
306,-0.030220008464340163,0.021053549892040058,74.85739293747143,0.0
307,-0.03596283754940813,0.015306956231956229,74.84804469201883,0.0
308,-0.043514423083644206,0.008479992777195699,74.83842166394398,0.0
309,-0.0523312331276852,0.000881764882466155,74.82852592397046,0.0
310,-0.06160378086987922,-0.00702171750131563,74.81835954678962,0.0
311,-0.07042883471707863,-0.014679487056884745,74.80792461091454,0.0
312,-0.0779954168410476,-0.021546401952541754,74.7972231985349,0.0
313,-0.08373557943631602,-0.0271719270629422,74.78625739537267,0.0
314,-0.08740575898748765,-0.03126801637754939,74.77502929053908,0.0
315,-0.08908775524280425,-0.03374337897755352,74.76354097639225,0.0
316,-0.08912132154484816,-0.03469989721630826,74.75179454839598,0.0
317,-0.087995825529547,-0.03439547185043096,74.73979210497947,0.0
318,-0.08623324209459746,-0.033184095254860754,74.7275357473982,0.0
319,-0.08428985722333074,-0.03144726402972002,74.7150275795956,0.0
320,-0.08249324878581983,-0.029530660622539895,74.70226970806588,0.0
321,-0.08101888949392903,-0.02769695430104272,74.68926424171804,0.0
322,-0.07990072845314615,-0.02610075662902316,74.67601329174067,0.0
323,-0.07906432385487164,-0.024786554810872746,74.66251897146809,0.0
324,-0.07836980202433097,-0.02370600098584277,74.64878339624731,0.0
325,-0.07765408276518863,-0.022748012251623977,74.63480868330628,0.0
326,-0.07676567874297503,-0.021774005573149832,74.62059695162318,0.0
327,-0.07558916113687626,-0.020651097979312735,74.60615032179679,0.0
328,-0.07405895775839186,-0.019277805371096673,74.59147091591801,0.0
329,-0.07216337442139198,-0.017599113735168925,74.57656085744243,0.0
330,-0.06994020153728119,-0.015610236837713556,74.56142227106416,0.0
331,-0.06746566546790866,-0.013350488199624387,74.54605728259072,0.0
332,-0.06483903183182331,-0.0108902050834252,74.53046801881909,0.0
333,-0.062165604567734754,-0.00831443877475161,74.51465660741295,0.0
334,-0.059540852933131695,-0.005707163592338518,74.49862517678099,0.0
335,-0.05703791545698757,-0.003139146297377193,74.4823758559565,0.0
336,-0.054700065139759814,-0.0006615141008493213,74.46591077447815,0.0
337,-0.05253914456334185,0.001694335428839652,74.44923206227179,0.0
338,-0.050540447255845534,0.0039112953100907824,74.43234184953364,0.0
339,-0.048673703949767264,0.005977666789220026,74.41524226661458,0.0
340,-0.046908467306560744,0.007877772771052177,74.39793544390555,0.0
341,-0.04523046491261803,0.009585242592071505,74.38042351172442,0.0
342,-0.04365413633248165,0.011061650237095004,74.36270860020372,0.0
343,-0.04222651565869797,0.012261980865883492,74.34479283917992,0.0
344,-0.04101940977302706,0.013146654713195902,74.32667835808374,0.0
345,-0.040110163966688636,0.013697883514029245,74.30836728583165,0.0
346,-0.0395551054795915,0.013936410741438228,74.28986175071883,0.0
347,-0.03936263240720717,0.013933652019855115,74.27116388031301,0.0
348,-0.0394738741502669,0.013814278089787076,74.25227580134997,0.0
349,-0.03975766552839322,0.013745553367655927,74.23319963962985,0.0
350,-0.04002373118436764,0.01391218465184377,74.21393751991498,0.0
351,-0.04005428864352747,0.014478695785135583,74.19449156582898,0.0
352,-0.03965051575070053,0.015544832572940715,74.17486389975684,0.0
353,-0.03868700423470214,0.017102471726057812,74.1550566427465,0.0
354,-0.037164707476625355,0.019004187344032617,74.13507191441161,0.0
355,-0.035251174052189284,0.02095337912872963,74.11491183283549,0.0
356,-0.03329634627092368,0.022523341935934454,74.09457851447641,0.0
357,-0.03181348108332115,0.02320794320907076,74.07407407407408,1.0
358,-0.03141865131339229,0.02250027484743884,74.04855591200752,0.0
359,-0.032729485425769186,0.019988860345321338,74.01332864254847,0.0
360,-0.036234065433149276,0.015455184977819312,73.96862033387902,0.0
361,-0.04215234480854574,0.00895301704901046,73.91466544164929,0.0
362,-0.05032151370094704,0.0008504528335145358,73.85170423869346,0.0
363,-0.06013923830083688,-0.00817957952235452,73.77998224887658,0.0
364,-0.07059163198653207,-0.017225876018517754,73.6997496870502,0.0
365,-0.08037605717416864,-0.02525684721435679,73.61126090697502,0.0
366,-0.08810581877143234,-0.03127257013653049,73.51477385894594,0.0
367,-0.09256061880535012,-0.034464851764618505,73.41054955872633,0.0
368,-0.09293019159330201,-0.03435504699458655,73.29885156926666,0.0
369,-0.08899427983837077,-0.03088159864516741,73.1799454965498,0.0
370,-0.08119239951746618,-0.02441786429872455,73.05409850077147,0.0
371,-0.07056019446489237,-0.01571423843702858,72.92157882393035,0.0
372,-0.05854042027217404,-0.0057740415605246065,72.78265533477051,0.0
373,-0.04670783159456144,0.004313360457468031,72.63759709188858,0.0
374,-0.036469769249559435,0.013549524539470741,72.48667292569147,0.0
375,-0.02881113364921999,0.021179120503180195,72.33015103976693,0.0
376,-0.024141136896790177,0.026787950216543926,72.16829863211113,0.0
377,-0.022272904005273913,0.030329322254632776,72.00138153654322,0.0
378,-0.022533590860050693,0.03207692359185198,71.82966388452934,0.0
379,-0.023971906945143114,0.032518034351365216,71.65340778753558,0.0
380,-0.025609658901142886,0.03221315652002783,71.47287303993427,0.0
381,-0.026677976872090163,0.031654199980892944,71.28831684239695,0.0
382,-0.026786785171895672,0.031152118848914143,71.09999354562599,0.0
383,-0.025994328778034283,0.030776867414243535,70.90815441419848,0.0
384,-0.02476723396575352,0.03035981848669156,70.71304741022816,0.0
385,-0.023845582163721003,0.02955440853917347,70.51491699648624,0.0
386,-0.024047335105267832,0.02793803841341052,70.3140039585668,0.0
387,-0.026058651721275077,0.025129946557746127,70.11054524563144,0.0
388,-0.030258841719079922,0.02089754115303222,69.90477382922428,0.0
389,-0.03662007390897738,0.015227727331508699,69.69691857961061,0.0
390,-0.04470372732203267,0.008348846668932439,69.4872041590602,0.0
391,-0.053751237000771016,0.0007006070403193718,69.2758509314701,0.0
392,-0.06284358899252393,-0.007139030565065454,69.06307488770035,0.0
393,-0.07108717876678072,-0.014552272046633914,68.84908758597966,0.0
394,-0.07777961878227982,-0.020983337512123425,68.634096106727,0.0
395,-0.08251818391299913,-0.026022913888339164,68.41830302112722,0.0
396,-0.08523226709432803,-0.029459935261899824,68.20190637279615,0.0
397,-0.08614288933729564,-0.03129372764528408,67.98509967187103,0.0
398,-0.08567011265188115,-0.031708443569535165,67.76807190086579,0.0
399,-0.08431846197292585,-0.031019102032620576,67.5510075316384,0.0
400,-0.08256996844299444,-0.02960299080460128,67.33408655282659,0.0
401,-0.08080628001418039,-0.027831126562799114,67.11748450712166,0.0
402,-0.07926942231420181,-0.026012244715204445,66.9013725377635,0.0
403,-0.07805936134346826,-0.02435740867091293,66.68591744365783,0.0
404,-0.07715851820610989,-0.022968091904939033,66.47128174253379,0.0
405,-0.07647015080167822,-0.02184573121567455,66.2576237415811,0.0
406,-0.07585874483803459,-0.020917169766771097,66.04509761502555,0.0
407,-0.07518465625484225,-0.020068531353807657,65.83385348812538,0.0
408,-0.07432998488673745,-0.019179878680237676,65.6240375270925,0.0
409,-0.07321602868712211,-0.01815417997627975,65.41579203446726,0.0
410,-0.07181369025879193,-0.016936161606975336,65.20925554949916,0.0
411,-0.07014725914188537,-0.01551907034229373,65.00456295311022,0.0
412,-0.06829048186390797,-0.013939788713842625,64.80184557704293,0.0
413,-0.0663533862014339,-0.012264812752010528,64.6012313168191,0.0
414,-0.06445989072012392,-0.010571065156035387,64.40284474816114,0.0
415,-0.06271948521533732,-0.008926198831822737,64.20680724655172,0.0
416,-0.06119968289705575,-0.007372847526406856,64.01323710963231,0.0
417,-0.05990752943941968,-0.005920221703457724,63.822249682166195,0.0
418,-0.05878686859570789,-0.004544702989935295,63.63395748331406,0.0
419,-0.05773347253521335,-0.0031989929959838855,63.44847033599599,0.0
420,-0.05662424300937936,-0.0018273669044536487,63.265895498134846,0.0
421,-0.05535188251344787,-0.00038312699065628716,63.08633779560081,0.0
422,-0.053854677569593556,0.0011562022033366265,62.90989975669818,0.0
423,-0.05213296633285235,0.002779900842689578,62.73668174805801,0.0
424,-0.050248578879627845,0.004443825976547354,62.566782111821816,0.0
425,-0.04830904610474367,0.0060793854761092385,62.40029730402281,0.0
426,-0.04644249459993583,0.007609931142499145,62.237322034091804,0.0
427,-0.04477051682742417,0.0089708522129768,62.07794940543557,0.0
428,-0.043384972601351546,0.010128418989301119,61.922271057055276,0.0
429,-0.042331944633920246,0.011092168024337051,61.7703773061928,0.0
430,-0.04160369675329268,0.011916449610321818,61.6223572920115,0.0
431,-0.04113867831461733,0.012688634971169127,61.478299120338214,0.0
432,-0.04083039111305226,0.013504207769397078,61.33829000951131,0.0
433,-0.040547110393425345,0.014432176172735546,61.20241643739944,0.0
434,-0.04016431804802284,0.015477392013391291,61.07076428967388,0.0
435,-0.039608965325739515,0.016548751527595627,60.94341900943628,0.0
436,-0.03890926110210823,0.017443115463925865,60.82046574832316,0.0
437,-0.03823707744125702,0.01785347869247738,60.70198951922642,0.0
438,-0.03792509540859748,0.017406146195488324,60.58807535078981,0.0
439,-0.03844078833042024,0.015725716078134753,60.47880844385955,0.0
440,-0.040306731649155145,0.012519510687987253,60.37427433008831,0.0
441,-0.043971652267359815,0.007666335708314491,60.27455903291172,0.0
442,-0.04965574939111162,0.0012899964874363967,60.179749231137976,0.0
443,-0.05721059057988717,-0.006202423677333943,60.08993242541285,0.0
444,-0.06604068224073835,-0.014132973682870534,60.00519710784512,0.0
445,-0.07512534925739812,-0.021622152742717775,59.92563293510114,0.0
446,-0.08315590227905036,-0.02770909850394313,59.85133090530246,0.0
447,-0.08877039108289946,-0.03150409149536091,59.78238353908564,0.0
448,-0.090836745975298,-0.032345267779874426,59.718885065212056,0.0
449,-0.08871530488866103,-0.029927623040365246,59.6609316111441,0.0
450,-0.08243081319547844,-0.024375828888356547,59.60862139903499,0.0
451,-0.07270360379965142,-0.0162427446225442,59.562054947613134,0.0
452,-0.06082526048914082,-0.006430620339580657,59.52133528047693,0.0
453,-0.04840578608044484,0.003951662762020336,59.48656814135351,0.0
454,-0.03705445402732428,0.013768306091305582,59.45786221691626,0.0
455,-0.028073573550608598,0.02203854629314211,59.435329367799106,0.0
456,-0.022237515088853604,0.028086118261050553,59.41908486849279,0.0
457,-0.01970144061351209,0.03162895891445601,59.409247656859876,0.0
458,-0.020046081842039404,0.03279478567510054,59.40594059405941,1.0
459,-0.022430363577495453,0.032063344176887484,59.409304633986174,0.0
460,-0.025803075897658168,0.03015010074120978,59.41932045973878,0.0
461,-0.029121413034498146,0.027856145348899488,59.43587686499972,0.0
462,-0.03153455231037875,0.025913470471693945,59.458866757317374,0.0
463,-0.03250761950130024,0.02485338768590549,59.48818691812717,0.0
464,-0.03187853823910662,0.024919608191457995,59.52373777276232,0.0
465,-0.029852823422697922,0.026038157978791953,59.565423169700686,0.0
466,-0.02694773666679304,0.027845782236738177,59.6131501683456,0.0
467,-0.023898433861877847,0.029768620384166097,59.66682883468329,0.0
468,-0.02153767251798697,0.031135117997536006,59.72637204420299,0.0
469,-0.020660590522109955,0.03130233494094941,59.79169529150457,0.0
470,-0.02188895277952467,0.029773507968060543,59.86271650605485,0.0
471,-0.025554311685274524,0.026287000648859995,59.93935587358747,0.0
472,-0.0316232474348485,0.02086225673689162,60.02153566267228,0.0
473,-0.039685758163374246,0.013796233800340589,60.1091800560091,0.0
474,-0.04901723924361199,0.0056127517525278794,60.20221498602779,0.0
475,-0.05870667335830154,-0.003024354249432617,60.30056797440147,0.0
476,-0.0678243618099523,-0.011417080437195474,60.40416797510344,0.0
477,-0.07558951891606146,-0.018938059188557545,60.51294522066015,0.0
478,-0.0814972020067625,-0.0251155099778124,60.626831071273465,0.0
479,-0.0853761926091618,-0.029684523206353418,60.74575786650472,0.0
480,-0.0873699693394348,-0.03259843694400309,60.86965877923165,0.0
481,-0.08785419527325389,-0.0340024256536022,60.99846767160675,0.0
482,-0.0873190896391035,-0.03417865425347744,61.132118952762276,0.0
483,-0.08624981342499294,-0.03347692957926901,61.27054743802292,0.0
484,-0.0850328204289658,-0.03224592503292836,61.41368820940276,0.0
485,-0.08390444118553464,-0.03077787259440689,61.5614764771777,0.0
486,-0.08294446373331758,-0.02927499161548716,61.713847442339016,0.0
487,-0.08210620367485247,-0.027840201673395407,61.8707361597477,0.0
488,-0.08126787447777797,-0.026489266609893893,62.032077401822995,0.0
489,-0.08028854551519672,-0.025177579037127244,62.197805522611965,0.0
490,-0.07905481066699134,-0.023832952759314817,62.36785432210069,0.0
491,-0.07750980565313408,-0.022386106906583797,62.542156910640635,0.0
492,-0.07566233703446489,-0.02079257487284849,62.72064557337746,0.0
493,-0.07357878054001693,-0.01904282347490234,62.903251634582915,0.0
494,-0.07136310989783518,-0.01716060418634541,63.089905321804096,0.0
495,-0.06913110503875859,-0.015192260790119127,63.28053562975824,0.0
496,-0.06698436944734207,-0.013191396413111168,63.47507018391514,0.0
497,-0.06498909242115809,-0.011203750289146119,63.67343510372417,0.0
498,-0.06316368391745099,-0.00925641765135882,63.875554865456984,0.0
499,-0.06147805093509378,-0.007353953964643406,64.08135216465307,0.0
500,-0.059864963669552004,-0.005481870205668973,64.29074777817019,0.0
501,-0.05824089952108666,-0.0036160340893573117,64.50366042585861,0.0
502,-0.05653090614586131,-0.0017349855743488737,64.72000663189463,0.0
503,-0.05469061454485367,0.00016853066343052153,64.93970058582602,0.0
504,-0.05271936924074697,0.002080287498493645,65.16265400340058,0.0
505,-0.05066138932544505,0.0039639408544352,65.38877598726728,0.0
506,-0.048595753626650015,0.005767737488454362,65.61797288765918,0.0
507,-0.04661909785722025,0.007437335631233199,65.85014816318714,0.0
508,-0.04482593176357244,0.008931746982903414,66.08520224189466,0.0
509,-0.04329041503201161,0.010238186329769134,66.32303238274537,0.0
510,-0.04205156661541941,0.011381223938545399,66.5635325377375,0.0
511,-0.04110290230769041,0.012422252957730343,66.80659321486254,0.0
512,-0.040388204331703564,0.013446944422465723,67.05210134214946,0.0
513,-0.03980679131766472,0.014540924682927198,67.29994013306022,0.0
514,-0.039232436787660765,0.015757019565354965,67.54998895352817,0.0
515,-0.03854823846809774,0.01708048577904719,67.8021231909563,0.0
516,-0.037694776911254745,0.018400934111288923,68.0562141255198,0.0
517,-0.036722002656586435,0.01950033797875416,68.31212880414387,0.0
518,-0.0358289491940434,0.02006498394313318,68.56972991755612,0.0
519,-0.0353725558491849,0.019725248335162926,68.82887568084054,0.0
520,-0.03583005621109227,0.018121089624687753,69.08941971794914,0.0
521,-0.0377094737259973,0.014984227958311221,69.35121095065534,0.0
522,-0.04141832269835203,0.010221780654668809,69.61409349246273,0.0
523,-0.04711753527261561,0.003982457863993945,69.87790654801103,0.0
524,-0.05459995422259784,-0.0033132020293940856,70.1424843185499,0.0
525,-0.06323467863741808,-0.010991994273369532,70.40765591407914,0.0
526,-0.07200720616515378,-0.018200772149709048,70.67324527278168,0.0
527,-0.07966241870339631,-0.024025195995140886,70.93907108840209,0.0
528,-0.08492916811096002,-0.027635508493761958,71.20494674624916,0.0
529,-0.08677991296927309,-0.028432072598170908,71.47068026852573,0.0
530,-0.08466424813955162,-0.026160771277423014,71.736074269711,0.0
531,-0.07865611536354272,-0.020972544118538914,72.00092592274244,0.0
532,-0.069471940597588,-0.013411826515077063,72.26502693676228,0.0
533,-0.05834762398103933,-0.004333292835282141,72.52816354721016,0.0
534,-0.04679879613861289,0.005238271446944829,72.79011651905697,0.0
535,-0.0363206408886035,0.014277631496670544,73.05066116398487,0.0
536,-0.02810039051820524,0.021924427426752997,73.30956737232519,0.0
537,-0.02281108179522525,0.0276113441053543,73.56659966056817,0.0
538,-0.0205307589302506,0.03113067958757465,73.82151723525729,0.0
539,-0.020796033968338557,0.0326284916948574,74.07407407407408,1.0
540,-0.02276509732727513,0.03253111536377331,74.33163342996797,0.0
541,-0.025442804835604453,0.03142283449731644,74.60156336573874,0.0
542,-0.0279132376068377,0.029902812041074874,74.88362114451552,0.0
543,-0.029531256258818025,0.028452223052570155,75.17756302643173,0.0
544,-0.030039162633432558,0.027338646578273278,75.48314312711064,0.0
545,-0.029592615725688425,0.026575382209051167,75.80011227799231,0.0
546,-0.028697780941039017,0.02594078342609423,76.12821688612833,0.0
547,-0.028077186381975046,0.025049772726803293,76.46719779142066,0.0
548,-0.028493683098226787,0.02345914893712061,76.81678911963732,0.0
549,-0.03056921157395467,0.020782193419087717,77.17671712990186,0.0
550,-0.03463647271770877,0.016787476850646056,77.54669905572915,0.0
551,-0.04065573325652265,0.011461510259098194,77.9264419390733,0.0
552,-0.048215413736303794,0.005023692554478848,78.31564145726179,0.0
553,-0.05661562482912491,-0.002107225431097686,78.71398074312198,0.0
554,-0.06501312662242355,-0.0093856649906491,79.12112919906184,0.0
555,-0.07259068695140984,-0.016233683486183575,79.53674130634676,0.0
556,-0.07870888985019846,-0.022136993990256364,79.96045543132543,0.0
557,-0.08300581258113095,-0.026723467001294795,80.39189263089722,0.0
558,-0.08542682915197813,-0.02981031468285322,80.83065546008437,0.0
559,-0.08618703035175516,-0.03141384353176407,81.27632678517708,0.0
560,-0.08568561439116291,-0.03172379555188652,81.7284686065548,0.0
561,-0.0844002672529346,-0.03105103741500265,82.18662089595628,0.0
562,-0.08278869666750172,-0.029761420043485268,82.65030045367052,0.0
563,-0.08121629208796531,-0.02820953494990659,83.11899979184962,0.0
564,-0.0799176303168388,-0.02668414579282513,83.59218605090021,0.0
565,-0.07898958182864363,-0.02537315669767282,84.06929995668806,0.0
566,-0.07840785045859208,-0.024351229932853408,84.54975482708544,0.0
567,-0.0780573609438556,-0.02358866059898374,85.03293563719733,0.0
568,-0.07776856432824321,-0.022976647575788524,85.51819815341204,0.0
569,-0.07735429268577107,-0.022362083137970317,86.0048681472246,0.0
570,-0.07664360479428915,-0.021584477195384665,86.49224070056789,0.0
571,-0.07550966204383991,-0.020508429610267997,86.97957961514275,0.0
572,-0.07388867112779351,-0.019046804255956413,87.46611693895065,0.0
573,-0.07178734370679803,-0.017172019738916525,87.9510526238846,0.0
574,-0.06927782274269972,-0.014915237673522999,88.4335543288096,0.0
575,-0.06648146325629924,-0.012355331315008846,88.91275738303916,0.0
576,-0.06354531191809003,-0.00960106390792067,89.38776492547493,0.0
577,-0.060616508313298297,-0.006770707850419692,89.8576482348936,0.0
578,-0.05781963987176509,-0.003973323119184782,90.3214472669195,0.0
579,-0.05524074986380018,-0.0012951426029892254,90.77817141308671,0.0
580,-0.052920096207729826,0.0012068450502950153,91.22680049704734,0.0
581,-0.05085440460114622,0.0035037061215911153,91.66628602239801,0.0
582,-0.04900808408744393,0.005587049588172499,92.09555268575114,0.0
583,-0.04733125916668817,0.0074578583007718635,92.5135001675481,0.0
584,-0.045780561891976504,0.009115126002615064,92.91900521168114,0.0
585,-0.04433717049276856,0.010547790239320764,93.3109240032377,0.0
586,-0.043016577044612064,0.011732668140510423,93.68809485159733,0.0
587,-0.041866500501556825,0.012639630040778557,94.04934118368577,0.0
588,-0.040952766653104156,0.013243362374326337,94.39347484942324,0.0
589,-0.04033663646692249,0.013539163846515477,94.71929973829803,0.0
590,-0.040049661026332596,0.01355871032605486,95.02561570256618,0.0
591,-0.04007288668902805,0.01338098566045965,95.31122277884452,0.0
592,-0.040326121961505236,0.013133851218723052,95.5749256958564,0.0
593,-0.04067062663394117,0.012983081250910298,95.81553865185273,0.0
594,-0.040925869459838365,0.013107991210763116,96.03189034080947,0.0
595,-0.04089867007905121,0.013665710702658826,96.22282920196463,0.0
596,-0.040421419659547195,0.014749223045611555,96.38722886266947,0.0
597,-0.039394965757737876,0.016346922720009593,96.52399373997063,0.0
598,-0.03783061768392142,0.018313004865310265,96.6320647619045,0.0
599,-0.03588416197629227,0.02035793070802034,96.7104251652619,0.0
600,-0.033872955849678796,0.022066127122034495,96.75810632267495,0.0
601,-0.03226607672911015,0.022943922735919716,96.7741935483871,1.0
602,-0.031638689314537345,0.022494895992032186,96.76662185372123,0.0
603,-0.03258668660823035,0.020313222850023904,96.74420493750831,0.0
604,-0.035606746787877126,0.01617962085305541,96.70739968557409,0.0
605,-0.040958997808432714,0.010140674743289594,96.65667473986296,0.0
606,-0.04854133569811321,0.00255213671199683,96.59250915235144,0.0
607,-0.05781161408273052,-0.005928925602121516,96.51539106273107,0.0
608,-0.06779201335970625,-0.014409640710301926,96.42581640524558,0.0
609,-0.07717638369055156,-0.021879375262636346,96.32428764959751,0.0
610,-0.08453714807849048,-0.02736292505317777,96.2113125803631,0.0
611,-0.08859856967295081,-0.030081615135878,96.08740311887198,0.0
612,-0.08851659312078335,-0.029590461425206115,95.95307419102886,0.0
613,-0.08409220094004652,-0.025862034711107342,95.80884264407825,0.0
614,-0.07585310273869844,-0.01929739310019649,95.65522621484926,0.0
615,-0.06496916047592936,-0.010659578138697869,95.49274255156608,0.0
616,-0.05301317530422964,-0.0009422127112739755,95.3219082908754,0.0
617,-0.04162578662728754,0.008799583991052665,95.14323819132797,0.0
618,-0.03217393283248109,0.017620309250776907,94.95724432415912,0.0
619,-0.02549429857038144,0.02482167102435822,94.76443532184544,0.0
620,-0.021785375379497825,0.03002980237293811,94.56531568457201,0.0
621,-0.020665130535010814,0.033200199686227144,94.36038514442916,0.0
622,-0.021363283043151837,0.03455577622819947,94.1501380868692,0.0
623,-0.02298365241765138,0.03447856575624512,93.93506302869281,0.0
624,-0.02476112811312852,0.03338488613882194,93.71564215160186,0.0
625,-0.02624870342391842,0.03161517793575981,93.49235089014894,0.0
626,-0.027395692713745316,0.029363417423776756,93.26565757273633,0.0
627,-0.02850956384675961,0.02665907959452897,93.03602311416252,0.0
628,-0.03012271004983085,0.02340047335020161,92.80390075808793,0.0
629,-0.032806319582808476,0.01942557084733828,92.569735867687,0.0
630,-0.03698301388973862,0.014598235398614266,92.33396576267319,0.0
631,-0.042786863600693205,0.008885686187357585,92.09701960082342,0.0
632,-0.05000463032526977,0.0024071228498372043,91.85931830208985,0.0
633,-0.05810912356590449,-0.00455786533463475,91.62127451336549,0.0
634,-0.06637051349573565,-0.011601717556437074,91.38329261196718,0.0
635,-0.07401157392823192,-0.018252776247393014,91.14576874591218,0.0
636,-0.08036396817346031,-0.024054425710207772,90.90909090909092,0.0
637,-0.08498684228047582,-0.028640991070773468,90.67363904947943,0.0
638,-0.08772364970996087,-0.031794175303564064,90.43978520858631,0.0
639,-0.08869253444426632,-0.03346961612372268,90.20789369039178,0.0
640,-0.08822315572021944,-0.033790665580935075,89.97832125810854,0.0
641,-0.08676360067719613,-0.0330137482132732,89.75141735717402,0.0
642,-0.08478321499356326,-0.03147500137434981,89.5275243629712,0.0
643,-0.08269218686822967,-0.029530409477614667,89.3069778518695,0.0
644,-0.08078986750390635,-0.02750119476166049,89.09010689427558,0.0
645,-0.07924462542952429,-0.02563340489875624,88.8772343684897,0.0
646,-0.07810097066811375,-0.024076459769172324,88.66867729426971,0.0
647,-0.07730570893261353,-0.022881016568888236,88.4647471851188,0.0
648,-0.07674372519173678,-0.02201284817492502,88.26575041842598,0.0
649,-0.07627477028924676,-0.02137712144933214,88.07198862270816,0.0
650,-0.07576448042791091,-0.02084671704819903,87.88375908132177,0.0
651,-0.07510530937951969,-0.020288887501990954,87.70135515213501,0.0
652,-0.07422587040989599,-0.019586182930101767,87.5250667027768,0.0
653,-0.07309003706739398,-0.018649642036115105,87.35518056120567,0.0
654,-0.07168939151970866,-0.01742422752318348,87.19198098147157,0.0
655,-0.07003350267549104,-0.015887984215626084,87.03575012467512,0.0
656,-0.06814177179147932,-0.014047206459156334,86.88676855526472,0.0
657,-0.0660386963129229,-0.011930004412806242,86.74531575294935,0.0
658,-0.06375244182738658,-0.009580197931522925,86.61167064064692,0.0
659,-0.06131553567870534,-0.007052673278422465,86.48611212903425,0.0
660,-0.05876652363122639,-0.004410463719170804,86.36891967841554,0.0
661,-0.056151980552927985,-0.001723077264824499,86.2603738787828,0.0
662,-0.053528515597706286,0.0009348564466681308,86.16075704910544,0.0
663,-0.050964024482995834,0.003485641997944766,86.07035385705596,0.0
664,-0.04853683014938616,0.005852043177211179,85.9894519605595,0.0
665,-0.046331275194470105,0.007962518941413468,85.91834267274346,0.0
666,-0.044429200170074526,0.009757757247962082,85.85732165206508,0.0
667,-0.04289829116507812,0.011197481886579246,85.80668961960869,0.0
668,-0.0417797781799324,0.012266112240375625,85.76675310577335,0.0
669,-0.04107871722816904,0.0129758088698138,85.73782522881751,0.0
670,-0.040759779731998916,0.013365791489618637,85.72022650799289,0.0
671,-0.040750224855376514,0.013497522836790031,85.71428571428572,1.0
672,-0.04094996885225393,0.013446268223828571,85.77170765440637,0.0
673,-0.041246919622653255,0.013290454796231517,85.94071411558365,0.0
674,-0.04153446031279811,0.013100935125217997,86.21700879765397,0.0
675,-0.04172740076548824,0.012932509579453511,86.59699343267951,0.0
676,-0.04177295197350227,0.0128197668102541,87.0776656428258,0.0
677,-0.04165428242729245,0.01277846284486032,87.65652951699464,0.0
678,-0.04138584142075018,0.012812402358497519,88.33151581243185,0.0
679,-0.04100157106911777,0.012924344965468829,89.10090919295094,0.0
680,-0.040538883778246985,0.013128139754428732,89.96328029375766,0.0
681,-0.04002232358137571,0.013458414781797722,90.91742068491584,0.0
682,-0.039450871787038086,0.013973993370796927,91.96227901480572,0.0
683,-0.038792085231002194,0.014751952063835791,93.09689677010768,0.0
684,-0.037985224351261185,0.01587089957436751,94.3203422053232,0.0
685,-0.036954692470818284,0.017384477213419784,95.63164108618656,0.0
686,-0.03563432665129018,0.01928889129665612,97.02970297029704,0.0
687,-0.03400159014769799,0.021490934805663504,98.5132418277942,0.0
688,-0.03211773740232863,0.023784767924239315,100.08068989863332,0.0
689,-0.030165643823261964,0.025846037155319725,101.73010380622839,0.0
690,-0.028472670066413096,0.02725022881755375,103.45906211714414,0.0
691,-0.027504133169277616,0.027518350091830575,105.2645537727092,0.0
692,-0.027816025860340106,0.026187502778288387,107.14285714285715,0.0
693,-0.029964385872721797,0.022897616000524094,109.08940988923399,0.0
694,-0.034381576912390556,0.0174799330495287,111.09867039888034,0.0
695,-0.04124288447956008,0.010029362855498688,113.16397228637415,0.0
696,-0.050355605107975425,0.0009428245489259838,115.2773743828057,0.0
697,-0.06110367597528281,-0.009090107815015857,117.42950974880917,0.0
698,-0.07247276311270943,-0.01914991883146369,119.60943856794144,0.0
699,-0.08316501953146131,-0.028198341451990384,121.8045112781955,0.0
700,-0.09179253835503433,-0.035222290499006575,124.00024993751565,0.0
701,-0.09711789330173277,-0.03938622984408194,126.18025751072963,0.0
702,-0.09829377038720427,-0.04016469157452539,128.32616638106632,0.0
703,-0.09504653266051054,-0.03742873409667655,130.41763874741235,0.0
704,-0.08775474399240203,-0.03146827750536414,132.43243243243245,0.0
705,-0.07739456039504883,-0.02294497309641492,134.3465457130285,0.0
706,-0.06535624072244742,-0.012784728420545732,136.13445378151263,0.0
707,-0.05317150620119214,-0.002031748247641625,137.76944704779757,0.0
708,-0.04221857078258694,0.008306245722638725,139.22407745194332,0.0
709,-0.03347995486082104,0.01739112374815746,140.47071314811538,0.0
710,-0.027413277973774443,0.024641665945501132,141.48219441770937,0.0
711,-0.023961370231557866,0.02976284424991394,142.2325748073822,0.0
712,-0.022686750757274384,0.03271901630763281,142.6979219098296,0.0
713,-0.02298070501453499,0.033665729088448254,142.85714285714286,1.0
714,-0.024279670635398678,0.03286287985956604,142.83274923144106,0.0
715,-0.0262256161390726,0.03059349860834624,142.7604021834224,0.0
716,-0.028729614303315762,0.027107463597831578,142.64142119405554,0.0
717,-0.031930610875735316,0.02259989748326726,142.47721057453452,0.0
718,-0.03607393202292142,0.017222834055961738,142.26925081992118,0.0
719,-0.04135670345373629,0.011119235546092877,142.01908988680418,0.0
720,-0.047793893882350516,0.004463090170404622,141.72833447345755,0.0
721,-0.055148065427045194,-0.0025107573882395384,141.39864137617445,0.0
722,-0.06294243090820399,-0.009498688569063093,141.031708989929,0.0
723,-0.07054887979486558,-0.01614629123021236,140.62926901543435,0.0
724,-0.07731981592772247,-0.022088087612532448,140.19307842817088,0.0
725,-0.08272212042847511,-0.0269986135057557,139.72491175820346,0.0
726,-0.0864354749186545,-0.030641655103110496,139.2265537227292,0.0
727,-0.08839249484477968,-0.03290550251264637,138.6997922464247,0.0
728,-0.08875803652843473,-0.03381625056581748,138.14641189791038,0.0
729,-0.08786250061177202,-0.03352697104326204,137.56818776411947,0.0
730,-0.08611381050578173,-0.032286270249264136,136.96687977813505,0.0
731,-0.08391329222152519,-0.030393900923246217,136.34422751021216,0.0
732,-0.08159365557740808,-0.028152929369688027,135.70194542628587,0.0
733,-0.07938661299043655,-0.025827419517100957,135.0417186133239,0.0
734,-0.07741771050605073,-0.0236122426242794,134.3651989664355,0.0
735,-0.07571982055055673,-0.02161833708360318,133.6740018287173,0.0
736,-0.07425547110033842,-0.01987342792400356,132.96970307139736,0.0
737,-0.07294065665347875,-0.01833555487850942,132.25383659893052,0.0
738,-0.07166664719275008,-0.016915111360125853,131.5278922612802,0.0
739,-0.07031933021395358,-0.015500514264285507,130.79331415367574,0.0
740,-0.06879668031856757,-0.013982939626209511,130.051499282631,0.0
741,-0.06702429202572804,-0.01227650436202344,129.30379657591715,0.0
742,-0.06496756541883689,-0.010331572433601428,128.55150621346735,0.0
743,-0.06263818960250153,-0.00814027443032349,127.79587925581536,0.0
744,-0.06009273698806297,-0.005734656982184346,127.03811754659783,0.0
745,-0.05742265681022779,-0.0031789617366571,126.27937386584487,0.0
746,-0.054737361536428705,-0.0005582421626243389,125.52075231120807,0.0
747,-0.05214450464200687,0.0020342280102159625,124.76330888489461,0.0
748,-0.04973276041219547,0.0045085381056083115,124.00805226486034,0.0
749,-0.04756159688597206,0.00678714648560292,123.25594473972822,0.0
750,-0.04565981251100514,0.008810631115684156,122.50790328791832,0.0
751,-0.04403119967102953,0.010540410100164642,121.76480078257106,0.0
752,-0.04266328318593056,0.0119593369365463,121.02746730499763,0.0
753,-0.041534791738635946,0.013071355427620437,120.29669155057613,0.0
754,-0.040619246453973426,0.013901217536573711,119.57322231221471,0.0
755,-0.03988458601001959,0.014494689968616355,118.85777002770561,0.0
756,-0.03929064513996152,0.014918875660409002,118.15100837848395,0.0
757,-0.03878679484210602,0.015261490039842035,117.45357592847363,0.0
758,-0.03831138075963361,0.015627402584512184,116.76607779283671,0.0
759,-0.037793634668030304,0.016130686823860374,116.08908732753993,0.0
760,-0.03715828237605707,0.01688094555312287,115.42314783170293,0.0
761,-0.03633334057848717,0.017963814923236867,114.76877425569657,0.0
762,-0.03526214719670694,0.019417189342639175,114.12645490891207,0.0
763,-0.03392072584225819,0.02120658416847248,113.49665316202172,0.0
764,-0.03234044983117194,0.02320475287308444,112.87980913939995,0.0
765,-0.030633390168435005,0.02518168771613991,112.2763413981687,0.0
766,-0.02901413726179628,0.026810947170565744,111.68664859107585,0.0
767,-0.027808491590177405,0.02769650751755596,111.1111111111111,1.0
768,-0.027438033584884593,0.02742097924317837,110.5317573991957,0.0
769,-0.028372016503512246,0.025611445250035232,109.93141135751206,0.0
770,-0.03104515206869299,0.022014212811994373,109.31161901865563,0.0
771,-0.03575073419838276,0.0165656160456099,108.67390301200317,0.0
772,-0.04253016530286715,0.009443936637942631,108.01975840480787,0.0
773,-0.05108801765452107,0.0010885300464567446,107.3506489852067,0.0
774,-0.060762306188531116,-0.007823277624594605,106.66800397969155,0.0
775,-0.07057075534612738,-0.016443520926843633,105.97321519397687,0.0
776,-0.07933672245910478,-0.023858145383767515,105.26763456309408,0.0
777,-0.08587733702306635,-0.029213205337442875,104.55257209394904,0.0
778,-0.08921736222954234,-0.031841188149478714,103.82929418146873,0.0
779,-0.0887812049419321,-0.03136433044983318,103.0990222778142,0.0
780,-0.08451637996850841,-0.027755265511423526,102.36293189291608,0.0
781,-0.07691543169920653,-0.021343376637776336,101.6221519037622,0.0
782,-0.06692716189882424,-0.012766076947977545,100.87776414939691,0.0
783,-0.055776185053105776,-0.0028753180644008284,100.13080328844075,0.0
784,-0.04473452909554342,0.007381767286151603,99.38225689606737,0.0
785,-0.03490240977781064,0.017085161096399973,98.63306577774765,0.0
786,-0.02705215809984423,0.025445695916359572,97.88412447764739,0.0
787,-0.02156928780503309,0.031874992758987294,97.13628196031368,0.0
788,-0.018493739147267405,0.03601552634643396,96.3903424451738,0.0
789,-0.017633118360703918,0.037734165105568956,95.64706637436514,0.0
790,-0.01869970489394957,0.03708967111317929,94.9071714954933,0.0
791,-0.021421298413766925,0.034287826089636764,94.17133404204925,0.0
792,-0.02559235700457557,0.029636736286942324,93.44018999538508,0.0
793,-0.03105895151744418,0.023510466331023685,92.71433641333388,0.0
794,-0.03765775209432977,0.016323368553653933,91.99433281174139,0.0
795,-0.045145446455542276,0.00851241446316334,91.28070258634845,0.0
796,-0.05315535958143048,0.0005220827849096174,90.57393446360396,0.0
797,-0.0612038849615614,-0.007213494749303478,89.87448397009608,0.0
798,-0.0687476222100852,-0.014293868412889574,89.18277491135257,0.0
799,-0.07527221935402033,-0.0203801170144732,88.4992008517742,0.0
800,-0.08038338109751206,-0.02522289669440726,87.82412658842621,0.0
801,-0.08387202187404165,-0.028684624499996234,87.15788961231635,0.0
802,-0.08573663213689292,-0.030750090050250516,86.50080155163359,0.0
803,-0.08616096465648275,-0.031522036459323124,85.85314959220852,0.0
804,-0.08545823853120123,-0.031201564961323792,85.21519787118524,0.0
805,-0.08400027871774303,-0.03005653268922326,84.58718884056424,0.0
806,-0.08215032743555353,-0.0283834948895727,83.96934459789232,0.0
807,-0.08021315604605575,-0.02646965258373098,83.36186818193381,0.0
808,-0.07840839201901825,-0.02456065708107275,82.76494483166863,0.0
809,-0.07686558585678235,-0.022838364598965925,82.17874320742058,0.0
810,-0.07563463467743219,-0.021410330550603988,81.60341657333416,0.0
811,-0.0747036510259139,-0.02031060275960212,81.03910394078746,0.0
812,-0.074017761219032,-0.019509678081650314,80.48593117265912,0.0
813,-0.07349521934235857,-0.01893054739911102,79.94401204865913,0.0
814,-0.07304004997183776,-0.018467553998697872,79.41344929219261,0.0
815,-0.07255218347007138,-0.01800515232371476,78.89433555945084,0.0
816,-0.07193651741746554,-0.017434337485410047,78.38675439162363,0.0
817,-0.07111182440536506,-0.01666530313625996,77.89078113129858,0.0
818,-0.0700193645109018,-0.01563563043589228,77.40648380426242,0.0
819,-0.06862991308589445,-0.014313946112222461,76.93392396804826,0.0
820,-0.06694722393998785,-0.012699498411273121,76.4731575286833,0.0
821,-0.06500623356248315,-0.010818487829427348,76.0242355271856,0.0
822,-0.0628657198749233,-0.008718245145340697,75.5872048974396,0.0
823,-0.06059713988961091,-0.006460445099207683,75.16210919714909,0.0
824,-0.0582729495994583,-0.00411445233484372,74.74898931362446,0.0
825,-0.05595791710207395,-0.0017516173402070817,74.34788414621332,0.0
826,-0.053705567227909236,0.0005590752346229851,73.95883126722632,0.0
827,-0.05155962146992276,0.002754054178320273,73.58186756325095,0.0
828,-0.04955826236459635,0.004777313603566091,73.21702985878107,0.0
829,-0.04773818564981975,0.006582238524786092,72.86435552412452,0.0
830,-0.04613594264018206,0.008133585445603494,72.52388306958453,0.0
831,-0.04478553762889162,0.00940979211763069,72.19565272794458,0.0
832,-0.04371282941906032,0.010405368701690901,71.8797070273223,0.0
833,-0.04292839034973562,0.011132733282979725,71.57609135649732,0.0
834,-0.042420952690823195,0.011622643827413095,71.28485452486096,0.0
835,-0.04215357227100377,0.0119224461173273,71.00604931918524,0.0
836,-0.04206427820910586,0.012091725459068716,70.73973305946333,0.0
837,-0.042072182521526065,0.01219555266364737,70.48596815613885,0.0
838,-0.042088698473589536,0.012296208227605904,70.24482267111252,0.0
839,-0.04203184669454448,0.012444864289654618,70.0163708850003,0.0
840,-0.04184020277171508,0.012675015880915512,69.80069387321137,0.0
841,-0.04148261590160847,0.012999348576564648,69.59788009352494,0.0
842,-0.04096084518626785,0.01341116955555031,69.40802598796898,0.0
843,-0.04030446023415765,0.013890584351081346,69.2312366019466,0.0
844,-0.03955981643911859,0.014414442814550066,69.06762622371645,0.0
845,-0.038776543426913654,0.014967941012505011,68.91731904751656,0.0
846,-0.03799512851779049,0.015554907169972518,68.78044986382785,0.0
847,-0.03723801146704061,0.016203452501786807,68.65716478050608,0.0
848,-0.036505028952252536,0.01696400674247968,68.54762197877487,0.0
849,-0.03577316107588245,0.01789787039655039,68.45199250836856,0.0
850,-0.03500097638473577,0.019056268390000623,68.37046112644686,0.0
851,-0.03413959328211899,0.0204522931244928,68.30322718527975,0.0
852,-0.0331529673286199,0.022030700375789785,68.25050557412223,0.0
853,-0.03204904976301978,0.023642702054390542,68.21252772117408,0.0
854,-0.030918793649512753,0.025033995667221712,68.18954266205397,0.0
855,-0.0299729687471416,0.02585361951589574,68.18181818181819,1.0
856,-0.029560309642626657,0.025688413694468913,68.18660520251338,0.0
857,-0.030148805862450938,0.024122973551783868,68.20080076364215,0.0
858,-0.03225811031971813,0.020818718338376035,68.2241621438706,0.0
859,-0.03634510829786379,0.015599398154841895,68.25645346407224,0.0
860,-0.04266263576468276,0.008525739186115499,68.29744504840826,0.0
861,-0.051126434298415395,-5.937086739622559e-05,68.34691281342691,0.0
862,-0.06123128671744157,-0.009530668698633133,68.40463768284567,0.0
863,-0.07205075129561984,-0.019033285932238547,68.47040502588811,0.0
864,-0.08233713942712936,-0.027585810295382478,68.54400411723717,0.0
865,-0.09071377593176061,-0.03421930890306435,68.62522761684332,0.0
866,-0.09592613924450283,-0.03812828679537411,68.71387106798987,0.0
867,-0.09709854880733172,-0.038804501710489485,68.80973241216952,0.0
868,-0.09393450925078628,-0.03612592631537741,68.91261151946958,0.0
869,-0.08680583617452897,-0.03038118362936012,69.02230973329621,0.0
870,-0.07669911126809831,-0.02222296473693673,69.13862942839545,0.0
871,-0.06502374414329609,-0.012559260923122727,69.26137358124755,0.0
872,-0.053324642272105066,-0.0024049269917363917,69.39034535202588,0.0
873,-0.042971750026563046,0.007275394796673488,69.52534767742023,0.0
874,-0.03490738782016331,0.01570089289804697,69.66618287373004,0.0
875,-0.029515798242780243,0.022359337871624183,69.81265224973367,0.0
876,-0.026642391755082144,0.027030208927158052,69.96455572893876,0.0
877,-0.025745534515647643,0.029748638166165957,70.12169148091479,0.0
878,-0.02612649542757469,0.030726313716409222,70.28385556150211,0.0
879,-0.02716493767744239,0.030254158961002697,70.45084156178528,0.0
880,-0.028492268578682776,0.028613260323749827,70.62244026580801,0.0
881,-0.030059632497976378,0.026015185083882463,70.798439317098,0.0
882,-0.03209223598315173,0.022582469446453396,70.97862289415878,0.0
883,-0.0349558908788039,0.018367873956408112,71.16277139517351,0.0
884,-0.038985313395316676,0.01340046428483637,71.35066113225442,0.0
885,-0.04433077290658947,0.007740401051900996,71.54206403565803,0.0
886,-0.05086922126513512,0.0015237756679896911,71.7367473684738,0.0
887,-0.05820236300329298,-0.00501651555207217,71.93447345237928,0.0
888,-0.06573552057002413,-0.011559842338615744,72.13499940514129,0.0
889,-0.07280718206669828,-0.01773401886230293,72.33807689062631,0.0
890,-0.07882727193765572,-0.023168629721229475,72.54345188216757,0.0
891,-0.08338511170419688,-0.027551834278508207,72.75086444021751,0.0
892,-0.08630286661223,-0.030677229134913213,72.9600485052954,0.0
893,-0.08763023144941584,-0.03247094315311034,73.17073170731707,0.0
894,-0.0875935629431221,-0.03299466003913562,73.38263519246915,0.0
895,-0.08652217918280565,-0.03242601688594536,73.59547346886222,0.0
896,-0.08477466555326217,-0.031022366580830487,73.80895427226444,0.0
897,-0.0826811291988724,-0.029076365166191262,74.02277845328115,0.0
898,-0.08050781629155387,-0.026872096507074953,74.23663988740218,0.0
899,-0.07844242716679369,-0.02464889599307013,74.45022540939122,0.0
900,-0.07659407217798948,-0.0225774233939355,74.66321477353414,0.0
901,-0.07500126175822341,-0.020749647767273276,74.87528064129948,0.0
902,-0.0736433518137713,-0.019181866430724157,75.08608859799025,0.0
903,-0.07245367241867198,-0.01782804758855974,75.29529719998244,0.0
904,-0.07133456103146822,-0.016599773257411177,75.5025580541497,0.0
905,-0.0701748323139844,-0.015388799532899913,75.70751593106594,0.0
906,-0.06886896046494644,-0.014088591276526372,75.9098089135554,0.0
907,-0.0673354059338874,-0.012611953769295609,76.10906858212323,0.0
908,-0.0655303942125631,-0.01090290970124959,76.30492023874721,0.0
909,-0.06345394396707038,-0.008942100349496707,76.49698317044064,0.0
910,-0.061146977675834456,-0.00674607009256124,76.68487095390945,0.0
911,-0.058680929146706785,-0.004361671419027626,76.8681918025193,0.0
912,-0.05614311572166386,-0.0018573736233905552,77.04654895666133,0.0
913,-0.05362158114438792,0.0006866041280769531,77.21954111845808,0.0
914,-0.05119240443338955,0.003187682071646311,77.3867629315826,0.0
915,-0.048911401737336956,0.005568756535535287,77.54780550677229,0.0
916,-0.04681124449766627,0.007764127535696446,77.70225699340847,0.0
917,-0.044904152054890414,0.009723806203109375,77.84970319729717,0.0
918,-0.043189084595691776,0.011416858564482957,77.98972824453232,0.0
919,-0.04166077798963543,0.012834392390209696,78.12191529104466,0.0
920,-0.0403167629959609,0.013992304778503417,78.24584727714519,0.0
921,-0.039158722449623165,0.014933108018527565,78.36110772605412,0.0
922,-0.03818664282961265,0.015725312932917804,78.46728158507571,0.0
923,-0.037387624701803235,0.0164583352819533,78.56395610773004,0.0
924,-0.036724500311488426,0.017231053691772157,78.65072177479172,0.0
925,-0.03613107063604282,0.018133201822304962,78.72717325181448,0.0
926,-0.035519977616328406,0.019220688626522174,78.79291038033988,0.0
927,-0.03480601631774726,0.020488367308037367,78.84753919960762,0.0
928,-0.03394280889482317,0.021846096849137835,78.89067299519873,0.0
929,-0.03296535713134091,0.023105387078245082,78.92193337066497,0.0
930,-0.032026428281093734,0.023983763960895917,78.94095133782557,0.0
931,-0.031412454967095285,0.02413179168944357,78.94736842105263,1.0
932,-0.03152595136947489,0.02318348188317261,78.94257625096591,0.0
933,-0.032827144796741314,0.020825238401482163,78.9283494946525,0.0
934,-0.035737323901954485,0.016872707395060853,78.90491761671653,0.0
935,-0.04051856759815141,0.011340438035814205,78.87251609844743,0.0
936,-0.04715586045136424,0.004487593760069032,78.83138590537934,0.0
937,-0.055274229631726415,-0.0031748890015564947,78.78177295982854,0.0
938,-0.06412209570191392,-0.010924140158326188,78.72392762014546,0.0
939,-0.07264095504804147,-0.01791136435911781,78.65810416830826,0.0
940,-0.07962192123671587,-0.02328268305410385,78.58456030737376,0.0
941,-0.08392560861635713,-0.02631425693473426,78.50355667018503,0.0
942,-0.08471982197626331,-0.02653574347907743,78.41535634061671,0.0
943,-0.0816768883042793,-0.02381641069392939,78.32022438852167,0.0
944,-0.07507515002711092,-0.01839466265459114,78.21842741942272,0.0
945,-0.0657691434149916,-0.010843218219283884,78.11023313987538,0.0
946,-0.05502671264040344,-0.001976127993392378,77.99590993931137,0.0
947,-0.044269494531644304,0.007283238504309373,77.87572648905879,0.0
948,-0.03478323851496738,0.016045533609289495,77.7499513591227,0.0
949,-0.027474948299959442,0.023580524219833494,77.61885265320454,0.0
950,-0.022739916937744988,0.02939971768094688,77.48269766233302,0.0
951,-0.02046767920574292,0.033283436817380926,77.34175253738282,0.0
952,-0.02017373258268493,0.03525312782008094,77.19628198066196,0.0
953,-0.02120812255315569,0.03550253946333655,77.04654895666133,0.0
954,-0.022973843658916058,0.03430990376408524,76.89281442197621,0.0
955,-0.025091626506385044,0.03195537689639062,76.73533707433316,0.0
956,-0.027469775064272894,0.028663632818361002,76.57437312058279,0.0
957,-0.030269761806603523,0.024582314954300164,76.41017606345508,0.0
958,-0.03378986525929043,0.01979593425883312,76.24299650681222,0.0
959,-0.038311146477063754,0.014364955152640897,76.07308197908134,0.0
960,-0.04395702021815216,0.00837381180693865,75.90067677450043,0.0
961,-0.0506088275306743,0.0019707232630289187,75.7260218117683,0.0
962,-0.05789907455460213,-0.004613841163855315,75.54935450965216,0.0
963,-0.06527868943993459,-0.011075944791828187,75.37090867907433,0.0
964,-0.07213308892872997,-0.017071925197397277,75.1909144311729,0.0
965,-0.07791044022885958,-0.022268010464010553,75.00959810080883,0.0
966,-0.08222655967505464,-0.02639300562655723,74.82718218497469,0.0
967,-0.08492227342725142,-0.029281238701961965,74.64388529554716,0.0
968,-0.08606563680270306,-0.03089622186282136,74.45992212581633,0.0
969,-0.08590725426807444,-0.0313307702665179,74.27550343021964,0.0
970,-0.08480742216102963,-0.030785027562592222,74.0908360167072,0.0
971,-0.08315687341232735,-0.029528506855188572,73.90612275116607,0.0
972,-0.08130931791678393,-0.027854902347393486,73.72156257333695,0.0
973,-0.07953651131550497,-0.02603875557500387,73.53735052366356,0.0
974,-0.07800852547128084,-0.024301382010895163,73.35367778052539,0.0
975,-0.07679572549197859,-0.022790506404141833,73.17073170731707,0.0
976,-0.07588578019306366,-0.02157470008005983,72.9886959088521,0.0
977,-0.0752086031811258,-0.020650755503740036,72.80775029658491,0.0
978,-0.07466331772722726,-0.019960118894295158,72.62807116216366,0.0
979,-0.07414287437627086,-0.019409663273680666,72.4498312588453,0.0
980,-0.07355310987701294,-0.01889236082636621,72.27319989032546,0.0
981,-0.07282398316847877,-0.018304524006271188,72.09834300655778,0.0
982,-0.07191210017826494,-0.017557827626282003,71.92542330615969,0.0
983,-0.0707957382751715,-0.016585877023192464,71.75460034502588,0.0
984,-0.06946582644251328,-0.015346296624584147,71.58603065079471,0.0
985,-0.06791755960531125,-0.013819960431213429,71.41986784283785,0.0
986,-0.06614663950960023,-0.012009022298154662,71.25626275746892,0.0
987,-0.06415168377548831,-0.009934944035084537,71.09536357809273,0.0
988,-0.06194131860640103,-0.007636993981240539,70.93731597004252,0.0
989,-0.05954238362235081,-0.005170969147547905,70.78226321987948,0.0
990,-0.05700543610880164,-0.0026074116040516095,70.63034637895518,0.0
991,-0.05440514706157744,-2.847580937326722e-05,70.48170441106383,0.0
992,-0.051835189660915576,0.00247713397268286,70.33647434403942,0.0
993,-0.04939874548418118,0.004821198539344779,70.19479142517795,0.0
994,-0.047196377114139265,0.006924386609810327,70.05678928039453,0.0
995,-0.04531307663584609,0.008724852301244796,69.92260007704971,0.0
996,-0.04380635521442016,0.0101855217166958,69.79235469040962,0.0
997,-0.042697440732704005,0.011298569112206723,69.66618287373004,0.0
998,-0.04196761812160094,0.01208595183465362,69.54421343198347,0.0
999,-0.04156101891622873,0.01259554845740876,69.4265743992767,0.0
1000,-0.04139373406586886,0.012893299001077357,69.31339322003419,0.0
1001,-0.04136752017572812,0.013052605383860733,69.20479693405245,0.0
1002,-0.04138527417266959,0.013142927171477727,69.1009123655595,0.0
1003,-0.04136522878544468,0.013219840184600063,69.00186631644432,0.0
1004,-0.04125137341897591,0.013318709022777075,68.90778576385186,0.0
1005,-0.0410185605741416,0.013453533331938838,68.8187980623708,0.0
1006,-0.04067174704670742,0.013621522949298321,68.73503115107482,0.0
1007,-0.04023963708770323,0.01381268399159797,68.65661376571124,0.0
1008,-0.039763634701443416,0.014022372905049435,68.5836756563672,0.0
1009,-0.03928361617199861,0.014263664398044745,68.51634781097948,0.0
1010,-0.03882277248956193,0.014575764005945123,68.45476268509327,0.0
1011,-0.03837466791816128,0.0150248269110592,68.39905443831579,0.0
1012,-0.03789644941128629,0.015694578578325596,68.34935917795259,0.0
1013,-0.03731228901702767,0.016666067663110302,68.3058152103605,0.0
1014,-0.03653008239271,0.01798850272970682,68.26856330059826,0.0
1015,-0.03547189081591438,0.019645985986173457,68.2377469410076,0.0
1016,-0.034114832497333984,0.021527421736219576,68.21351262941081,0.0
1017,-0.0325348068102274,0.02340822106584735,68.19601015767017,0.0
1018,-0.030941602867423847,0.024952004744266208,68.18539291141612,0.0
1019,-0.029691858914162372,0.02573795862850648,68.18181818181819,1.0
1020,-0.02926738813733781,0.025314911277316034,68.18562939778771,0.0
1021,-0.030211710210060312,0.023277229091132397,68.196948146469,0.0
1022,-0.033027336332906644,0.019351430760713675,68.21560562621703,0.0
1023,-0.03804873631704274,0.01347751232107087,68.24143746974069,0.0
1024,-0.045317396567914406,0.00586684472040991,68.27428338765056,0.0
1025,-0.0544916648387863,-0.002979760467980496,68.31398682614665,0.0
1026,-0.06482200336627372,-0.0123043385158443,68.36039463778204,0.0
1027,-0.07521121758635818,-0.021175637415193054,68.41335676432165,0.0
1028,-0.08436128076916755,-0.02861481564903768,68.47272593079157,0.0
1029,-0.09098739167918538,-0.03374301213180309,68.53835734988597,0.0
1030,-0.09406042708796601,-0.03592396021575173,68.61010843596505,0.0
1031,-0.093025691176434,-0.03487336540719162,68.68783852794007,0.0
1032,-0.08794339478743865,-0.03071166556516368,68.77140862039943,0.0
1033,-0.07950805946734785,-0.023947449436975066,68.86068110238493,0.0
1034,-0.06893030046018861,-0.01539308508887118,68.9555195032794,0.0
1035,-0.05770024092452753,-0.0060287383700316005,69.05578824531568,0.0
1036,-0.04728680481536703,0.0031576563080841762,69.16135240226387,0.0
1037,-0.03884868788104152,0.011321735868436638,69.27207746389857,0.0
1038,-0.03303158959614197,0.017875109670942444,69.38782910589008,0.0
1039,-0.029901364666301174,0.02253819103259528,69.50847296480516,0.0
1040,-0.029022632432502197,0.025327148558934073,69.63387441794248,0.0
1041,-0.029651162093356675,0.02648401288695249,69.76389836776605,0.0
1042,-0.030979410579600696,0.02637145040819799,69.89840903073829,0.0
1043,-0.03236555774365303,0.02536028403018108,70.03726973038974,0.0
1044,-0.033487500373129496,0.02373712950293487,70.18034269449949,0.0
1045,-0.03438886969705992,0.021652119524496485,70.32748885629465,0.0
1046,-0.03541564329610541,0.01911490901581704,70.47856765961296,0.0
1047,-0.037070685628229995,0.01603428815420932,70.63343686800602,0.0
1048,-0.0398327771111035,0.012286123763203793,70.7919523777955,0.0
1049,-0.04399242641332704,0.007788519765014883,70.95396803512828,0.0
1050,-0.049548343243244884,0.0025631150257443692,71.11933545711024,0.0
1051,-0.05618865472485319,-0.003233202265916021,71.28790385713177,0.0
1052,-0.06335564607350189,-0.009313048550850661,71.45951987453199,0.0
1053,-0.07036965750676767,-0.015296923138405576,71.63402740878205,0.0
1054,-0.07657379881879965,-0.020774298327141137,71.81126745840054,0.0
1055,-0.08146000729966482,-0.025371951244940624,71.9910779648485,0.0
1056,-0.08474754023293313,-0.028813754359197405,72.17329366168364,0.0
1057,-0.08640221162482084,-0.030959633011332553,72.35774592928671,0.0
1058,-0.08660210969949465,-0.031817349265063556,72.54426265550595,0.0
1059,-0.08566790027251582,-0.03152741307289926,72.73266810259766,0.0
1060,-0.08398055722187044,-0.03032708386704416,72.92278278087299,0.0
1061,-0.08190684113942741,-0.028502945911682398,73.11442332949291,0.0
1062,-0.07974565450122426,-0.026342467038460098,73.30740240488356,0.0
1063,-0.0776999772598544,-0.024093519028204488,73.501528577275,0.0
1064,-0.07587230868432544,-0.02193778058401298,73.69660623589479,0.0
1065,-0.07427779609096472,-0.01998021384362018,73.89243550337612,0.0
1066,-0.07286828461564593,-0.018253314115200946,74.08881215996655,0.0
1067,-0.07156112118670156,-0.0167322596849808,74.28552757814866,0.0
1068,-0.07026739486289359,-0.015355789912592347,74.48236866830639,0.0
1069,-0.0689148891495826,-0.014047643459432175,74.67911783609279,0.0
1070,-0.06746182442178636,-0.012734452998183767,74.87555295217206,0.0
1071,-0.06589928873408718,-0.011357700332762307,75.07144733502642,0.0
1072,-0.06424327731186061,-0.009879199924531448,75.26656974752935,0.0
1073,-0.06252055576700287,-0.008281151569079794,75.46068440799779,0.0
1074,-0.06075454324011405,-0.006562768053555296,75.65355101644072,0.0
1075,-0.05895689863215875,-0.004735716026640538,75.84492479672399,0.0
1076,-0.05712755457140074,-0.0028201851430517243,76.03455655536821,0.0
1077,-0.055261938810832634,-0.0008425576128132783,76.22219275768963,0.0
1078,-0.05336098278946977,0.001165302685898117,76.40757562198122,0.0
1079,-0.051438732105210695,0.003165898724712171,76.59044323241343,0.0
1080,-0.04952419804294807,0.005116254889866124,76.77052967131031,0.0
1081,-0.04765737166381991,0.006969531393937422,76.94756517142696,0.0
1082,-0.04588213378701193,0.00867886124240185,77.12127628881781,0.0
1083,-0.04423958333121005,0.01020351870553365,77.29138609684247,0.0
1084,-0.0427638548035305,0.011516745983455057,77.45761440180524,0.0
1085,-0.041480005947791956,0.012613788170590048,77.61967798066757,0.0
1086,-0.04040181441299409,0.01351805591713211,77.7772908412077,0.0
1087,-0.03952754311741514,0.014283010905282383,77.93016450492891,0.0
1088,-0.038833857385410495,0.014987528398253003,78.07800831293855,0.0
1089,-0.038270887457029765,0.015723286706126383,78.22052975493116,0.0
1090,-0.03776331609159247,0.016574220822902365,78.35743482131436,0.0
1091,-0.03722217454145777,0.017590133675272315,78.4884283784123,0.0
1092,-0.03656949154845032,0.018758833117309023,78.6132145665717,0.0
1093,-0.035773632258089424,0.019983097237211134,78.73149722087751,0.0
1094,-0.03488818206939343,0.02106970019597495,78.84298031406098,0.0
1095,-0.03408294571411991,0.02173706076693252,78.94736842105263,1.0
1096,-0.033653562874737114,0.021645488797652594,79.04631486763961,0.0
1097,-0.03399783448756679,0.020449642228180916,79.14173887788333,0.0
1098,-0.0355529646188146,0.017867356089497747,79.23374622660951,0.0
1099,-0.03869809322156823,0.013753639546471236,79.32244476201339,0.0
1100,-0.04363849375411663,0.008164797374791095,79.40794431267467,0.0
1101,-0.05029798801668318,0.0013966680899963149,79.49035659625447,0.0
1102,-0.05825066582239543,-0.006016265822503307,79.5697951300851,0.0
1103,-0.06671937565168881,-0.013347640859417819,79.64637514385383,0.0
1104,-0.07465634717542546,-0.019769357850305768,79.72021349457387,0.0
1105,-0.08090261021619417,-0.024472553392144873,79.7914285840255,0.0
1106,-0.08440134741305237,-0.026798380089169366,79.8601402788424,0.0
1107,-0.08442122219034988,-0.02635308492741603,79.92646983340828,0.0
1108,-0.08073515404101556,-0.023082969324038288,79.99053981572064,0.0
1109,-0.07370335457398994,-0.0172918170255536,80.05247403636912,0.0
1110,-0.06422896695597585,-0.00959505600285655,80.1123974807681,0.0
1111,-0.053587261900166376,-0.0008186698662755254,80.17043624477392,0.0
1112,-0.04316600015940966,0.008136683595992294,80.22671747380983,0.0
1113,-0.03418274501091741,0.01643799735168865,80.28136930561355,0.0
1114,-0.027453630746874038,0.023439162666924078,80.33452081671501,0.0
1115,-0.02327321044169432,0.028753587891369628,80.38630197274496,0.0
1116,-0.02143146593487999,0.03226823997900259,80.43684358266823,0.0
1117,-0.02135374370107201,0.03410135814215891,80.48627725702953,0.0
1118,-0.022315826310351804,0.034519172300108196,80.53473537029379,0.0
1119,-0.023669449062024228,0.03383559856066913,80.58235102735792,0.0
1120,-0.02501662580457616,0.03232104884452254,80.62925803430593,0.0
1121,-0.02629094050322098,0.030141959955116874,80.67559087347576,0.0
1122,-0.027732969754777338,0.027342980159790562,80.72148468290186,0.0
1123,-0.02977638631655295,0.02387177077827504,80.76707524019484,0.0
1124,-0.03288348696344744,0.019635332803271788,80.81249895091759,0.0
1125,-0.037379128663259986,0.014569430455362225,80.85789284151417,0.0
1126,-0.043328856878478775,0.008700658074185765,80.90339455684823,0.0
1127,-0.050492010089172784,0.002184078883452141,80.94914236240555,0.0
1128,-0.058358192393171256,-0.004693164762209129,80.9952751512168,0.0
1129,-0.06625213593898643,-0.011542576153506134,81.0419324555562,0.0
1130,-0.07347444195918522,-0.017931084206534168,81.08925446347425,0.0
1131,-0.07943892670176295,-0.023449819231766655,81.1373820402241,0.0
1132,-0.08377251000588024,-0.027779006950179548,81.18645675464451,0.0
1133,-0.0863579395471606,-0.030735254417900017,81.23662091056566,0.0
1134,-0.08731762541558234,-0.032292618661412635,81.28801758330889,0.0
1135,-0.08695246550115907,-0.03257531528363716,81.34079066135583,0.0
1136,-0.08565839188003123,-0.03182602393626803,81.39508489326947,0.0
1137,-0.08384398735354581,-0.03035812951900438,81.45104593995536,0.0
1138,-0.08186640088003448,-0.028502204611384686,81.50882043235954,0.0
1139,-0.07999333946384514,-0.0265566014251986,81.56855603470811,0.0
1140,-0.07838992034511821,-0.024749750361196945,81.63040151340263,0.0
1141,-0.07712345960706858,-0.0232185133586574,81.69450681169612,0.0
1142,-0.076177933512691,-0.022003570391915993,81.76102313028585,0.0
1143,-0.07547207097235815,-0.02105997381950873,81.83010301397128,0.0
1144,-0.07487867517878535,-0.02027903622571957,81.9019004445392,0.0
1145,-0.07424547064633896,-0.019516697837284692,81.97657094005288,0.0
1146,-0.07341815694360128,-0.018623345453184413,82.0542716607378,0.0
1147,-0.07226463874761274,-0.017470548574778498,82.1351615216735,0.0
1148,-0.07069706162547469,-0.01597116118630523,82.21940131252006,0.0
1149,-0.06868703616498031,-0.014090551842776852,82.30715382452716,0.0
1150,-0.06627023497255528,-0.011848219983567339,82.39858398509558,0.0
1151,-0.06353910839770859,-0.009310566106957121,82.49385900018407,0.0
1152,-0.060625543734359515,-0.006576917125741972,82.59314850487891,0.0
1153,-0.05767754636663481,-0.003761869774241773,82.69662472247141,0.0
1154,-0.05483482548873091,-0.0009774406985520994,82.80446263241595,0.0
1155,-0.05220779482595959,0.0016816870618908608,82.91684014757354,0.0
1156,-0.0498635837434448,0.004147338108259532,83.03393830117827,0.0
1157,-0.04782150990304157,0.006380237062622656,83.15594144400055,0.0
1158,-0.04605892038003185,0.008365935871434606,83.28303745221925,0.0
1159,-0.04452615419118938,0.0101060458184194,83.41541794655696,0.0
1160,-0.043166921920913384,0.011607616922835136,83.55327852327711,0.0
1161,-0.041938550180426803,0.012873940397079755,83.69681899769046,0.0
1162,-0.04082629896808374,0.013899702749351902,83.8462436608701,0.0
1163,-0.039847674780378435,0.014672316621878626,84.00176155033192,0.0
1164,-0.039045685803927095,0.015179591221892347,84.16358673549647,0.0
1165,-0.038473065538996196,0.015422026099660396,84.33193861881605,0.0
1166,-0.038171580241224176,0.015426338756143127,84.50704225352113,1.0
1167,-0.03815134965175856,0.015255790533120546,84.80884791391694,0.0
1168,-0.038375022717406476,0.015012792119348322,85.35055784624443,0.0
1169,-0.03875113266494296,0.014830325547931102,86.1248203126208,0.0
1170,-0.03914012293932926,0.014850873960054294,87.12725038537357,0.0
1171,-0.039375120298746416,0.015194518660200926,88.35599658567963,0.0
1172,-0.03929719632454768,0.01592112127679861,89.81138928040662,0.0
1173,-0.03880153207708411,0.016994349127091156,91.49564239625951,0.0
1174,-0.03788694778201034,0.01825694314400315,93.41258443965566,0.0
1175,-0.03669749707311813,0.01942638044258725,95.56739702128856,0.0
1176,-0.03554245134060187,0.020117545079524672,97.9663395561129,0.0
1177,-0.03488142534365475,0.019894257828369837,100.61643784609689,0.0
1178,-0.035265879009692094,0.018345178310850103,103.52511206749831,0.0
1179,-0.037237250529751874,0.015172896729220647,106.69971647419,0.0
1180,-0.041194498450037184,0.010279578716349333,110.14695915673586,0.0
1181,-0.04725692446002183,0.0038299574930919693,113.87216589248726,0.0
1182,-0.05515744621117185,-0.003725980444963462,117.87834821223855,0.0
1183,-0.06420256744195837,-0.0116822011471224,122.16503349278871,0.0
1184,-0.07332545227925305,-0.01915945349935441,126.72681604613437,0.0
1185,-0.08123820072980803,-0.025231696092396137,131.55159561707168,0.0
1186,-0.0866627647279908,-0.029075113769585884,136.61848733211986,0.0
1187,-0.08859411166406993,-0.03011139999443679,141.89541999880493,0.0
1188,-0.086532663628268,-0.028115610354928086,147.3364935031714,0.0
1189,-0.08062274639642383,-0.02326443170470871,152.87924624003844,0.0
1190,-0.07165263669593722,-0.016112377851867917,158.44209259719764,0.0
1191,-0.06090657323671546,-0.007498731603345663,163.9223243559002,0.0
1192,-0.049900342815909306,0.0015966259537266653,169.19521223543916,0.0
1193,-0.040066463406151845,0.010218857361606278,174.1148607965055,0.0
1194,-0.032470198580021946,0.01759093102833847,178.51750726480748,0.0
1195,-0.027627708066488264,0.023222488124089894,182.2278433310167,0.0
1196,-0.02546617384484877,0.02695434082924054,185.0686137391673,0.0
1197,-0.025424420435377685,0.028933184761313607,186.87318111681293,0.0
1198,-0.026655674236542536,0.029526892363822242,187.5,1.0
1199,-0.0282724462359732,0.029203431891555488,187.37173894889455,0.0
1200,-0.02957080393161263,0.028403148581886525,186.99463784151843,0.0
1201,-0.030184524953668107,0.02743360128772935,186.3815753428289,0.0
1202,-0.03014200832884209,0.02640894547159426,185.54698496706266,0.0
1203,-0.029823216433340127,0.025244109796417565,184.50653215689772,0.0
1204,-0.02983510879593649,0.023700755243391696,183.27679216951225,0.0
1205,-0.030839205330971117,0.021470383794738125,181.8749385592599,0.0
1206,-0.0333728390894829,0.018272516660566892,180.31845042678924,0.0
1207,-0.037705527651594,0.013943982819757155,178.62484480255839,0.0
1208,-0.04376311875728283,0.00849906076720376,176.81143868873568,0.0
1209,-0.051135593048995794,0.0021482263169356943,174.89514351531676,0.0
1210,-0.059162903840930134,-0.004726600507130247,172.89229316405223,0.0
1211,-0.06707303254042851,-0.011632651067911805,170.81850533807827,0.0
1212,-0.07413427434393023,-0.018047902765001046,168.68857493857493,0.0
1213,-0.07978374635796043,-0.023505615422879204,166.51639726072818,0.0
1214,-0.08370540781017925,-0.02766481544750678,164.3149182289589,0.0
1215,-0.08584824038014433,-0.030354333220506492,162.09610853134984,0.0
1216,-0.08639185346479111,-0.031584656759169605,159.87095835253595,0.0
1217,-0.08567756132438943,-0.03152883226861969,157.64948940616839,0.0
1218,-0.08412623320084331,-0.030479371630276315,155.44078109523136,0.0
1219,-0.0821612917869345,-0.028791609839401346,153.25300784604943,0.0
1220,-0.08014895741667376,-0.026824862493818692,151.09348493879233,0.0
1221,-0.0783609502430198,-0.024891354164672867,148.96872046751903,0.0
1222,-0.07695919754546536,-0.023219932276382874,146.88447138527366,0.0
1223,-0.07599848132482133,-0.021937924094512572,144.84580190836706,0.0
1224,-0.07544152595255343,-0.02107095060248632,142.85714285714283,0.0
1225,-0.07518140217493684,-0.020557679532194312,140.92235079049667,0.0
1226,-0.07506751537243007,-0.020274704588114492,139.04476604362685,0.0
1227,-0.07493277114517671,-0.020066046867415352,137.22726900089398,0.0
1228,-0.07461988496681396,-0.019772065389084457,135.4723341280934,0.0
1229,-0.07400414404580657,-0.019253601120026463,133.7820814520968,0.0
1230,-0.07300913012403815,-0.018408676722009208,132.15832531280077,0.0
1231,-0.07161224583450805,-0.017180735323813486,130.60262032529286,0.0
1232,-0.06983901952485444,-0.015558943925087526,129.1163045820518,0.0
1233,-0.06774851490359281,-0.013572270170612296,127.70054019886,0.0
1234,-0.06541514773458229,-0.011279700891537993,126.35635136689542,0.0
1235,-0.06291316154759147,-0.008759054101741411,125.08466012001279,0.0
1236,-0.06030827959384379,-0.006096419488697755,123.88632006315552,0.0
1237,-0.05765741571633251,-0.003377534568643802,122.76214833759592,0.0
1238,-0.05501360442012052,-0.0006816100977617544,121.71295612350418,0.0
1239,-0.05243134119648359,0.0019225165192604133,120.73957800226007,0.0
1240,-0.049968184226942235,0.004378364235013761,119.84290052184666,0.0
1241,-0.047681208382011286,0.006642436013597115,119.02389033043757,0.0
1242,-0.04562006998589817,0.008683845652976464,118.283622267686,0.0
1243,-0.043820251034946696,0.010483101969424922,117.62330783207312,0.0
1244,-0.04229964880586234,0.012030107868728365,117.04432447790877,0.0
1245,-0.041059594921115244,0.013321495390629632,116.54824623933634,0.0
1246,-0.04008909362558178,0.014357626863367409,116.13687623343668,0.0
1247,-0.03936993832801861,0.015139858360059082,115.81228166316521,0.0
1248,-0.038880821911792186,0.015668864030070104,115.57683202693462,0.0
1249,-0.038599922732450526,0.015944844428136904,115.43324134956714,0.0
1250,-0.03850654078274319,0.015970209575397527,115.38461538461539,1.0
1251,-0.038582362920929446,0.01575481227260675,115.48632522497464,0.0
1252,-0.038811956759996366,0.015323050211722216,115.78434684242362,0.0
1253,-0.03918104037878208,0.014721276855128702,116.26934667024281,0.0
1254,-0.03967102622623368,0.014023164251660782,116.93350046808308,0.0
1255,-0.04024981237446045,0.013330214670934757,117.77020467357302,0.0
1256,-0.04086138047128621,0.012764803877030105,118.77382285866244,0.0
1257,-0.041419270291506494,0.012454164849171705,119.93945657392564,0.0
1258,-0.04181004579350118,0.01250561821628842,121.26273180524245,0.0
1259,-0.04191151622378749,0.012975896571691167,122.73959369938416,0.0
1260,-0.041626665768071135,0.01384008298994153,124.36610329668474,0.0
1261,-0.04092878093798999,0.014967760111097595,126.13823086402847,0.0
1262,-0.03990752170443352,0.01611465614707168,128.05164115306422,0.0
1263,-0.0388012929794771,0.016936755657031892,130.10146660958526,0.0
1264,-0.037999944163607406,0.017030298282979743,132.282065319823,0.0
1265,-0.03800511351435856,0.015995682309991495,134.5867613890588,0.0
1266,-0.0393442698979007,0.013517012293706897,137.00756660283702,0.0
1267,-0.04244785185127632,0.009443358902283696,139.53488372093022,0.0
1268,-0.04751366156291287,0.003854377499078164,142.15719369990643,0.0
1269,-0.0543936692034454,-0.0029068785645348493,144.8607316258133,0.0
1270,-0.06254033545961643,-0.010246687022138323,147.6291592379655,0.0
1271,-0.071039643575427,-0.017383424741591373,150.44324567089072,0.0
1272,-0.07873767141216267,-0.023454341482504325,153.28057239722537,0.0
1273,-0.08444222289141202,-0.027649836788280396,156.11528317674845,0.0
1274,-0.08715831497189494,-0.02935094891390174,158.917904815302,0.0
1275,-0.08630313588456667,-0.02824285028315323,161.65526923351118,0.0
1276,-0.08184682592866435,-0.02438023044271631,164.29057104321555,0.0
1277,-0.0743408361102014,-0.018189208858110654,166.78359661431224,0.0
1278,-0.06482244650109761,-0.010403075487839778,169.09115939701258,0.0
1279,-0.05461534078036957,-0.0019428746775312956,171.16777089369808,0.0
1280,-0.045072863212480094,0.006234548302422972,172.96656613427524,0.0
1281,-0.03732445385151543,0.013291631954721857,174.44048619412254,0.0
1282,-0.032082551860613054,0.018638477914958932,175.5436983397251,0.0
1283,-0.029548672005234537,0.022010620760913844,176.2332079848386,0.0
1284,-0.029430283643967048,0.023483101308648623,176.47058823529412,1.0
1285,-0.031053577837231134,0.023420927258475294,176.39252547301496,0.0
1286,-0.03353854637059237,0.022378610885629424,176.16169453170562,0.0
1287,-0.03599518675725343,0.02097090802492955,175.78368914695972,0.0
1288,-0.03770201482986765,0.01974140054157578,175.26477401439715,0.0
1289,-0.038236931552065465,0.01905456737403604,174.6117904441967,0.0
1290,-0.03754218003416139,0.019031028258543976,173.83205969718603,0.0
1291,-0.035917139165358394,0.01953619315430729,172.933286106432,0.0
1292,-0.0339439059735112,0.020221638853437383,171.92346190614253,0.0
1293,-0.032360666091505445,0.020608332142621547,170.81077546265777,0.0
1294,-0.03190630636497282,0.020193241874825858,169.6035243448997,0.0
1295,-0.03316550002756394,0.018557266928294326,168.31003439795856,0.0
1296,-0.03644488869924935,0.015453289433893694,166.93858570645116,0.0
1297,-0.04170634679979428,0.010858190628412617,165.49734606507175,0.0
1298,-0.04857212836221319,0.004980668574054389,163.99431232149465,0.0
1299,-0.05640057663656549,-0.0017740858258169078,162.43725972836947,0.0
1300,-0.06441396714435511,-0.008873341318009188,160.83369924126296,0.0
1301,-0.07184714763674449,-0.015743952157825654,159.19084253068425,0.0
1302,-0.07808130328927672,-0.021859904303757234,157.51557433961915,0.0
1303,-0.08273300514316433,-0.02681412080292435,155.81443171262393,0.0
1304,-0.0856827644748387,-0.030363176535820123,154.093589546663,0.0
1305,-0.08704489712266963,-0.032440226565887784,152.35885186483094,0.0
1306,-0.08709583036598534,-0.03313825901236041,150.61564818866665,0.0
1307,-0.0861863085824178,-0.03267119626380008,148.86903437943434,0.0
1308,-0.08466228535314213,-0.031323368587454006,147.12369732996478,0.0
1309,-0.08281112614894061,-0.02939818090816492,145.3839629129615,0.0
1310,-0.08083824936417985,-0.027174797628758036,143.65380662587464,0.0
1311,-0.07886924856111165,-0.024878275136494737,141.93686641363863,0.0
1312,-0.07696702450802731,-0.022664833149667437,140.2364571962272,0.0
1313,-0.0751530863350371,-0.02062078581747998,138.55558667597444,0.0
1314,-0.07342543231754982,-0.018771613463530124,136.89697204817887,0.0
1315,-0.07176994223559319,-0.017096895755403206,135.26305728626068,0.0
1316,-0.07016598013116462,-0.01554714992876028,133.656030718615,0.0
1317,-0.06858881499961168,-0.014059622792080718,132.07784265752542,0.0
1318,-0.06701142911905797,-0.012571326418302676,130.53022288054956,0.0
1319,-0.06540701043467569,-0.011028717298322466,129.01469780135395,0.0
1320,-0.06375201210391473,-0.009394174943563517,127.5326071999127,0.0
1321,-0.06202903527474541,-0.007649771273572332,126.08512041129606,0.0
1322,-0.06022918401529923,-0.005798796605697912,124.67325189804639,0.0
1323,-0.0583543287393156,-0.0038652643462351068,123.29787615355457,0.0
1324,-0.05641986289512016,-0.0018913332502657745,121.95974190312207,0.0
1325,-0.05445749644869707,6.756594064414971e-05,120.65948558578734,0.0
1326,-0.052515984059900864,0.0019500121695024417,119.39764411377978,0.0
1327,-0.050656894126778686,0.003698006951976038,118.17466691792005,0.0
1328,-0.04894377753457123,0.005267629643979376,116.99092729669024,0.0
1329,-0.047426195212916855,0.006639374714842643,115.84673309431462,0.0
1330,-0.046123340600935245,0.007826094065972164,114.74233673927371,0.0
1331,-0.045013400993941854,0.008876308409866248,113.67794467945863,0.0
1332,-0.044033334884151676,0.009870977714745202,112.65372625386887,0.0
1333,-0.04309008890353455,0.01091264779151499,111.66982204356987,0.0
1334,-0.042080337572044935,0.01210712508858178,110.7263517467279,0.0
1335,-0.04091355710111531,0.013539304005825897,109.8234216240954,0.0
1336,-0.0395335693369641,0.015246270452540234,108.96113156247222,0.0
1337,-0.03793603824278083,0.017192104682085117,108.1395818045495,0.0
1338,-0.03618201327353994,0.019249661950831085,107.35887939427032,0.0
1339,-0.03440853849056425,0.021194756850197997,106.61914438752397,0.0
1340,-0.03283560320491336,0.02271735140618907,105.92051587872756,0.0
1341,-0.03176501661885208,0.02345235163215446,105.26315789473685,1.0
1342,-0.0315634029139138,0.023029438638788518,104.62590260383836,0.0
1343,-0.03262120663140733,0.021137292169407216,103.98785183473855,0.0
1344,-0.03528420290675599,0.017593277336079315,103.34957837491008,0.0
1345,-0.039763212830066674,0.012406160986309646,102.71163132591447,0.0
1346,-0.0460387962965458,0.00581784059567465,102.07453641593092,0.0
1347,-0.05378639939853854,-0.0016886374172802405,101.43879636726753,0.0
1348,-0.06234976147951504,-0.009422904356670366,100.80489131289909,0.0
1349,-0.07078414014027735,-0.016563592812765156,100.173279256357,0.0
1350,-0.07797642469531543,-0.02226873303709186,99.54439656958563,0.0
1351,-0.08282924842120079,-0.025803140752022932,98.91865852368238,0.0
1352,-0.08447554441761321,-0.026659751644122973,98.29645984774187,0.0
1353,-0.0824747126233173,-0.024650511462063554,97.67817531133244,0.0
1354,-0.07693777383911114,-0.019946658322879545,97.06416032643938,0.0
1355,-0.06854050999536125,-0.013057608989227669,96.45475156501045,0.0
1356,-0.05841001982087678,-0.004750316942085499,95.85026758853671,0.0
1357,-0.047904954086489336,0.004076025205966146,95.25100948639067,0.0
1358,-0.038341869958946874,0.012534970897911014,94.65726151992378,0.0
1359,-0.030737819309353313,0.019888014708752934,94.06929176959535,0.0
1360,-0.025635166712070674,0.02564289589057269,93.48735278266466,0.0
1361,-0.0230498107972905,0.029596674175267866,92.91168221922479,0.0
1362,-0.02254764522425921,0.031818205417221274,92.34250349459205,0.0
1363,-0.02341909203185811,0.03257852690243389,91.78002641628804,0.0
1364,-0.024898639880068647,0.032249005006957404,91.22444781406017,0.0
1365,-0.02637047588234649,0.031193201213236477,90.67595216158539,0.0
1366,-0.02751127874775403,0.029678016810988504,90.13471218868477,0.0
1367,-0.02834173421669635,0.02782321695134058,89.60088948305064,0.0
1368,-0.02918275443833779,0.025597830628556188,89.07463508064666,0.0
1369,-0.0305349345561291,0.02286000177339864,88.55609004409118,0.0
1370,-0.03291628830812845,0.019426600035347172,88.0453860284705,0.0
1371,-0.036701137211079204,0.01515266231840973,87.5426458341557,0.0
1372,-0.04200086668336968,0.009999760058085937,87.04798394631267,0.0
1373,-0.04861535676545767,0.004076533830773554,86.56150706090155,0.0
1374,-0.05606471678352781,-0.0023574811132744,86.08331459705894,0.0
1375,-0.0636894055321252,-0.008924205989124565,85.6134991958447,0.0
1376,-0.07078914150126767,-0.015186496230991855,85.15214720541604,0.0
1377,-0.07676253302297216,-0.02072006593992297,84.69933915276376,0.0
1378,-0.08121235570073111,-0.02518153208068551,84.25515020221238,0.0
1379,-0.08399425816699586,-0.028358575494046225,83.81965060094477,0.0
1380,-0.08520464686271666,-0.030193503301225985,83.39290611186539,0.0
1381,-0.08512051004516537,-0.030778118430839642,82.97497843416524,0.0
1382,-0.08411470360299808,-0.030324010145235187,82.5659256119939,0.0
1383,-0.082572074271287,-0.029116787758827117,82.16580243168366,0.0
1384,-0.08082556179929272,-0.027464671440606186,81.77466080800549,0.0
1385,-0.0791207880631725,-0.025651255844279467,81.39255015996788,0.0
1386,-0.07760728245621766,-0.023899795515743803,81.01951777669836,0.0
1387,-0.07634795888808837,-0.022352953335547442,80.65560917397268,0.0
1388,-0.07533696527697267,-0.021068527415470772,80.30086844198087,0.0
1389,-0.07451855164850274,-0.020028911718811604,79.95533858494034,0.0
1390,-0.07380386709764103,-0.019160294031953407,79.61906185318668,0.0
1391,-0.0730862121182357,-0.018356880416928192,79.29208006839177,0.0
1392,-0.07225666048214291,-0.0175055812674717,78.97443494257651,0.0
1393,-0.07122086074227665,-0.016507345753418466,78.66616839160413,0.0
1394,-0.06991528480539864,-0.01529244857337796,78.36732284385631,0.0
1395,-0.06831900826922804,-0.013828325538814808,78.07794154481311,0.0
1396,-0.06645686661568447,-0.012119870769300975,77.79806885827506,0.0
1397,-0.06439200973738725,-0.010203305468236522,77.52775056498503,0.0
1398,-0.06220954521392728,-0.008135658381463842,77.2670341594278,0.0
1399,-0.05999629308612636,-0.005982424069059189,77.01596914560565,0.0
1400,-0.05782299327475993,-0.003806000708383939,76.77460733261273,0.0
1401,-0.05573400980900446,-0.0016570584160310459,76.54300313085474,0.0
1402,-0.053746393803819396,0.00042983892050731803,76.3212138497892,0.0
1403,-0.051856661469428605,0.00243604949390565,76.10929999809065,0.0
1404,-0.050051346956136625,0.004354778336168355,75.90732558717939,0.0
1405,-0.048317087593348906,0.006184538709835067,75.7153584390883,0.0
1406,-0.046647456421864575,0.007921995075329735,75.53347049968346,0.0
1407,-0.04504594790343089,0.009556078943743556,75.36173815829858,0.0
1408,-0.04352622085456741,0.011064977637532074,75.2002425748936,0.0
1409,-0.04211113749998145,0.0124170321926119,75.04907001590227,0.0
1410,-0.0408313629235883,0.01357581601717086,74.90831219999421,0.0
1411,-0.03972305970854927,0.014508774388124127,74.7780666550446,0.0
1412,-0.038823467135058735,0.015197878903583715,74.65843708767838,0.0
1413,-0.038163452900020656,0.015649924500345795,74.54953376683872,0.0
1414,-0.03775739228474942,0.015903553986399803,74.4514739229191,0.0
1415,-0.03759241134472452,0.01603005058808554,74.36438216410014,0.0
1416,-0.03762046362543046,0.016125582996676494,74.28839091164157,0.0
1417,-0.03775738842037356,0.016294009137274468,74.22364085600351,0.0
1418,-0.03789270688556321,0.016621456121686515,74.1702814358055,0.0
1419,-0.03791224441134149,0.017146380771716704,74.12847134178159,0.0
1420,-0.03773264180490509,0.017831145641699814,74.09837904805524,0.0
1421,-0.03734266403057618,0.018542648625392608,74.08018337323993,0.0
1422,-0.03684171718733856,0.019049560591746853,74.07407407407408,1.0
1423,-0.03646255090274145,0.019041805154475903,74.07457179798745,0.0
1424,-0.036564521981647495,0.018174015134568584,74.07607128616323,0.0
1425,-0.03758755294094673,0.016129320644552053,74.0785820753686,0.0
1426,-0.03996555215801372,0.012694011901265408,74.08211378726145,0.0
1427,-0.0440103965817204,0.007828812010199297,74.08667613101612,0.0
1428,-0.049790509227029864,0.0017201917728482266,74.09227890599237,0.0
1429,-0.05703710743428132,-0.005203499671594131,74.09893200444907,0.0
1430,-0.06511190592659209,-0.012300960934917074,74.10664541430333,0.0
1431,-0.07305989566700874,-0.018793098245430524,74.1154292219368,0.0
1432,-0.0797507163762723,-0.023875262443102216,74.12529361505021,0.0
1433,-0.08408692087394624,-0.026847852135183044,74.13624888556748,0.0
1434,-0.08523467310480151,-0.02724034014994488,74.1483054325909,0.0
1435,-0.08282001676655065,-0.024902829827776685,74.16147376540866,0.0
1436,-0.0770371497634153,-0.020044330852595143,74.17576450655633,0.0
1437,-0.06863480001573823,-0.013207278448857343,74.19118839493383,0.0
1438,-0.05877805527413663,-0.005181182300342396,74.20775628897917,0.0
1439,-0.048816716547488335,0.003128456004710851,74.225479169901,0.0
1440,-0.040016760494833645,0.010849913038676318,74.24436814497129,0.0
1441,-0.03332054965234143,0.017283560973261686,74.26443445087996,0.0
1442,-0.029191489169733395,0.022001322105769962,74.2856894571534,0.0
1443,-0.02757402790144401,0.02488871393985981,74.30814466963832,0.0
1444,-0.02796900847191767,0.02612374497059822,74.33181173405323,0.0
1445,-0.029596950468886964,0.026100587706594992,74.35670243960924,0.0
1446,-0.03160469792204738,0.02531731632970367,74.38282872270213,0.0
1447,-0.033266362834126054,0.024253583171872983,74.41020267067807,0.0
1448,-0.034136203364050016,0.023264694896838724,74.43883652567483,0.0
1449,-0.03412546806734272,0.02251335244307312,74.46874268854064,0.0
1450,-0.03349334312368239,0.021950841576372313,74.49993372283332,0.0
1451,-0.03276036856643605,0.021348057842631822,74.53242235890158,0.0
1452,-0.03256803065423803,0.02036603956906312,74.56622149805132,0.0
1453,-0.03351822981196669,0.0186479511845428,74.60134421679906,0.0
1454,-0.03602915223561782,0.015911179293048392,74.63780377121532,0.0
1455,-0.040238944081966134,0.012019764768652661,74.67561360136057,0.0
1456,-0.045976285520268924,0.007023085921603382,74.71478733581633,0.0
1457,-0.05280022929063292,0.0011549542226097081,74.75533879631446,0.0
1458,-0.06009489533128296,-0.005203939418527474,74.7972820024675,0.0
1459,-0.0671925660084956,-0.011589956659223345,74.84063117660298,0.0
1460,-0.07349468691141285,-0.017532127567045693,74.88540074870501,0.0
1461,-0.07856465882019889,-0.02262390248044591,74.93160536146618,0.0
1462,-0.0821767027621017,-0.026577985844299996,74.97925987545328,0.0
1463,-0.08431764808356451,-0.029256082732256987,75.02837937439003,0.0
1464,-0.08514959036572396,-0.03067128988279293,75.0789791705608,0.0
1465,-0.08494854602820238,-0.030966367897089068,75.1310748103385,0.0
1466,-0.08403651751608829,-0.030375128506265066,75.1846820798409,0.0
1467,-0.08272215086168595,-0.029176067230967374,75.23981701071877,0.0
1468,-0.08125979530161433,-0.02764714776537967,75.29649588608065,0.0
1469,-0.0798301328010568,-0.02602875864086773,75.35473524655771,0.0
1470,-0.07853948868472184,-0.02449905297883808,75.41455189651343,0.0
1471,-0.0774309660916245,-0.023162931243080855,75.47596291040264,0.0
1472,-0.07649957306438346,-0.022053461408170775,75.53898563928428,0.0
1473,-0.07570553517500545,-0.021142902773155395,75.60363771749304,0.0
1474,-0.07498387777326435,-0.020359769988502002,75.66993706947459,0.0
1475,-0.07425210631350486,-0.019608385336725525,75.73790191678965,0.0
1476,-0.07341942780842772,-0.01878786275164453,75.80755078529229,0.0
1477,-0.07239962983456752,-0.01780820304942034,75.87890251248785,0.0
1478,-0.07112639265064777,-0.01660199279122311,75.95197625507639,0.0
1479,-0.06956663352075618,-0.01513100904763386,76.02679149668731,0.0
1480,-0.06772661735767022,-0.013387800380305242,76.10336805581157,0.0
1481,-0.06564783074961346,-0.011392992346107309,76.1817260939377,0.0
1482,-0.06339394747383867,-0.009189572858272762,76.26188612389818,0.0
1483,-0.06103423228310695,-0.0068356554736314894,76.34386901843304,0.0
1484,-0.058630131025186355,-0.004397141614255375,76.4276960189778,0.0
1485,-0.056229768037917086,-0.0019413352052904337,76.51338874468298,0.0
1486,-0.05387080391153896,0.00046796980156870414,76.60096920167283,0.0
1487,-0.0515880088201238,0.002773924382349314,76.69045979255112,0.0
1488,-0.04942010351763608,0.004928906918979053,76.78188332616234,0.0
1489,-0.047411555781385936,0.006896036680646192,76.87526302761636,0.0
1490,-0.04560810764091046,0.008650122190474724,76.9706225485858,0.0
1491,-0.04404804822696176,0.010177964769850379,77.06798597788507,0.0
1492,-0.04275311852845922,0.011477724507581657,77.1673778523404,0.0
1493,-0.0417228675935117,0.012557053182769716,77.2688231679607,0.0
1494,-0.040934669133164465,0.013429952904011834,77.37234739141996,0.0
1495,-0.040349391973464835,0.014112763753873147,77.47797647186083,0.0
1496,-0.03992086294691644,0.014620160765554904,77.58573685303124,0.0
1497,-0.03960635835567882,0.01496235405714455,77.69565548576517,0.0
1498,-0.03937545430478201,0.01514466554479697,77.80775984081927,0.0
1499,-0.03921526826150815,0.015170212803348918,77.92207792207792,1.0
1500,-0.039130955135271546,0.015045594133323294,78.15148128319133,0.0
1501,-0.03914105152579173,0.014788394032392786,78.60253140254626,0.0
1502,-0.03926800417788661,0.0144342785352786,79.26820408351354,0.0
1503,-0.039525234710750465,0.014040751720411698,80.14430348005601,0.0
1504,-0.039903489475566344,0.013684617557408428,81.2290676042613,0.0
1505,-0.04036073983370334,0.013451059418705802,82.52285566474296,0.0
1506,-0.04082087575499965,0.01341404985593291,84.02789145365205,0.0
1507,-0.04118599679036665,0.013610313317589499,85.74804147973431,0.0
1508,-0.04136452975296661,0.014011781844540333,87.68860894943867,0.0
1509,-0.04131260464301207,0.014503683006518626,89.8561254742356,0.0
1510,-0.041079989498008285,0.014876279240327386,92.25812179388626,0.0
1511,-0.04084628661190642,0.014837182079207792,94.90285700652757,0.0
1512,-0.040930452158725344,0.014047827679841186,97.79898289039583,0.0
1513,-0.04175923525841424,0.012182441429201309,100.95511600047196,0.0
1514,-0.04378886146140961,0.009001608811158735,104.37928551865743,0.0
1515,-0.04738810966054372,0.0044268998598489,108.07821969971333,0.0
1516,-0.0527062879915195,-0.0014004442793560355,112.05642887506566,0.0
1517,-0.059561243630606595,-0.008093539560318368,116.31503954472548,0.0
1518,-0.06738534570289485,-0.015038839670073953,120.85033404037834,0.0
1519,-0.0752585466649172,-0.021463868524282715,125.65195653560538,0.0
1520,-0.08203791870672172,-0.026546758514999845,130.70076303376254,0.0
1521,-0.08656682040136579,-0.02955007484259902,135.96632594772095,0.0
1522,-0.08792103994272997,-0.029953778925481497,141.40415956479129,0.0
1523,-0.0856319474400598,-0.027559806637834788,146.95281744611583,0.0
1524,-0.07982492767388408,-0.022544724860517392,152.53113028598267,0.0
1525,-0.07122856569127277,-0.01544677051110045,158.03599945838923,0.0
1526,-0.06104355022051209,-0.007087145162397012,163.341320551503,0.0
1527,-0.050700567824906465,0.0015604952648910929,168.29874569375883,0.0
1528,-0.04156970523485562,0.009527314684661706,172.74104270354303,0.0
1529,-0.0346973177602569,0.01600287100804994,176.48869412342137,0.0
1530,-0.03063463658400138,0.020455981156112617,179.3600247546411,0.0
1531,-0.029390790131835286,0.022701585858517837,181.18452179642,0.0
1532,-0.030504637167079005,0.022904138284848566,181.8181818181818,1.0
1533,-0.03319933795152921,0.021520944211158036,181.69562375031873,0.0
1534,-0.036569960992224065,0.01919991633826373,181.33337470122635,0.0
1535,-0.039758361930114464,0.01665323577685351,180.74090461441844,0.0
1536,-0.04208515640129481,0.0145305445361229,179.92927582015716,0.0
1537,-0.043127395785276364,0.013312864462548627,178.91089805420165,0.0
1538,-0.042745499463357685,0.01324268068165631,177.69927275661377,0.0
1539,-0.041070625603053,0.014298157791543283,176.30873491616984,0.0
1540,-0.03846429239645282,0.016211811329950962,174.75419997619483,0.0
1541,-0.035458617402256455,0.01852729650006052,173.0509222999548,0.0
1542,-0.03268173259207375,0.020683001327970383,171.21427050365224,0.0
1543,-0.030771584607723782,0.022108158792373656,169.2595236954868,0.0
1544,-0.03028345074635078,0.022316296149714695,167.20169139333643,0.0
1545,-0.031601151341919084,0.020981963398917523,165.05535869988177,0.0
1546,-0.03486667210549736,0.017989667997272404,162.83455724375304,0.0
1547,-0.03994462680033478,0.013448477408708328,160.55266148216353,0.0
1548,-0.04643422411958286,0.00767129270006667,158.2223092216954,0.0
1549,-0.053731765264295774,0.0011235457469038184,155.85534465247574,0.0
1550,-0.061133659105723846,-0.00564894885912743,153.4627817988469,0.0
1551,-0.0679580996234817,-0.012100014411189387,151.0547860507005,0.0
1552,-0.07365755841846744,-0.017757226405521756,148.6406713328302,0.0
1553,-0.07789660509895377,-0.022278176048312462,146.22891047149173,0.0
1554,-0.08057956310606133,-0.025481016379684734,143.82715640407028,0.0
1555,-0.08182664113729039,-0.027346816025401146,141.44227202685147,0.0
1556,-0.08191067141290592,-0.027996719922362634,139.08036666717,0.0
1557,-0.08117521146904519,-0.027651268697776746,136.74683738236428,0.0
1558,-0.07995634626186215,-0.02658159617122013,134.4464135148024,0.0
1559,-0.07852553676561447,-0.025062293295973717,132.18320315863915,0.0
1560,-0.07706195073188363,-0.02333376826775926,129.96074041163342,0.0
1561,-0.07565337778656595,-0.021578674442008786,127.78203248851807,0.0
1562,-0.07431789638346657,-0.019913361982399673,125.64960595739824,0.0
1563,-0.07303516992715502,-0.018392219352057856,123.56555152549082,0.0
1564,-0.07177640180204659,-0.01702081146227298,121.53156694457185,0.0
1565,-0.0705247025143367,-0.01577310400308531,119.54899773011964,0.0
1566,-0.06928197751801805,-0.014608615689796094,117.61887549237167,0.0
1567,-0.0680634270447975,-0.013486619033046106,115.74195376384705,0.0
1568,-0.06688504916246489,-0.01237597686281659,113.91874127808582,0.0
1569,-0.06575168110468159,-0.011260400295494674,112.14953271028037,0.0
1570,-0.06465213248184394,-0.010139601586572344,110.43443693400705,0.0
1571,-0.06356410046131698,-0.009027007408326687,108.77340288119703,0.0
1572,-0.06246641442903065,-0.007944615500024935,107.16624311650173,0.0
1573,-0.06135208450101786,-0.00691552249995406,105.61265525383152,0.0
1574,-0.06023463100449128,-0.00595485781677252,104.11224135344064,0.0
1575,-0.05914290162440197,-0.005060380964333173,102.66452544368782,0.0
1576,-0.05810492079827541,-0.004204675419315963,101.26896931355435,0.0
1577,-0.057126826141141826,-0.003331380945088185,99.92498672102211,0.0
1578,-0.05617603199253878,-0.0023578982929227258,98.63195615924792,0.0
1579,-0.05517695275664562,-0.0011862393541721512,97.38923231772323,0.0
1580,-0.05402330613037879,0.0002778329764662642,96.19615636979296,0.0
1581,-0.05260518907452023,0.002099291235379201,95.05206521142514,0.0
1582,-0.050844286913315426,0.004286025518817755,93.95629976931215,0.0
1583,-0.04872848172525116,0.006764503515355565,92.90821248949914,0.0
1584,-0.04633797723342065,0.009365458443792829,91.90717411098912,0.0
1585,-0.04385763822606767,0.01182561197899377,90.95257982232226,0.0
1586,-0.04157277760868518,0.013809437414257199,90.04385489310035,0.0
1587,-0.039846901332787885,0.014951625945454442,89.18045986691506,0.0
1588,-0.03908010057549902,0.014916646259676772,88.36189539722554,0.0
1589,-0.03964742404685617,0.013467283469167052,87.58770680346716,0.0
1590,-0.041819716376914035,0.010530242974430875,86.8574884211164,0.0
1591,-0.045676059270885104,0.006244848674755467,86.17088781662875,0.0
1592,-0.051025728864159056,0.0009814758996901153,85.52760993614935,0.0
1593,-0.05736465470951292,-0.0046798480107515545,84.92742125571964,0.0
1594,-0.06389191399427904,-0.01001344418058834,84.37015400041861,0.0
1595,-0.06960242861321761,-0.014248575188691586,83.8557105005467,0.0
1596,-0.07345291547106404,-0.01669167579285651,83.38406775466505,0.0
1597,-0.07457378999795772,-0.016848395647126202,82.95528227213589,0.0
1598,-0.07247813511664528,-0.014520929591877388,82.56949527189266,0.0
1599,-0.06720908658132567,-0.009858871966189165,82.22693831965039,0.0
1600,-0.059375691417160266,-0.0033500065218036003,81.92793949283164,0.0
1601,-0.05005508583306731,0.00425051590743568,81.67293017136188,0.0
1602,-0.040578302093765964,0.012041009181791068,81.46245256346268,0.0
1603,-0.03225419309278367,0.019121471365598816,81.29716808899303,0.0
1604,-0.026105883792157315,0.024740479821587166,81.17786675919164,0.0
1605,-0.022688244487530873,0.02841240907952305,81.1054777113918,0.0
1606,-0.022025877476636754,0.02998323746722853,81.08108108108108,1.0
1607,-0.023671918728758228,0.029634293772046523,81.08453421295887,0.0
1608,-0.026854758044184274,0.027826048677338847,81.09486850623412,0.0
1609,-0.030663801923006447,0.02519552251164239,81.11204890574464,0.0
1610,-0.03422836018785817,0.022428740212483717,81.13604377218195,0.0
1611,-0.03685901236460898,0.020132713862079092,81.16682482509361,0.0
1612,-0.038138596749296684,0.01872967004143181,81.20436709032819,0.0
1613,-0.03796272759003875,0.018390607911079805,81.2486488517812,0.0
1614,-0.036535077893177614,0.01901724847864701,81.29965160731206,0.0
1615,-0.03432283017695596,0.020272616252388426,81.35736002871201,0.0
1616,-0.03197701317520017,0.02165232862998792,81.42176192561368,0.0
1617,-0.03022436307318926,0.022582312744016668,81.49284821324218,0.0
1618,-0.029742670012955216,0.022524943544977503,81.57061288391698,0.0
1619,-0.031038289796162303,0.021074956699258043,81.65505298222256,0.0
1620,-0.034349007088155324,0.018028982713404765,81.74616858377449,0.0
1621,-0.03959431908483439,0.013417759247032531,81.84396277751605,0.0
1622,-0.046386950314863916,0.00749711719168276,81.9484416514876,0.0
1623,-0.05410540678075311,0.0007014261571118147,82.05961428201984,0.0
1624,-0.06201179132709712,-0.006430125498323964,82.17749272630851,0.0
1625,-0.06938730085047307,-0.01333957345648808,82.30209201833624,0.0
1626,-0.07565398586338296,-0.019532326245431546,82.43343016811383,0.0
1627,-0.08045656669403697,-0.024641113263941344,82.57152816422047,0.0
1628,-0.08369013526892008,-0.028462070681442672,82.7164099796298,0.0
1629,-0.0854741868109644,-0.030959536265383926,82.86810258081458,0.0
1630,-0.08608619956319041,-0.0322424947511608,83.02663594013049,0.0
1631,-0.08587570204459878,-0.03252074410071322,83.192043051486,0.0
1632,-0.08518111147590471,-0.0320517590220766,83.36435994931135,0.0
1633,-0.08426719334422764,-0.031089531899343898,83.54362573084781,0.0
1634,-0.0832928492770932,-0.02984462428338607,83.72988258178368,0.0
1635,-0.08230986015676357,-0.028461013589725623,83.92317580527147,0.0
1636,-0.08128580549402617,-0.027011075219105306,84.12355385436663,0.0
1637,-0.08014033530024756,-0.025506190144913354,84.3310683679363,0.0
1638,-0.07878360921210134,-0.023917760489097172,84.54577421009239,0.0
1639,-0.07714811996613063,-0.02220222733806388,84.76772951321193,0.0
1640,-0.07520878729578565,-0.020324002941813524,84.99699572461375,0.0
1641,-0.07298983982580459,-0.018271727033759767,85.23363765696924,0.0
1642,-0.07055985993665882,-0.01606542594775217,85.47772354253196,0.0
1643,-0.0680181831183211,-0.013754445778831958,85.72932509127979,0.0
1644,-0.06547660468942568,-0.011407978107248272,85.98851755307072,0.0
1645,-0.06304023779599556,-0.009101282632862917,86.25537978392298,0.0
1646,-0.06079077301941133,-0.006901198394573552,86.52999431653832,0.0
1647,-0.058774706415002896,-0.004854253319134379,86.81244743519763,0.0
1648,-0.0569984153907944,-0.002979788642267502,87.10282925516641,0.0
1649,-0.05543098763463792,-0.0012692486251377477,87.40123380675972,0.0
1650,-0.05401418609826364,0.0003085838811410571,87.70775912422467,0.0
1651,-0.05267711720087087,0.0017978445830668438,88.02250733961179,0.0
1652,-0.051351861955509934,0.003243642459212398,88.34558478181661,0.0
1653,-0.04998631925180671,0.004680606363974567,88.67710208098629,0.0
1654,-0.04855190525564811,0.006124493226151774,89.01717427849842,0.0
1655,-0.04704581500441555,0.007568829018858891,89.365920942733,0.0
1656,-0.04548916836703253,0.00898757742631318,89.7234662908729,0.0
1657,-0.04392274917758107,0.010343607896936434,90.08993931698338,0.0
1658,-0.04240119142943039,0.011601420112158886,90.46547392663744,0.0
1659,-0.04098511285202234,0.012741361533267114,90.85020907837017,0.0
1660,-0.039729973544370016,0.013771674911199948,91.2442889322642,0.0
1661,-0.03867130010798082,0.014734395379164409,91.64786300598665,0.0
1662,-0.037808536553141085,0.01570163855332098,92.06108633861845,0.0
1663,-0.03709318044623051,0.01676034897946152,92.48411966263879,0.0
1664,-0.03642912335017716,0.01798607927919351,92.91712958444955,0.0
1665,-0.035692288072923156,0.01940951581476707,93.36028877384977,0.0
1666,-0.0347718657701005,0.02098260506764609,93.81377616289538,0.0
1667,-0.03362754440850912,0.02255337639285755,94.2777771546072,0.0
1668,-0.03234846579411645,0.02385897982289899,94.75248384201983,0.0
1669,-0.031193394435783044,0.024544400073232102,95.23809523809524,1.0
1670,-0.030590715264739943,0.0242096612540705,95.8497217438583,0.0
1671,-0.031083360618289424,0.022481737441364794,96.6978153934869,0.0
1672,-0.033217638952760795,0.019100207794189278,97.77751106177014,0.0
1673,-0.03739350379261981,0.013999805591107209,99.0861798924862,0.0
1674,-0.043711533557236615,0.007370294797476165,100.62307864100289,0.0
1675,-0.05186179292092968,-0.00032409685198405216,102.38903940966539,0.0
1676,-0.061096171384843925,-0.008376867448062939,104.38617862458749,0.0
1677,-0.07030749058362712,-0.015923866245228773,106.61760592005498,0.0
1678,-0.07821011554706694,-0.022069240460046997,109.08711414055824,0.0
1679,-0.08358678223411976,-0.02603100501752148,111.79883122915695,0.0
1680,-0.08554451620599407,-0.027278127289201412,114.75681358881512,0.0
1681,-0.08371589689575447,-0.025630733891815565,117.96455883997186,0.0
1682,-0.07835294091133116,-0.02130134846457502,121.42441408938785,0.0
1683,-0.07028699934109621,-0.014866728533534046,125.1368543568137,0.0
1684,-0.06076244888882738,-0.007174239154324718,129.09960539379097,0.0
1685,-0.05118490437026134,0.0007995989710476749,133.3065868161965,0.0
1686,-0.042846173420287875,0.008110934453823285,137.7466567236843,0.0
1687,-0.036691372820535334,0.01399960801527573,142.40214974837605,0.0
1688,-0.03317792982896668,0.01800122210243538,147.2472191912336,0.0
1689,-0.03224789479173966,0.020000890675142987,152.24602329166973,0.0
1690,-0.0334045789694708,0.020221582143638075,157.350838276505,0.0
1691,-0.03586189323509588,0.019152875213178794,162.50023808140278,0.0
1692,-0.03872513064979459,0.01743676626427888,167.61755134349602,0.0
1693,-0.04116474166992673,0.015733945898126538,172.60988452391723,0.0
1694,-0.042555301401835194,0.014595829662718081,177.3680728566371,0.0
1695,-0.04256472545877604,0.014364788445552513,181.76796644820223,0.0
1696,-0.04118959973807639,0.015118510991952758,185.67344714417484,0.0
1697,-0.0387394480943137,0.01666574625240152,188.94146904146922,0.0
1698,-0.03577633822219578,0.018591439680569526,191.429195296452,0.0
1699,-0.03301824827339885,0.02034098212788974,193.0029632751662,0.0
1700,-0.0312171238064938,0.02132713123472245,193.5483870967742,1.0
1701,-0.031026665108631495,0.02103997378884894,193.40036345743718,0.0
1702,-0.03287992343784145,0.019140482654956534,192.9646178220119,0.0
1703,-0.0369001382138866,0.015521718118129904,192.25540621978053,0.0
1704,-0.042866422134050806,0.010327949513209679,191.2890307122429,0.0
1705,-0.0502466264927314,0.0039298486069116985,190.08343493339385,0.0
1706,-0.05829399773345278,-0.003138021197048757,188.65779472909725,0.0
1707,-0.0661868362597843,-0.010264495505908917,187.0321179881976,0.0
1708,-0.07317796334338023,-0.016856968216870116,185.2268656452688,0.0
1709,-0.07871858111025684,-0.022427008047780295,183.2626033674292,0.0
1710,-0.08252997331241226,-0.02665199667610532,181.15969083649804,0.0
1711,-0.08461267357090178,-0.029404001821633836,178.93801299475325,0.0
1712,-0.08519993663716799,-0.030744042206555702,176.61675528833155,0.0
1713,-0.08467486683744821,-0.030886557198832387,174.21422292141892,0.0
1714,-0.0834754300294109,-0.030143883857624964,171.7477024862471,0.0
1715,-0.08200909591497309,-0.028863011864473754,169.23336307822635,0.0
1716,-0.08059162829178057,-0.027366642695226776,166.68619313017513,0.0
1717,-0.07941589811143121,-0.025908053141335506,164.1199686695072,0.0
1718,-0.07854921440157123,-0.024645309384376164,161.54724846809995,0.0
1719,-0.07795286754357277,-0.023636011358698666,158.9793915603533,0.0
1720,-0.07751539929153507,-0.022849892138412535,156.42659279388428,0.0
1721,-0.07709091035638028,-0.022193906346345674,153.8979323961991,0.0
1722,-0.07653480303062213,-0.021543213866712138,151.40143594265876,0.0
1723,-0.07573131673200531,-0.020771655355998123,148.94414155697282,0.0
1724,-0.07460979141788264,-0.019776614323283065,146.53217163427132,0.0
1725,-0.07314940123033148,-0.018495108330936913,144.1708068252251,0.0
1726,-0.07137450605841457,-0.016910063621888516,141.86456044134928,0.0
1727,-0.06934410338381813,-0.015047592212124601,139.6172518260433,0.0
1728,-0.06713882361549092,-0.012967435517337606,137.43207757735394,0.0
1729,-0.06484784275866676,-0.010749448960993866,135.31167980480868,0.0
1730,-0.06255685328154065,-0.008479100818542785,133.25821085455058,0.0
1731,-0.06033767366620865,-0.00623456332831651,131.2733941468425,0.0
1732,-0.05824037502637196,-0.004077248617861909,129.35858094140332,0.0
1733,-0.05628934024223101,-0.0020467585089863956,127.51480298321555,0.0
1734,-0.05448454038489476,-0.00016033431521469618,125.7428210888821,0.0
1735,-0.05280810561666021,0.0015838563767455122,124.04316981573557,0.0
1736,-0.051234450540912774,0.0032007758251615757,122.41619841692423,0.0
1737,-0.0497407991598879,0.004711328418589842,120.8621083294783,0.0
1738,-0.048314779267879124,0.006135299436233447,119.38098747236552,0.0
1739,-0.046956959261780534,0.007485537415337881,117.97284165082861,0.0
1740,-0.0456782168350318,0.008764140968776984,116.637623374509,0.0
1741,-0.044493776278398844,0.009961063594891812,115.37525840227264,0.0
1742,-0.043416864336060665,0.011055286101468699,114.1856703282068,0.0
1743,-0.04245481722895671,0.012018530816799981,113.06880352260491,0.0
