,PPG_Raw,PPG_Clean,PPG_Rate,PPG_Peaks
0,-0.9311762919512647,0.10491812615809626,75.18796992481202,0.0
1,-0.9060222992735775,0.1282155334564389,75.18796992481202,0.0
2,-0.8812947629310407,0.15101653002495236,75.18796992481202,0.0
3,-0.8574146518275597,0.1728116113835724,75.18796992481202,0.0
4,-0.8347933555312427,0.19315694520507376,75.18796992481202,0.0
5,-0.813810768799229,0.21170868383494992,75.18796992481202,0.0
6,-0.7947830776899135,0.22825571766423053,75.18796992481202,0.0
7,-0.7779175715713302,0.24274596073420643,75.18796992481202,0.0
8,-0.7632601176022127,0.25529960478535874,75.18796992481202,0.0
9,-0.7506510927037956,0.26620276883584426,75.18796992481202,0.0
10,-0.7397108284861436,0.2758770978819601,75.18796992481202,0.0
11,-0.7298715326714386,0.2848250319843117,75.18796992481202,0.0
12,-0.7204598450132527,0.2935559210016902,75.18796992481202,0.0
13,-0.7108178111616352,0.30250361110517376,75.18796992481202,0.0
14,-0.7004366300799664,0.31195007011595666,75.18796992481202,0.0
15,-0.6890714983142833,0.32197074744388754,75.18796992481202,0.0
16,-0.6768081041609839,0.332414980455072,75.18796992481202,0.0
17,-0.6640602313646458,0.3429290125290866,75.18796992481202,0.0
18,-0.6514916908989988,0.3530211030287554,75.18796992481202,0.0
19,-0.6398730589641132,0.36215946920655706,75.18796992481202,0.0
20,-0.6299019871518661,0.3698863433705355,75.18796992481202,0.0
21,-0.6220298765407659,0.37592695822282374,75.18796992481202,0.0
22,-0.6163405526412193,0.3802718130738255,75.18796992481202,0.0
23,-0.6125140809020417,0.3832142120882596,75.18796992481202,0.0
24,-0.6098839184189605,0.3853319786775833,75.18796992481202,0.0
25,-0.6075682750891334,0.3874110014800567,75.18796992481202,0.0
26,-0.6046389822484366,0.3903172725527514,75.18796992481202,0.0
27,-0.600290427029301,0.39483203971997705,75.18796992481202,0.0
28,-0.5939850975921078,0.40147082670062145,75.18796992481202,0.0
29,-0.5855711037716925,0.41031104023390186,75.18796992481202,0.0
30,-0.5753788092924,0.42085451874421964,75.18796992481202,0.0
31,-0.5643012741357606,0.4319503907097444,75.18796992481202,0.0
32,-0.553848196790878,0.44179947413444176,75.18796992481202,0.0
33,-0.5461451861501764,0.4480535909153357,75.18796992481202,1.0
34,-0.5438419126764691,0.4480114305903279,75.16703892507829,0.0
35,-0.5499020249900278,0.4388977305703211,75.14612595116888,0.0
36,-0.5672738547036056,0.41819650676112013,75.12523735460539,0.0
37,-0.5984750862318914,0.383994919763245,75.1043794727839,0.0
38,-0.6451553346040638,0.33528565009107303,75.08355862903139,0.0
39,-0.7077196736656639,0.2721755118872708,75.06278113267268,0.0
40,-0.7850992596774682,0.19595816519565012,75.04205327910803,0.0
41,-0.8747386344940403,0.10902870186052732,75.02138134990093,0.0
42,-0.9728313079170628,0.014644617645791946,75.00077161287668,0.0
43,-1.0747818998651935,-0.08343381339781075,74.98023032223082,0.0
44,-1.1758185817129976,-0.18136661549585992,74.95976371864836,0.0
45,-1.27163932960525,-0.27564951164963336,74.93937802943282,0.0
46,-1.358961022899014,-0.36345059541729685,74.91907946864562,0.0
47,-1.4358566434061786,-0.4428122127983045,74.8988742372556,0.0
48,-1.5018102810854022,-0.5126892562757115,74.87876852329848,0.0
49,-1.5574828372680087,-0.5728288719667787,74.85876850204639,0.0
50,-1.6042488630750302,-0.6235293420040826,74.83888033618739,0.0
51,-1.6436208525491116,-0.6653400277876146,74.81911017601477,0.0
52,-1.6767069554975682,-0.6987740385838547,74.79946415962634,0.0
53,-1.7038411974015633,-0.7240984282850521,74.77994841313333,0.0
54,-1.72447962105025,-0.7412450163555668,74.76056905087918,0.0
55,-1.7373811294738664,-0.7498538708991301,74.74133217566806,0.0
56,-1.741010454601601,-0.7494288687201972,74.72224387900289,0.0
57,-1.7340399344760435,-0.7395585856781544,74.7033102413331,0.0
58,-1.7158065848723736,-0.7201422213019016,74.68453733231196,0.0
59,-1.6866045220082453,-0.6915620379765806,74.66593121106341,0.0
60,-1.6477471059633435,-0.6547596082305409,74.64749792645839,0.0
61,-1.601397692059785,-0.6111982742552293,74.62924351740061,0.0
62,-1.5502242144851557,-0.5627218846480146,74.61117401312187,0.0
63,-1.4969694699214238,-0.511343197703023,74.59329543348659,0.0
64,-1.444040920755349,-0.45900905642367545,74.57561378930589,0.0
65,-1.3932107948051002,-0.4073910820390338,74.5581350826609,0.0
66,-1.3454831457859076,-0.3577409132880347,74.54086530723539,0.0
67,-1.301138061656513,-0.3108313602665772,74.52381044865777,0.0
68,-1.2599171585274447,-0.26698425415436444,74.50697648485232,0.0
69,-1.221282364968127,-0.2261674279459149,74.49036938639964,0.0
70,-1.1846709050313662,-0.18813116116552947,74.4739951169064,0.0
71,-1.149684131445136,-0.15255052364463736,74.45785963338427,0.0
72,-1.116178580586833,-0.11914405407002723,74.44196888663814,0.0
73,-1.0842614725174848,-0.08774895379127354,74.42632882166343,0.0
74,-1.0542178660915322,-0.0583453151442766,74.41094537805272,0.0
75,-1.0264065536053455,-0.03103366459842727,74.39582449041147,0.0
76,-1.0011575671784523,-0.0059788814503846655,74.3809720887831,0.0
77,-0.978692004728546,0.016661868408409164,74.36639409908307,0.0
78,-0.959071993168358,0.036809204279676405,74.35209644354238,0.0
79,-0.9421798707129321,0.05451468695995171,74.3380850411601,0.0
80,-0.9277222055010667,0.0699873141301734,74.32436580816525,0.0
81,-0.9152541668113402,0.08358958569068453,74.31094465848791,0.0
82,-0.9042202716777666,0.09580506229402289,74.29782750423952,0.0
83,-0.8940072185779613,0.10718400311260393,74.28502025620261,0.0
84,-0.8840038443373092,0.11827687598910419,74.2725288243296,0.0
85,-0.8736631117126193,0.12956709449643627,74.26035911825127,0.0
86,-0.8625611681486494,0.1414142097239582,74.24851704779431,0.0
87,-0.8504475820376703,0.1540170252404159,74.23700852350838,0.0
88,-0.8372783603272896,0.1674028730037962,74.22583945720264,0.0
89,-0.8232210581178903,0.1814449106813808,74.21501576249172,0.0
90,-0.8086225346872583,0.19590433266501447,74.20454335535128,0.0
91,-0.7939370571846396,0.21048963291728437,74.19442815468302,0.0
92,-0.7796245962214121,0.22492148517311125,74.18467608288952,0.0
93,-0.7660417745737432,0.23899033785575985,74.17529306645855,0.0
94,-0.7533548532905978,0.25259505305966207,74.1662850365573,0.0
95,-0.7415007968773109,0.26575486124225955,74.15765792963634,0.0
96,-0.7302086978157645,0.27859286093094454,74.14941768804353,0.0
97,-0.7190746855994989,0.29129596052752244,74.14157026064777,0.0
98,-0.7076669200048247,0.30406192510545194,74.13412160347293,0.0
99,-0.6956301108574764,0.3170475580939484,74.1270776803418,0.0
100,-0.6827629632032272,0.33033203739798284,74.12044446353022,0.0
101,-0.6690533134552444,0.3439058374479633,74.11422793443168,0.0
102,-0.6546683458592073,0.3576891359432853,74.10843408423203,0.0
103,-0.6399065350541949,0.3715754581975398,74.10306891459496,0.0
104,-0.6251228664843579,0.3854883217745141,74.0981384383579,0.0
105,-0.6106414143637222,0.3994326968253452,74.09364868023863,0.0
106,-0.596672064121479,0.4135208662397185,74.08960567755287,0.0
107,-0.5832519076516836,0.4279548834943838,74.08601548094249,0.0
108,-0.5702347699385348,0.44295556044948503,74.08288415511524,0.0
109,-0.5573505586958366,0.4586399515768059,74.08021777959517,0.0
110,-0.5443457851837773,0.47486362892928746,74.07802244948479,0.0
111,-0.5311964149420709,0.4910576388705054,74.07630427623842,0.0
112,-0.5183573863869783,0.5060993461170062,74.07506938844736,0.0
113,-0.5069873936616482,0.5182581203549843,74.0743239326367,0.0
114,-0.4990729732164577,0.5252489427023876,74.07407407407408,1.0
115,-0.4973815183265999,0.5244095123027346,74.07407407407408,0.0
116,-0.5052025535990088,0.5129918494476725,74.07407407407408,0.0
117,-0.5258867436734196,0.4885325850495451,74.07407407407408,0.0
118,-0.5622510761805359,0.44924337651618207,74.07407407407408,0.0
119,-0.615969523463072,0.39435039193396404,74.07407407407408,0.0
120,-0.6870937537955843,0.32431394688327697,74.07407407407408,0.0
121,-0.7738357299093931,0.24087729758046933,74.07407407407408,0.0
122,-0.8726912038986376,0.146924484751275,74.07407407407408,0.0
123,-0.9789012486692933,0.04616460924027846,74.07407407407408,0.0
124,-1.0871607109008394,-0.057304509561500766,74.07407407407408,0.0
125,-1.1924154332256445,-0.15947518575762898,74.07407407407408,0.0
126,-1.2905668465825983,-0.2568645964004626,74.07407407407408,0.0
127,-1.3789311941533826,-0.34682908000388774,74.07407407407408,0.0
128,-1.456370663509768,-0.42770847135456624,74.07407407407408,0.0
129,-1.5231000808963906,-0.4987877832327591,74.07407407407408,0.0
130,-1.5802477442923206,-0.5601017864214073,74.07407407407408,0.0
131,-1.629294220132333,-0.6121389510271454,74.07407407407408,0.0
132,-1.6715248086370385,-0.6555181411240637,74.07407407407408,0.0
133,-1.7076156769610729,-0.6907113048228792,74.07407407407408,0.0
134,-1.7374371718899053,-0.7178691646795728,74.07407407407408,0.0
135,-1.7601056202871634,-0.7367792038459056,74.07407407407408,0.0
136,-1.7742547517201381,-0.7469530234721579,74.07407407407408,0.0
137,-1.7784440768143377,-0.747810976275903,74.07407407407408,0.0
138,-1.7715911522634797,-0.7389122204648232,74.07407407407408,0.0
139,-1.753317707005155,-0.7201717356772575,74.07407407407408,0.0
140,-1.7241327760150909,-0.6920128399217675,74.07407407407408,0.0
141,-1.6854250281978802,-0.6554216414015858,74.07407407407408,0.0
142,-1.639284328088123,-0.6118937203037564,74.07407407407408,0.0
143,-1.5882066151983198,-0.563287361441783,74.07407407407408,0.0
144,-1.5347512434090904,-0.511616582999961,74.07407407407408,0.0
145,-1.4812177300197693,-0.45882740220412876,74.07407407407408,0.0
146,-1.4293953832201007,-0.40660084920494255,74.07407407407408,0.0
147,-1.3804209510744054,-0.35621706276182247,74.07407407407408,0.0
148,-1.3347600828907151,-0.30849911112608575,74.07407407407408,0.0
149,-1.29230860726296,-0.26383685912722626,74.07407407407408,0.0
150,-1.2525888915528018,-0.22227442003746867,74.07407407407408,0.0
151,-1.2149962627279798,-0.18363309808090672,74.07407407407408,0.0
152,-1.1790356403725852,-0.14763755616386892,74.07407407407408,0.0
153,-1.144486623812238,-0.11401675196786928,74.07407407407408,0.0
154,-1.1114521707686624,-0.0825615668695821,74.07407407407408,0.0
155,-1.0802807807113146,-0.053134990777929075,74.07407407407408,0.0
156,-1.0513943201239762,-0.025644354333473868,74.07407407407408,0.0
157,-1.025086600897769,5.260238506332726e-06,74.07407407407408,0.0
158,-1.0013670693124217,0.023954095774770312,74.07407407407408,0.0
159,-0.979905413939905,0.046408699741505716,74.07407407407408,0.0
160,-0.9600948970234334,0.06763138478854422,74.07407407407408,0.0
161,-0.94121040033872,0.08790025556683315,74.07407407407408,0.0
162,-0.9226066680937552,0.10745213031163023,74.07407407407408,0.0
163,-0.9038920642994864,0.12642663826478537,74.07407407407408,0.0
164,-0.8850246429635386,0.1448298730695357,74.07407407407408,0.0
165,-0.8663048921908821,0.1625305017217204,74.07407407407408,0.0
166,-0.8482728939583588,0.17929206131368017,74.07407407407408,0.0
167,-0.8315453735514196,0.1948351424746829,74.07407407407408,0.0
168,-0.8166418225189327,0.2089151037253949,74.07407407407408,0.0
169,-0.8038462108894486,0.22139693759065857,74.07407407407408,0.0
170,-0.7931351977175904,0.23230968963938428,74.07407407407408,0.0
171,-0.7841818798308409,0.24186785171863,74.07407407407408,0.0
172,-0.776423290157087,0.2504548404116976,74.07407407407408,0.0
173,-0.7691662399811698,0.2585720108391757,74.07407407407408,0.0
174,-0.7617030173112486,0.2667637508951592,74.07407407407408,0.0
175,-0.7534146882214758,0.2755337096752129,74.07407407407408,0.0
176,-0.7438497510084829,0.2852685284994338,74.07407407407408,0.0
177,-0.7327732286759678,0.29618364624125526,74.07407407407408,0.0
178,-0.720183290548162,0.30830143304415647,74.07407407407408,0.0
179,-0.7062919999824521,0.3214659518559189,74.07407407407408,0.0
180,-0.6914690306329642,0.33539205763545943,74.07407407407408,0.0
181,-0.6761546902981272,0.3497403161253782,74.07407407407408,0.0
182,-0.6607586167692441,0.3642042521608042,74.07407407407408,0.0
183,-0.6455671881865036,0.3785934239527403,74.07407407407408,0.0
184,-0.6306815052958348,0.39289520012555185,74.07407407407408,0.0
185,-0.6159988665823581,0.40730002826034273,74.07407407407408,0.0
186,-0.6012386352051703,0.4221792963716043,74.07407407407408,0.0
187,-0.5860044995613161,0.43801126832736476,74.07407407407408,0.0
188,-0.5698732098726723,0.4552585298717124,74.07407407407408,0.0
189,-0.5525040077805555,0.474209239243099,74.07407407407408,0.0
190,-0.5337679586930386,0.49480327734974844,74.07407407407408,0.0
191,-0.5138958710667659,0.5164717933843195,74.07407407407408,0.0
192,-0.49363380001182183,0.5380229316081664,74.07407407407408,0.0
193,-0.47437809100928596,0.557605873460862,74.07407407407408,0.0
194,-0.4582448895095243,0.5727782879448889,74.07407407407408,0.0
195,-0.4480221025111914,0.5806884345799572,74.07407407407408,1.0
196,-0.44696304420398575,0.5783636905214881,74.07407407407408,0.0
197,-0.45841234101842276,0.563075186563124,74.07407407407408,0.0
198,-0.485300252603202,0.5327280481840775,74.07407407407408,0.0
199,-0.5295891582731584,0.4862135509036044,74.07407407407408,0.0
200,-0.5917902235523805,0.423657682636973,74.07407407407408,0.0
201,-0.6706748659036788,0.3465124138700589,74.07407407407408,0.0
202,-0.7632761908503817,0.2574605599284736,74.07407407407408,0.0
203,-0.8652127025558722,0.16013830865836987,74.07407407407408,0.0
204,-0.9712862957240485,0.05871452200927152,74.07407407407408,0.0
205,-1.0762342284274713,-0.04260499332934059,74.07407407407408,0.0
206,-1.1754751071560827,-0.14006377513457186,74.07407407407408,0.0
207,-1.2656943753425762,-0.23074774031644468,74.07407407407408,0.0
208,-1.3451601236854402,-0.3128190107821928,74.07407407407408,0.0
209,-1.4137262325322177,-0.3855559568799879,74.07407407407408,0.0
210,-1.4725453585837205,-0.4492030474847599,74.07407407407408,0.0
211,-1.5235655935192154,-0.5046708530916392,74.07407407407408,0.0
212,-1.5689186714383467,-0.5531541382099934,74.07407407407408,0.0
213,-1.6103252727917425,-0.595748768046009,74.07407407407408,0.0
214,-1.6486416775677906,-0.6331438260573176,74.07407407407408,0.0
215,-1.683645684456973,-0.6654453566026644,74.07407407407408,0.0
216,-1.71410636830572,-0.6921573921775691,74.07407407407408,0.0
217,-1.7381114497477015,-0.7123115602763531,74.07407407407408,0.0
218,-1.7535586099988796,-0.7247063352707755,74.07407407407408,0.0
219,-1.758676460062861,-0.7281973614594284,74.07407407407408,0.0
220,-1.7524417511990829,-0.7219748429649387,74.07407407407408,0.0
221,-1.7348003666207326,-0.7057727773861884,74.07407407407408,0.0
222,-1.706663891681854,-0.6799744150336955,74.07407407407408,0.0
223,-1.6697171204795291,-0.6456031156642594,74.07407407407408,0.0
224,-1.6261141762375344,-0.6042115333519331,74.07407407407408,0.0
225,-1.5781524620160425,-0.557699658351362,74.07407407407408,0.0
226,-1.5279973349733385,-0.5081008041847376,74.07407407407408,0.0
227,-1.4774978689192235,-0.45737390056574756,74.07407407407408,0.0
228,-1.4280996920982605,-0.40723241866506804,74.07407407407408,0.0
229,-1.3808359627004263,-0.3590281883386738,74.07407407407408,0.0
230,-1.3363668366519974,-0.313695734215956,74.07407407407408,0.0
231,-1.2950394761564192,-0.2717523029695101,74.07407407407408,0.0
232,-1.2569492699753504,-0.23334198602535172,74.07407407407408,0.0
233,-1.2219930299767894,-0.19830947460229692,74.07407407407408,0.0
234,-1.1899132009927733,-0.16628924061322276,74.07407407407408,0.0
235,-1.1603374275467195,-0.13679804508228335,74.07407407407408,0.0
236,-1.1328200395857018,-0.1093213743286756,74.07407407407408,0.0
237,-1.106891186455599,-0.0833868235691883,74.07407407407408,0.0
238,-1.082115519443166,-0.05861928283271478,74.07407407407408,0.0
239,-1.0581559161728518,-0.03477424258817963,74.07407407407408,0.0
240,-1.034830159814007,-0.01174712542661413,74.07407407407408,0.0
241,-1.0121427153181166,0.01044126987900551,74.07407407407408,0.0
242,-0.990273940977366,0.03168022518161179,74.07407407407408,0.0
243,-0.969518336183753,0.05181922111583323,74.07407407407408,0.0
244,-0.9501806836472555,0.07072368158428483,74.07407407407408,0.0
245,-0.9324576661791713,0.08832594420617745,74.07407407407408,0.0
246,-0.9163432668111173,0.10466184890125782,74.07407407407408,0.0
247,-0.9015919220435737,0.11988639789712247,74.07407407407408,0.0
248,-0.8877539238183683,0.13426660463769588,74.07407407407408,0.0
249,-0.8742707292685586,0.14815463006795673,74.07407407407408,0.0
250,-0.8605956210822711,0.16194813257639767,74.07407407407408,0.0
251,-0.8462975788441789,0.17604633102522188,74.07407407407408,0.0
252,-0.8311160998704785,0.1908093018864536,74.07407407407408,0.0
253,-0.8149565998518444,0.20652513707277195,74.07407407407408,0.0
254,-0.7978397075446685,0.22338610250492658,74.07407407407408,0.0
255,-0.7798336412836071,0.241472347973881,74.07407407407408,0.0
256,-0.7610018643165006,0.26074108599016854,74.07407407407408,0.0
257,-0.7413888466828754,0.2810206764950988,74.07407407407408,0.0
258,-0.7210496046976065,0.3020119482347139,74.07407407407408,0.0
259,-0.7001099416513594,0.3233018653786173,74.07407407407408,0.0
260,-0.6788296924152474,0.34439564389654487,74.07407407407408,0.0
261,-0.6576351988583413,0.3647714327803331,74.07407407407408,0.0
262,-0.6370926785310248,0.38395648013304745,74.07407407407408,0.0
263,-0.6178116759283389,0.4016162888476331,74.07407407407408,0.0
264,-0.6002937021858386,0.41764065034982467,74.07407407407408,0.0
265,-0.5847667418558513,0.4322051408995018,74.07407407407408,0.0
266,-0.5710605377949592,0.44578592309625364,74.07407407407408,0.0
267,-0.558572927627131,0.4591107629720427,74.07407407407408,0.0
268,-0.546354693837077,0.4730398163180003,74.07407407407408,0.0
269,-0.5333081972511629,0.4883841801158586,74.07407407407408,0.0
270,-0.5184652876718457,0.5056854996388942,74.07407407407408,0.0
271,-0.5012912586019403,0.5249926341002715,74.07407407407408,0.0
272,-0.4819563462774558,0.5456783775187708,74.07407407407408,0.0
273,-0.46152177157319957,0.5663383633827587,74.07407407407408,0.0
274,-0.4419991479635777,0.5848048698050571,74.07407407407408,0.0
275,-0.4262571931617003,0.5982912565147235,74.07407407407408,0.0
276,-0.4177678639038122,0.6036607431282728,74.07407407407408,1.0
277,-0.4202069268218545,0.597789939649814,74.07407407407408,0.0
278,-0.43695214767443497,0.5779773668498012,74.07407407407408,0.0
279,-0.4705520061171388,0.5423344186843944,74.07407407407408,0.0
280,-0.5222601615916616,0.49009405606756234,74.07407407407408,0.0
281,-0.5917344565967823,0.4217823616624177,74.07407407407408,0.0
282,-0.6769761998271658,0.3392189185899039,74.07407407407408,0.0
283,-0.774537313044193,0.24534036774198725,74.07407407407408,0.0
284,-0.8799623447554179,0.14387216263634733,74.07407407407408,0.0
285,-0.9883789460094562,0.03890043385543676,74.07407407407408,0.0
286,-1.0951217040989616,-0.06558645623164477,74.07407407407408,0.0
287,-1.1962770666635856,-0.16611227281859176,74.07407407407408,0.0
288,-1.289064822027497,-0.2600178405434103,74.07407407407408,0.0
289,-1.372009479358726,-0.3456123583637908,74.07407407407408,0.0
290,-1.4448901016515336,-0.4221560224106091,74.07407407407408,0.0
291,-1.5084861574055726,-0.4896903115376797,74.07407407407408,0.0
292,-1.5641643078748535,-0.5487599513884208,74.07407407407408,0.0
293,-1.6133806533235782,-0.6000890702160975,74.07407407407408,0.0
294,-1.6571998434545177,-0.6442797280358242,74.07407407407408,0.0
295,-1.6959426910455042,-0.6815927171639988,74.07407407407408,0.0
296,-1.729053606157952,-0.7118501137275877,74.07407407407408,0.0
297,-1.7552256618393836,-0.7344710490887003,74.07407407407408,0.0
298,-1.7727483412999185,-0.7486229182676947,74.07407407407408,0.0
299,-1.7799768877476974,-0.7534464105943625,74.07407407407408,0.0
300,-1.7757884134942132,-0.7482996010634291,74.07407407407408,0.0
301,-1.7599013324250528,-0.7329663533557214,74.07407407407408,0.0
302,-1.732985073436367,-0.7077865282000767,74.07407407407408,0.0
303,-1.6965551245571808,-0.6736860220648591,74.07407407407408,0.0
304,-1.6527086769321127,-0.6321077871976787,74.07407407407408,0.0
305,-1.6037896754655645,-0.5848649527414348,74.07407407407408,0.0
306,-1.5520729326310607,-0.5339497320463867,74.07407407407408,0.0
307,-1.499531692933567,-0.4813351826407065,74.07407407407408,0.0
308,-1.447715781871838,-0.42880189611276676,74.07407407407408,0.0
309,-1.3977328008878915,-0.377811113452315,74.07407407407408,0.0
310,-1.3503019022325684,-0.3294332418439686,74.07407407407408,0.0
311,-1.3058406498013557,-0.2843296685139489,74.07407407407408,0.0
312,-1.2645481618418906,-0.2427783485311238,74.07407407407408,0.0
313,-1.2264592762918407,-0.20473055881998772,74.07407407407408,0.0
314,-1.1914623365909907,-0.1698867048390935,74.07407407407408,0.0
315,-1.1592931927116812,-0.1377814902534919,74.07407407407408,0.0
316,-1.129532883557904,-0.10787130891691832,74.07407407407408,0.0
317,-1.1016382974405634,-0.07961812592299905,74.07407407407408,0.0
318,-1.0750208568689203,-0.05256407059740087,74.07407407407408,0.0
319,-1.0491635006562734,-0.026390124332871884,74.07407407407408,0.0
320,-1.0237430258631215,-0.0009518802117034486,74.07407407407408,0.0
321,-0.9987150630292234,0.023713436381955943,74.07407407407408,0.0
322,-0.974327707510678,0.04741111757853905,74.07407407407408,0.0
323,-0.951053258795409,0.0698415761170528,74.07407407407408,0.0
324,-0.9294553603971705,0.09067302023788831,74.07407407407408,0.0
325,-0.9100296816285733,0.10962130035319681,74.07407407407408,0.0
326,-0.8930627638605423,0.12652211134761984,74.07407407407408,0.0
327,-0.8785451252907549,0.14138213911411593,74.07407407407408,0.0
328,-0.8661564575745576,0.15440018902715422,74.07407407407408,0.0
329,-0.8553204021945134,0.16595565206478993,74.07407407407408,0.0
330,-0.8453100034208504,0.17656816874186773,74.07407407407408,0.0
331,-0.8353750635709482,0.18683738890730206,74.07407407407408,0.0
332,-0.8248595353406378,0.19737417392468498,74.07407407407408,0.0
333,-0.81328112612814,0.20873416721448468,74.07407407407408,0.0
334,-0.800357320386884,0.22136197111005435,74.07407407407408,0.0
335,-0.7859807506629573,0.23555044846745332,74.07407407407408,0.0
336,-0.7701660414632436,0.2514163290377024,74.07407407407408,0.0
337,-0.7530002414433684,0.26889141016543006,74.07407407407408,0.0
338,-0.7346228878418574,0.2877285207861361,74.07407407407408,0.0
339,-0.7152416608823485,0.30752252965354065,74.07407407407408,0.0
340,-0.6951664628017645,0.3277478595928005,74.07407407407408,0.0
341,-0.6748315983340366,0.3478139271694481,74.07407407407408,0.0
342,-0.6547791243984834,0.36713780394195855,74.07407407407408,0.0
343,-0.6355931646061656,0.3852291694579409,74.07407407407408,0.0
344,-0.6177955431007323,0.40177719869532996,74.07407407407408,0.0
345,-0.6017282242091931,0.41672398200172295,74.07407407407408,0.0
346,-0.5874533377056282,0.4303062201323211,74.07407407407408,0.0
347,-0.5746981055676436,0.4430477808000668,74.07407407407408,0.0
348,-0.5628639260584779,0.45569102747877105,74.07407407407408,0.0
349,-0.5511098893586653,0.46906442552812966,74.07407407407408,0.0
350,-0.5385117657455563,0.4838965266222603,74.07407407407408,0.0
351,-0.5242860417712167,0.5005998338192905,74.07407407407408,0.0
352,-0.5080532628523214,0.5190594537430604,74.07407407407408,0.0
353,-0.4900975981720047,0.5384679388295175,74.07407407407408,0.0
354,-0.4715659429258981,0.5572469220483471,74.07407407407408,0.0
355,-0.45454720410538085,0.5730868338101045,74.07407407407408,0.0
356,-0.44198546253512594,0.5831186424256549,74.07407407407408,0.0
357,-0.4374090017092341,0.5842085513833337,74.07407407407408,1.0
358,-0.44449482963204695,0.5733419667068199,74.07407407407408,0.0
359,-0.4665264654824589,0.5480418509950383,74.07407407407408,0.0
360,-0.5058331114143707,0.50675379198062,74.07407407407408,0.0
361,-0.5633148431373367,0.4491294870958069,74.07407407407408,0.0
362,-0.6381566230645118,0.3761533599028131,74.07407407407408,0.0
363,-0.7278098472677226,0.29008224632665647,74.07407407407408,0.0
364,-0.8282724555569378,0.19420116959673497,74.07407407407408,0.0
365,-0.9346334154949476,0.09243262150031795,74.07407407407408,0.0
366,-1.0417808734891243,-0.011134879457052632,74.07407407407408,0.0
367,-1.1451276288753423,-0.11271732835892867,74.07407407407408,0.0
368,-1.2412003870144486,-0.2092237842220684,74.07407407407408,0.0
369,-1.3279738128259997,-0.298499005264245,74.07407407407408,0.0
370,-1.4048945216559925,-0.37938643312905995,74.07407407407408,0.0
371,-1.4726133356586386,-0.451614376008618,74.07407407407408,0.0
372,-1.5325070826304297,-0.5155431578139943,74.07407407407408,0.0
373,-1.5861110386635668,-0.5718366840533674,74.07407407407408,0.0
374,-1.6345938646040432,-0.6211330314893982,74.07407407407408,0.0
375,-1.6783885390178668,-0.6637834449771458,74.07407407407408,0.0
376,-1.717050825804082,-0.6997094181561323,74.07407407407408,0.0
377,-1.7493614291496264,-0.7283984087895296,74.07407407407408,0.0
378,-1.7736318494505812,-0.7490271273606556,74.07407407407408,0.0
379,-1.7881293353134664,-0.7606743628758794,74.07407407407408,0.0
380,-1.791512949837654,-0.7625686383439572,74.07407407407408,0.0
381,-1.7831761090796492,-0.7543125957234359,74.07407407407408,0.0
382,-1.7634202717600493,-0.7360356463502619,74.07407407407408,0.0
383,-1.7334315808278056,-0.7084458771858879,74.07407407407408,0.0
384,-1.695083150841162,-0.6727762694057733,74.07407407407408,0.0
385,-1.650625299016287,-0.6306431498221211,74.07407407407408,0.0
386,-1.6023440264957025,-0.5838514647934709,74.07407407407408,0.0
387,-1.552262660740551,-0.5341888698320367,74.07407407407408,0.0
388,-1.5019392271776224,-0.4832481380150907,74.07407407407408,0.0
389,-1.4523833340156083,-0.4323066966986843,74.07407407407408,0.0
390,-1.4040898394075498,-0.3822765579782701,74.07407407407408,0.0
391,-1.3571657613087782,-0.33372157396948854,74.07407407407408,0.0
392,-1.3115114087275375,-0.28692559199363277,74.07407407407408,0.0
393,-1.267006953190161,-0.24198735994195733,74.07407407407408,0.0
394,-1.2236553558315444,-0.19891697260909166,74.07407407407408,0.0
395,-1.1816459949156897,-0.15771356976465906,74.07407407407408,0.0
396,-1.1413296174449312,-0.11841280252042297,74.07407407407408,0.0
397,-1.1031257742893261,-0.08110243090153688,74.07407407407408,0.0
398,-1.067406168058303,-0.04591254153269253,74.07407407407408,0.0
399,-1.0344020329517316,-0.012991381254015194,74.07407407407408,0.0
400,-1.004169534167384,0.017521869059973938,74.07407407407408,0.0
401,-0.976620859952634,0.045519103540368394,74.07407407407408,0.0
402,-0.951601009958829,0.07093649294460416,74.07407407407408,0.0
403,-0.9289720540053222,0.09375965454990207,74.07407407407408,0.0
404,-0.9086651623556653,0.11402414864595528,74.07407407407408,0.0
405,-0.8906769419594825,0.1318149564261941,74.07407407407408,0.0
406,-0.875013573979966,0.14726710455295955,74.07407407407408,0.0
407,-0.8616111560452175,0.16056746544583717,74.07407407407408,0.0
408,-0.8502713466620632,0.17195616729401267,74.07407407407408,0.0
409,-0.8406432359658429,0.18172568367365963,74.07407407407408,0.0
410,-0.8322603489460972,0.1902164683153898,74.07407407407408,0.0
411,-0.8246168403173341,0.19780924720626566,74.07407407407408,0.0
412,-0.817250259148883,0.204914862373981,74.07407407407408,0.0
413,-0.8097962719696327,0.21196227976066712,74.07407407407408,0.0
414,-0.8019938455189649,0.21938410533014013,74.07407407407408,0.0
415,-0.7936423391656477,0.22759747875386044,74.07407407407408,0.0
416,-0.784535517361343,0.23697767701779687,74.07407407407408,0.0
417,-0.7744113052160574,0.24782310712486477,74.07407407407408,0.0
418,-0.762952625528624,0.2603138013821158,74.07407407407408,0.0
419,-0.7498532779669649,0.27447023859254316,74.07407407407408,0.0
420,-0.7349318400646812,0.29012362207477993,74.07407407407408,0.0
421,-0.7182503380181892,0.30691065933665757,74.07407407407408,0.0
422,-0.7001859950916859,0.32430386167247344,74.07407407407408,0.0
423,-0.6814178253341117,0.3416819842761067,74.07407407407408,0.0
424,-0.6628182230721934,0.35843546221980394,74.07407407407408,0.0
425,-0.6452701612274934,0.37409084029102785,74.07407407407408,0.0
426,-0.6294526615370374,0.38842920446579865,74.07407407407408,0.0
427,-0.615647118886397,0.401569324902529,74.07407407407408,0.0
428,-0.603615993014494,0.4139885052841852,74.07407407407408,0.0
429,-0.5925948049725247,0.4264633870474575,74.07407407407408,0.0
430,-0.5814182993585532,0.43992785566124043,74.07407407407408,0.0
431,-0.5687728958440108,0.45526291139855096,74.07407407407408,0.0
432,-0.5535351596043426,0.47305014377079746,74.07407407407408,0.0
433,-0.5351294495503001,0.49333243485841966,74.07407407407408,0.0
434,-0.513827038991337,0.5154296577522622,74.07407407407408,0.0
435,-0.49091826776982433,0.5378519153636182,74.07407407407408,0.0
436,-0.4687147237370404,0.5583387005815367,74.07407407407408,0.0
437,-0.45037058986914097,0.5740315673361978,74.07407407407408,0.0
438,-0.4395425333249904,0.5817642491531266,74.07407407407408,1.0
439,-0.43993241851323833,0.5784321241142456,74.07407407407408,0.0
440,-0.4547771294955713,0.5613868231573214,74.07407407407408,0.0
441,-0.48636452027122146,0.5287949327988581,74.07407407407408,0.0
442,-0.5356598856706164,0.4799037885186343,74.07407407407408,0.0
443,-0.6021170469651089,0.41517183427946436,74.07407407407408,0.0
444,-0.683718190116336,0.33624337130883514,74.07407407407408,0.0
445,-0.777239915780485,0.24577349934282094,74.07407407407408,0.0
446,-0.8786912308843621,0.14713362208825276,74.07407407407408,0.0
447,-0.9838297168800373,0.04404631222865171,74.07407407407408,0.0
448,-1.0886498289367592,-0.05979272635330274,74.07407407407408,0.0
449,-1.1897564875065259,-0.16104960499520105,74.07407407407408,0.0
450,-1.2845785941607415,-0.2569994587185538,74.07407407407408,0.0
451,-1.371423106681682,-0.3456593070728466,74.07407407407408,0.0
452,-1.449403662164196,-0.42580081047457896,74.07407407407408,0.0
453,-1.518289415575213,-0.49685697057704303,74.07407407407408,0.0
454,-1.5783120769737715,-0.5587524781099582,74.07407407407408,0.0
455,-1.6299538469605512,-0.6116969328399834,74.07407407407408,0.0
456,-1.6737304901768195,-0.65598268557323,74.07407407407408,0.0
457,-1.709989804350434,-0.6918246633179947,74.07407407407408,0.0
458,-1.738760877342071,-0.7192691106321101,74.07407407407408,0.0
459,-1.7596982475801717,-0.7381833468817464,74.07407407407408,0.0
460,-1.772153106572899,-0.7483218014780457,74.07407407407408,0.0
461,-1.7753694657594927,-0.7494477768764387,74.07407407407408,0.0
462,-1.7687601525495138,-0.7414788225911341,74.07407407407408,0.0
463,-1.752185370213113,-0.724618963507392,74.07407407407408,0.0
464,-1.7261497120977396,-0.6994446392827085,74.07407407407408,0.0
465,-1.6918545829525646,-0.666922474631289,74.07407407407408,0.0
466,-1.6510841122656388,-0.6283533190547734,74.07407407407408,0.0
467,-1.605950563303447,-0.5852543488798527,74.07407407407408,0.0
468,-1.5585658077339146,-0.539205026374672,74.07407407407408,0.0
469,-1.5107268127838502,-0.4916898443338657,74.07407407407408,0.0
470,-1.4636983440718634,-0.44396943301352876,74.07407407407408,0.0
471,-1.4181455738589424,-0.39700252702799393,74.07407407407408,0.0
472,-1.37422182129361,-0.35142736751625403,74.07407407407408,0.0
473,-1.3317679733737933,-0.3075964561341672,74.07407407407408,0.0
474,-1.2905477945723687,-0.2656472331870123,74.07407407407408,0.0
475,-1.2504393379501237,-0.22558598947291986,74.07407407407408,0.0
476,-1.2115275031786696,-0.1873638541614982,74.07407407407408,0.0
477,-1.1740848121634322,-0.15093062854791872,74.07407407407408,0.0
478,-1.1384687966938798,-0.11626167904724619,74.07407407407408,0.0
479,-1.1049896747251233,-0.08336178179184114,74.07407407407408,0.0
480,-1.0738046108229327,-0.05225515703735925,74.07407407407408,0.0
481,-1.0448774244961678,-0.022971852308767582,74.07407407407408,0.0
482,-1.0180136219778781,0.004462301138727892,74.07407407407408,0.0
483,-0.9929508756906142,0.030029892741263442,74.07407407407408,0.0
484,-0.9694650052509929,0.053722716449505936,74.07407407407408,0.0
485,-0.9474482100865438,0.0755440677427788,74.07407407407408,0.0
486,-0.9269301694683547,0.09551698646117926,74.07407407407408,0.0
487,-0.9080365086712864,0.11369977222482033,74.07407407407408,0.0
488,-0.8909020093439388,0.13020580813094734,74.07407407407408,0.0
489,-0.8755692471664681,0.14522109673448966,74.07407407407408,0.0
490,-0.8619051139571267,0.15901152556028608,74.07407407407408,0.0
491,-0.8495614346047166,0.17191351076804376,74.07407407407408,0.0
492,-0.837995711475046,0.18430601472854757,74.07407407407408,0.0
493,-0.826554917632356,0.1965677007626859,74.07407407407408,0.0
494,-0.8146082905345833,0.20902827975411578,74.07407407407408,0.0
495,-0.801696017389281,0.22192601898762823,74.07407407407408,0.0
496,-0.7876467996902153,0.23538266759762494,74.07407407407408,0.0
497,-0.7726183337255809,0.24940259812706872,74.07407407407408,0.0
498,-0.7570359881565372,0.26389598055616026,74.07407407407408,0.0
499,-0.7414414710215658,0.2787185360144033,74.07407407407408,0.0
500,-0.7263005113992901,0.2937154220409634,74.07407407407408,0.0
501,-0.7118391603913319,0.30875602581957123,74.07407407407408,0.0
502,-0.6979710734383313,0.3237504116835443,74.07407407407408,0.0
503,-0.6843443737291324,0.33864564816403425,74.07407407407408,0.0
504,-0.6704902173156758,0.3534085441509535,74.07407407407408,0.0
505,-0.6560157222085642,0.36800722627314775,74.07407407407408,0.0
506,-0.6407674653266978,0.38240490491228696,74.07407407407408,0.0
507,-0.624903449488775,0.39657418895991614,74.07407407407408,0.0
508,-0.6088450606489624,0.4105306553316797,74.07407407407408,0.0
509,-0.5931232417808007,0.4243731842887436,74.07407407407408,0.0
510,-0.578171249637183,0.4383099151339185,74.07407407407408,0.0
511,-0.56413899393317,0.4526462733911934,74.07407407407408,0.0
512,-0.550804311943674,0.4677174356437607,74.07407407407408,0.0
513,-0.5376331150791562,0.4837614038675228,74.07407407407408,0.0
514,-0.5239981612651285,0.5007475104723378,74.07407407407408,0.0
515,-0.5095164734354463,0.5181936705642904,74.07407407407408,0.0
516,-0.494422444865416,0.535018399200367,74.07407407407408,0.0
517,-0.4798701002293622,0.5494758423170905,74.07407407407408,0.0
518,-0.4680613332937716,0.5592115765161102,74.07407407407408,0.0
519,-0.46212862103246516,0.5614547686943578,74.07407407407408,1.0
520,-0.46575609664058837,0.5533328350092892,74.07389970210816,0.0
521,-0.48259095623305165,0.5322648008530642,74.07337848580684,0.0
522,-0.5155608452105797,0.4963666962609514,74.072513281753,0.0
523,-0.5662520365911536,0.4447928386969181,74.07130695590114,0.0
524,-0.6345015880233259,0.37794404175509666,74.06976238331289,0.0
525,-0.7183096630052622,0.29749685681813043,74.06788244789412,0.0
526,-0.814097692135694,0.20624209821946482,74.06567004213368,0.0
527,-0.9172498877881264,0.1077584659976189,74.06312806684366,0.0
528,-1.022809209524522,0.005979524742225961,74.06025943090164,0.0
529,-1.1261736508724316,-0.09526762690196894,74.05706705099443,0.0
530,-1.2236561641582908,-0.1926701609731422,74.0535538513637,0.0
531,-1.312817875444836,-0.28371533528831283,74.04972276355343,0.0
532,-1.3925406056775391,-0.36681264708248107,74.04557672615906,0.0
533,-1.4628564692545016,-0.4412446995136522,74.04111868457873,0.0
534,-1.524592057183576,-0.5069731039917086,74.03635159076624,0.0
535,-1.5789102550438003,-0.5643526729627723,74.03127840298606,0.0
536,-1.6268442740437798,-0.6138219487037927,74.02590208557014,0.0
537,-1.6689166032430702,-0.6556383334687522,74.02022560867698,0.0
538,-1.7049201318645777,-0.68971233588372,74.01425194805243,0.0
539,-1.7339086115477695,-0.7155711292633852,74.00798408479272,0.0
540,-1.754399686995906,-0.7324521842185949,74.00142500510951,0.0
541,-1.7647427206668855,-0.7394995487684991,73.99457770009701,0.0
542,-1.7635597269303802,-0.7360143076426975,73.98744516550127,0.0
543,-1.7501472673946854,-0.7217010174484201,73.98003040149158,0.0
544,-1.7247395845930997,-0.6968549946701865,73.97233641243407,0.0
545,-1.6885748823564068,-0.662449825157404,73.96436620666744,0.0
546,-1.6437619775567582,-0.6201065221768536,73.95612279628104,0.0
547,-1.5929937830588303,-0.5719501707459449,73.94760919689499,0.0
548,-1.539182282036465,-0.5203814154172819,73.93882842744274,0.0
549,-1.4850924382584532,-0.4678047141612557,73.92978350995578,0.0
550,-1.4330359620985302,-0.4163607651077945,73.92047746935074,0.0
551,-1.3846614056542494,-0.3677068879057736,73.91091333321874,0.0
552,-1.3408546811446576,-0.32287812447260467,73.90109413161703,0.0
553,-1.3017482570348207,-0.2822462157555092,73.8910228968631,0.0
554,-1.26682701134757,-0.24557657285106166,73.88070266333109,0.0
555,-1.235110659066944,-0.2121678100652916,73.87013646725053,0.0
556,-1.2053847024246078,-0.18104661474235695,73.85932734650756,0.0
557,-1.1764449648560136,-0.1511841083816084,73.8482783404485,0.0
558,-1.1473181386905456,-0.12169890647586862,73.83699248968585,0.0
559,-1.1174250739466776,-0.09201645129618734,73.82547283590682,0.0
560,-1.0866647455062248,-0.06196279570070809,73.81372242168405,0.0
561,-1.0554120707143537,-0.03178227992672478,73.80174429028914,0.0
562,-1.0244376763559282,-0.002080656852378182,73.78954148550834,0.0
563,-0.994768479634671,0.026293585538241127,73.777117051461,0.0
564,-0.9675128762573657,0.05240818089557572,73.76447403242013,0.0
565,-0.9436747024794117,0.07541951273356076,73.75161547263592,0.0
566,-0.923979116869502,0.09473048734404832,73.73854441616136,0.0
567,-0.9087333400433592,0.11010873160844986,73.72526390668067,0.0
568,-0.8977447623195239,0.12174658636029054,73.71177698734003,0.0
569,-0.8903148264761493,0.13025371524858664,73.69808670058102,0.0
570,-0.8853168429065749,0.13658390561609632,73.68419608797642,0.0
571,-0.8813504390221418,0.14190815139955845,73.67010819006875,0.0
572,-0.8769484026896922,0.14745465780801187,73.65582604621113,0.0
573,-0.8707978747052192,0.1543415137551827,73.64135269441091,0.0
574,-0.8619318835174924,0.16342852633137603,73.62669117117568,0.0
575,-0.8498530524617363,0.17521098930102696,73.6118445113619,0.0
576,-0.8345693560717359,0.18977070858880943,73.59681574802613,0.0
577,-0.8165460593301537,0.2067898665374428,73.58160791227878,0.0
578,-0.7965976013233536,0.22562305577208763,73.5662240331404,0.0
579,-0.7757493044945709,0.24541378216242282,73.55066713740058,0.0
580,-0.7550912203755449,0.26523528303970073,73.53494024947938,0.0
581,-0.7356340507352053,0.2842324713761914,73.5190463912914,0.0
582,-0.7181711590144493,0.3017425284039312,73.50298858211225,0.0
583,-0.7031564206526755,0.31737600812824374,73.48676983844784,0.0
584,-0.6906203971811303,0.33104773290588524,73.47039317390592,0.0
585,-0.68015553312448,0.3429561912777182,73.45386159907052,0.0
586,-0.6709939047746659,0.353519979516967,73.4371781213786,0.0
587,-0.6621758534917753,0.3632879918959928,73.42034574499962,0.0
588,-0.6527733356897536,0.3728444436520574,73.40336747071736,0.0
589,-0.6421044875585161,0.3827288760491398,73.38624629581443,0.0
590,-0.6298711338851839,0.39338478503682084,73.36898521395939,0.0
591,-0.6161742844104574,0.40513985282862913,73.35158721509623,0.0
592,-0.601406325196135,0.4182089177513942,73.33405528533663,0.0
593,-0.5860653912596394,0.4327015826759085,73.31639240685448,0.0
594,-0.5705686418269116,0.4486131779903903,73.29860155778317,0.0
595,-0.5551446649825232,0.4657825353435197,73.28068571211531,0.0
596,-0.539859626831687,0.4838121687086111,73.26264783960495,0.0
597,-0.5247860052325811,0.5019629642104428,73.2444909056723,0.0
598,-0.5102718592776374,0.5190515037587966,73.22621787131106,0.0
599,-0.4972282751492275,0.5333883721239364,73.20783169299814,0.0
600,-0.487334930290105,0.5427960238643454,73.18933532260596,0.0
601,-0.4830744596982369,0.5447333064892943,73.17073170731707,1.0
602,-0.4875438786359096,0.5365320649363959,73.15015013159044,0.0
603,-0.504046872439213,0.5157239867119613,73.12578384372128,0.0
604,-0.5355304228674553,0.48040964308368694,73.09773242619285,0.0
605,-0.5839777631649616,0.42960359525207736,73.06609630623771,0.0
606,-0.6498941250327583,0.3634850440893717,73.03097665834153,0.0
607,-0.7320142337955367,0.2834953104889256,72.99247530896561,0.0
608,-0.8273199124158293,0.19224998830483575,72.95069464360965,0.0
609,-0.9313894082988017,0.09326962079769069,72.905737516326,0.0
610,-1.0390220434296529,-0.009429783823991816,72.85770716178644,0.0
611,-1.1450126991055292,-0.11181495759406695,72.80670710999274,0.0
612,-1.2449104908004116,-0.21029545644620995,72.75284110371241,0.0
613,-1.3355976304003199,-0.3020821372645834,72.69621301871146,0.0
614,-1.4155681619020124,-0.38538223014447215,72.6369267868465,0.0
615,-1.484859046822679,-0.45940434421861065,72.57508632207012,0.0
616,-1.5446673277960337,-0.5241871694435105,72.51079544939361,0.0
617,-1.5967568928692768,-0.5803019245221823,72.4441578368436,0.0
618,-1.6428030182996527,-0.628502413528291,72.3752769304407,0.0
619,-1.6838347150349513,-0.6694027046321522,72.30425589222001,0.0
620,-1.7199098639261987,-0.7032501639364477,72.23119754130683,0.0
621,-1.7500970816638017,-0.7298346423463796,72.15620429805273,0.0
622,-1.7727527038269897,-0.7485402899834396,72.07937813123151,0.0
623,-1.7859960359310414,-0.7585135317676575,72.00082050828712,0.0
624,-1.7882319263208397,-0.7588970757669162,71.92063234862081,0.0
625,-1.7785681098969892,-0.7490703812776873,71.83891397989818,0.0
626,-1.7570248741648289,-0.7288426114276808,71.75576509735231,0.0
627,-1.7245132935937797,-0.6985615598073889,71.6712847260541,0.0
628,-1.682632388950852,-0.6591254834182885,71.58557118611651,0.0
629,-1.6333781835709398,-0.6119075567874592,71.49872206079527,0.0
630,-1.578859189680918,-0.558619338075523,71.41083416744534,0.0
631,-1.5210823411735668,-0.5011472537395554,71.32200353128853,0.0
632,-1.461830707826053,-0.44139455169861486,71.23232536194533,0.0
633,-1.4026193216367746,-0.38115263965695845,71.1418940326809,0.0
634,-1.3446994983405864,-0.32201365987810077,71.05080306231326,0.0
635,-1.2890852152192127,-0.2653241158155154,70.95914509972972,0.0
636,-1.2365882776261015,-0.21217018498819368,70.8670119109557,0.0
637,-1.1878594390847046,-0.16338068402943517,70.77449436871929,0.0
638,-1.1434316627239967,-0.11953391736789035,70.68168244445359,0.0
639,-1.1037509883827548,-0.08095916227698091,70.58866520267813,0.0
640,-1.0691716589784581,-0.04773075477864938,70.4955307977002,0.0
641,-1.0398982838146853,-0.019660456900194606,70.4023664725772,0.0
642,-1.0158821939951184,0.0037004169048022173,70.30925856028048,0.0
643,-0.9967110322849999,0.023035863218711566,70.21629248700194,0.0
644,-0.9815512789118676,0.03920717412722735,70.12355277754521,0.0
645,-0.9691978106037947,0.053160323630262685,70.03112306274345,0.0
646,-0.958250533161189,0.06580789679450763,69.93908608884767,0.0
647,-0.9473879096408065,0.07790497360062804,69.84752372882951,0.0
648,-0.9356619852536091,0.08994449503265148,69.75651699554481,0.0
649,-0.9227198386079614,0.10209698715260968,69.66614605670513,0.0
650,-0.9088729536620026,0.11421146512700689,69.57649025160599,0.0
651,-0.8949842782482402,0.1258806259126945,69.48762810956325,0.0
652,-0.8822041691932901,0.1365577588373978,69.39963737000966,0.0
653,-0.8716364189467266,0.14569966481343127,69.31259500420711,0.0
654,-0.8640347824728823,0.15290314956266904,69.22657723853122,0.0
655,-0.8596136091394787,0.1580043412701656,69.14165957928789,0.0
656,-0.8580134941730077,0.16111970176170623,69.05791683902376,0.0
657,-0.8584133862725571,0.16262241882716752,68.97542316429487,0.0
658,-0.859742333257566,0.16306379876348495,68.8942520648607,0.0
659,-0.8609264309206645,0.16306212120709432,68.81447644427348,0.0
660,-0.8611089090274127,0.16318801512267736,68.73616863183565,0.0
661,-0.859796783669301,0.1638744056135376,68.65940041590082,0.0
662,-0.856908596025567,0.16537110952791478,68.58424307849727,0.0
663,-0.8527197839328708,0.16775155867023556,68.5107674312558,0.0
664,-0.8477233920026547,0.17096524936908747,68.43904385262692,0.0
665,-0.8424425796659442,0.17491786145978327,68.36914232637575,0.0
666,-0.837244059823908,0.17955438912524113,68.30113248134639,0.0
667,-0.8322029217683,0.18492059142046793,68.23508363249114,0.0
668,-0.8270561094250368,0.19118446671015968,68.17106482316316,0.0
669,-0.821256856422262,0.19861056806272923,68.10914486867497,0.0
670,-0.8141140452678844,0.20749295790202332,68.04939240112927,0.0
671,-0.8049783111797583,0.2180641846139864,67.99187591553164,0.0
672,-0.793426397132783,0.23040496881867323,67.93666381719954,0.0
673,-0.7793972749477949,0.24438049230212486,67.88382447048537,0.0
674,-0.7632455888625954,0.2596239279645558,67.83342624883569,0.0
675,-0.7456972086734915,0.27557727573843327,67.7855375862135,0.0
676,-0.7277145296251074,0.2915860213200072,67.74022702991391,0.0
677,-0.7103005068925232,0.307030612158754,67.69756329480923,0.0
678,-0.6942846680569568,0.32146724725012765,67.65761531906334,0.0
679,-0.6801380541363238,0.33474537992169484,67.62045232136052,0.0
680,-0.6678574931018708,0.3470709305747959,67.58614385969908,0.0
681,-0.6569460111092807,0.35899249043545844,67.55475989180478,0.0
682,-0.6464994141212309,0.3713014825609675,67.52637083722539,0.0
683,-0.6353919785709884,0.3848540082249313,67.50104764117272,0.0
684,-0.6225382641345125,0.4003389661474136,67.47886184018463,0.0
685,-0.6071940615961309,0.4180308243398344,67.45988562968566,0.0
686,-0.5892483682833708,0.4375733040078264,67.4441919335317,0.0
687,-0.5694519427410408,0.45784016907356634,67.4318544756303,0.0
688,-0.549529328145086,0.47691051160116216,67.42294785373606,0.0
689,-0.5321330707584639,0.49217912107764855,67.41754761552728,0.0
690,-0.520622001105319,0.5006000566740179,67.41573033707866,1.0
691,-0.5186770947708265,0.49903710077281443,67.42029013045438,0.0
692,-0.5298023173686549,0.4846728657420618,67.43381384309973,0.0
693,-0.5567863107080352,0.4554134613018948,67.45607305435003,0.0
694,-0.6012172726007574,0.4102213790377113,67.48684563587416,0.0
695,-0.6631437561114923,0.34931738674756463,67.52591517193693,0.0
696,-0.7409563316035109,0.27421214060197985,67.57307040469298,0.0
697,-0.8315294023217792,0.1875568056563743,67.62810470246512,0.0
698,-0.930613209414163,0.09283403834742385,67.6908155491393,0.0
699,-1.033412836411313,-0.006060077834042166,67.76100405297285,0.0
700,-1.1352473312648277,-0.10527224831418153,67.83847447326637,0.0
701,-1.2321608492725906,-0.2014085860224752,67.92303376349054,0.0
702,-1.321366392298924,-0.29184228087628705,68.01449112959234,0.0
703,-1.4014400185679627,-0.37486515782673,68.11265760232877,0.0
704,-1.4722393930057318,-0.4496674345109001,68.21734562259219,0.0
705,-1.5345802206361163,-0.5161641366018641,68.32836863880247,0.0
706,-1.5897531834619083,-0.5747162025911674,68.44554071554379,0.0
707,-1.638993552968051,-0.625813059743227,68.56867615272473,0.0
708,-1.683022447804352,-0.6697875408613413,68.69758911463434,0.0
709,-1.7217623585499686,-0.7066228801922497,68.83209326835859,0.0
710,-1.7542908136327335,-0.7358880240455601,68.97200143110963,0.0
711,-1.7790391936117118,-0.7568072064794898,69.1171252261063,0.0
712,-1.794180553063701,-0.7684396824993565,69.2672747467268,0.0
713,-1.7980999014940642,-0.7699224295285076,69.42225822873714,0.0
714,-1.7898212389153023,-0.760717383737743,69.58188173047768,0.0
715,-1.7692851925098287,-0.74080721210153,69.74594882097,0.0
716,-1.7374207365218644,-0.7107982372812167,69.91426027598337,0.0
717,-1.6960142459212468,-0.6719116748972985,70.08661378217728,0.0
718,-1.6474284080997654,-0.6258690667723039,70.26280364951302,0.0
719,-1.5942498236593625,-0.5746990157645784,70.44262053220271,0.0
720,-1.5389456050348427,-0.5205057910468737,70.62585115853992,0.0
721,-1.4835918226630758,-0.4652440752563606,70.81227807003002,0.0
722,-1.4297094041013527,-0.4105384692817142,71.00167937031377,0.0
723,-1.3782149732846636,-0.3575737104649881,71.19382848445014,0.0
724,-1.3294718105714975,-0.3070653738333462,71.388493929198,0.0
725,-1.28341298338851,-0.2593047926014708,71.58543909500801,0.0
726,-1.2397043527816956,-0.2142591507462473,71.7844220405067,0.0
727,-1.197916383043334,-0.17170017992928835,71.98519530032411,0.0
728,-1.15767696603192,-0.1313333730082057,72.18750570718389,0.0
729,-1.1187816465063496,-0.09290363920867573,72.39109422924003,0.0
730,-1.0812442244570577,-0.05626144789471721,72.5956958237064,0.0
731,-1.0452815832770983,-0.02138371184735402,72.80103930788572,0.0
732,-1.0112410490344497,0.01164627790744066,73.00684724875899,0.0
733,-0.9794926084978178,0.04268764311522166,73.2128358723486,0.0
734,-0.9503166905464916,0.07160286953077441,73.41871499411366,0.0
735,-0.9238177197674332,0.09831413985243131,73.62418797167713,0.0
736,-0.8998847269625396,0.12284180815103968,73.8289516812176,0.0
737,-0.8782063286703748,0.14531786937436472,74.03269651888503,0.0
738,-0.8583327143444998,0.16597423052608773,74.23510642861801,0.0
739,-0.8397656737081503,0.18511163834201003,74.43585895774885,0.0
740,-0.8220517064259388,0.2030588684701132,74.63462534178157,0.0
741,-0.8048540142803606,0.2201325426055416,74.83107061971629,0.0
742,-0.7879862810616995,0.23660586516995735,75.02485378126826,0.0
743,-0.771402697212785,0.25269057044157084,75.21562794729421,0.0
744,-0.7551516626799976,0.2685318261349869,75.4030405846867,0.0
745,-0.7393114958054191,0.284212191278643,75.58673375693246,0.0
746,-0.7239319337514795,0.29975905129757885,75.7663444114494,0.0
747,-0.7090027870261483,0.3151506478580431,75.94150470471993,0.0
748,-0.6944605671515389,0.33031848988793344,76.11184236612418,0.0
749,-0.6802284900874424,0.3451475198285413,76.2769811012447,0.0
750,-0.6662712357245799,0.35947853989887557,76.4365410352655,0.0
751,-0.6526394956849195,0.37311882310689753,76.5901391969197,0.0
752,-0.6394833279733466,0.38586581222638705,76.73739004325473,0.0
753,-0.6270253475122031,0.3975453716953457,76.87790602527942,0.0
754,-0.6154992954814008,0.40806098095020843,77.01129819433508,0.0
755,-0.6050709700913889,0.4174448592819251,77.13717684879364,0.0
756,-0.5957636125142851,0.4258978007449233,77.2551522204287,0.0
757,-0.5874083732625501,0.4338028103792303,77.36483519953445,0.0
758,-0.5796345084044785,0.4416993412040159,77.46583809758107,0.0
759,-0.5719065576381818,0.4502102571294992,77.55777544589596,0.0
760,-0.5636095246972149,0.4599220913261057,77.64026482855171,0.0
761,-0.5541786802640849,0.4712295331777498,77.71292774732294,0.0
762,-0.5432662292475848,0.48416556165209423,77.77539051625072,0.0
763,-0.5309297010869013,0.49824705180317697,77.82728518302595,0.0
764,-0.5178151136804532,0.512369745767747,77.86825047407648,0.0
765,-0.5052943891592998,0.5247843250235794,77.89793275991822,0.0
766,-0.49550784866915454,0.5331760159044086,77.91598703701402,0.0
767,-0.4912665524715248,0.5348542221222972,77.92207792207792,1.0
768,-0.4957902052819355,0.5270383370519367,77.91751333539514,0.0
769,-0.5122926635101573,0.5072049381888737,77.90396052604024,0.0
770,-0.5434708571495427,0.4734447082723139,77.88163536752108,0.0
771,-0.5909918670655548,0.4247691900094619,77.85075927429668,0.0
772,-0.6550931743042865,0.36131095651775713,77.81155871812642,0.0
773,-0.7344014830469262,0.2843765506536625,77.7642647489217,0.0
774,-0.8260326329701396,0.1963371785199174,77.70911252162517,0.0
775,-0.9259677619208223,0.10037248939967466,77.64634083054875,0.0
776,-1.0296293522683408,0.00011111074398822973,77.57619165250442,0.0
777,-1.132529280779344,-0.10076868238420661,77.49890969996103,0.0
778,-1.2308465047382733,-0.19890843762372007,77.41474198535961,0.0
779,-1.3218168670354413,-0.29154798281703265,77.32393739761554,0.0
780,-1.4038701301849914,-0.3766731332954081,77.22674629173447,0.0
781,-1.4765120145545902,-0.4530219949313682,77.12342009236582,0.0
782,-1.5400060151824433,-0.5199690416441706,77.01421091201708,0.0
783,-1.594950737723883,-0.577329835225606,76.8993711845531,0.0
784,-1.6418668715830071,-0.6251416452467004,76.77915331450848,0.0
785,-1.6808993030439197,-0.6634741142640512,76.65380934264728,0.0
786,-1.7117039970568564,-0.6923106760708837,76.52359062811462,0.0
787,-1.7335340427138548,-0.7115197808581251,76.38874754743863,0.0
788,-1.745481349524709,-0.7209109580261297,76.24952921055932,0.0
789,-1.7467894084873703,-0.7203503424226289,76.10618319398301,0.0
790,-1.7371412100232835,-0.7098980808242658,75.95895529108904,0.0
791,-1.716845116243852,-0.6899281255681937,75.80808927954612,0.0
792,-1.6868793006064233,-0.661198632847924,75.65382670573389,0.0
793,-1.648797189425685,-0.6248555305920258,75.4964066860059,0.0
794,-1.6045299695085717,-0.5823685599516966,75.33606572457772,0.0
795,-1.5561414294948601,-0.5354139696219269,75.17303754777541,0.0
796,-1.5055937836528284,-0.48572787217966185,75.00755295433608,0.0
797,-1.4545718505804486,-0.4349575942455496,74.83983968141384,0.0
798,-1.4043903313927832,-0.38453551545328657,74.67012228591078,0.0
799,-1.3559816465820398,-0.33559264161354646,74.49862204072252,0.0
800,-1.3099395695730756,-0.28891991400575834,74.32555684546426,0.0
801,-1.266585367245902,-0.24497632892066845,74.15114115122097,0.0
802,-1.226030433841735,-0.2039359449349086,73.97558589884979,0.0
803,-1.188226293346359,-0.16576148333007382,73.79909847034959,0.0
804,-1.1530087195278345,-0.13029038929503986,73.62188265280254,0.0
805,-1.1201489821930384,-0.0973194139995996,73.4441386143878,0.0
806,-1.089419585839837,-0.06667547196038577,73.2660628919636,0.0
807,-1.0606683910705816,-0.038263394181172,73.0878483897149,0.0
808,-1.0338813661295752,-0.012085081256314745,72.9096843883659,0.0
809,-1.0092083358184207,0.011770724081467232,72.73175656446294,0.0
810,-0.9869329823522762,0.0331637347400337,72.55424701924012,0.0
811,-0.9673871943936786,0.051953534929652434,72.37733431659044,0.0
812,-0.9508330229278608,0.06805502028825527,72.20119352967608,0.0
813,-0.9373515311373215,0.08148506519312901,72.02599629572572,0.0
814,-0.9267778215745682,0.09238976947252911,71.85191087858078,0.0
815,-0.9187047455520907,0.10104627315908915,71.67910223856902,0.0
816,-0.9125522450424864,0.10783912419866985,71.50773210930154,0.0
817,-0.9076767915254945,0.11321697581175733,71.33795908100727,0.0
818,-0.9034849242872582,0.11763947821288559,71.16993869003831,0.0
819,-0.8995185592089375,0.12152565899042986,71.00382351420022,0.0
820,-0.8954935313165505,0.12521371997150124,70.83976327358141,0.0
821,-0.8912901380713658,0.1289386717240629,70.67790493657749,0.0
822,-0.8869090914058247,0.13282974467867326,70.51839283082829,0.0
823,-0.882413915238562,0.13692531437158242,70.3613687588073,0.0
824,-0.8778796798733712,0.14120011675475513,70.20697211782601,0.0
825,-0.8733596370224962,0.1455982406320541,70.05534002423822,0.0
826,-0.8688704919031377,0.1500656580929376,69.90660744165255,0.0
827,-0.8643892774258789,0.15457740229563857,69.76090731298476,0.0
828,-0.8598533706893838,0.15915630884247386,69.61837069620428,0.0
829,-0.8551593924746171,0.163881981612347,69.47912690365368,0.0
830,-0.8501627363294465,0.1688900222537062,69.34330364484266,0.0
831,-0.8446830208657509,0.17436249126111206,69.21102717264236,0.0
832,-0.838519590566461,0.18051111331441783,69.08242243282962,0.0
833,-0.8314760954573477,0.18755503049976222,68.95761321695494,0.0
834,-0.8233874385026579,0.19569508620544024,68.83672231853187,0.0
835,-0.814139903468547,0.20508682714695242,68.71987169257062,0.0
836,-0.8036782023239859,0.21581476223421117,68.6071826185029,0.0
837,-0.7920002980340068,0.22787097812276544,68.4987758665707,0.0
838,-0.7791480735570276,0.2411419086596862,68.39477186777664,0.0
839,-0.7652046395101497,0.2554075999080747,68.29529088752051,0.0
840,-0.750304933902486,0.27035768985386494,68.20045320307194,0.0
841,-0.7346564950709294,0.28562691265384166,68.11037928505787,0.0
842,-0.7185562598269489,0.3008497722572584,68.02518998317034,0.0
843,-0.7023828338147812,0.31572911387552594,67.94500671632997,0.0
844,-0.6865470045288014,0.3301073890062354,67.86995166756985,0.0
845,-0.6713980162989301,0.34402396764320586,67.80014798393645,0.0
846,-0.6571055435202268,0.3577389083925884,67.73571998173585,0.0
847,-0.6435584232454699,0.37170509318291983,67.67679335748824,0.0
848,-0.6303303946609206,0.3864777147451104,67.62349540498926,0.0
849,-0.6167534421622859,0.4025624899900274,67.57595523891412,0.0
850,-0.6021117474222106,0.42021966024350693,67.53430402544025,0.0
851,-0.5859322197907453,0.43925633684287413,67.49867522040682,0.0
852,-0.5683128698377882,0.45885082226461377,67.46920481557342,0.0
853,-0.5502078311753702,0.47745531157903237,67.44603159358876,0.0
854,-0.5335833029178243,0.4928155185901971,67.42929739233064,0.0
855,-0.5213743719620494,0.5021273657811898,67.4191473793336,0.0
856,-0.5172085510017728,0.5023247826499133,67.41573033707866,1.0
857,-0.5249141733469384,0.49046411313654953,67.42133638051583,0.0
858,-0.5478903262875938,0.4641461812960096,67.43795887617948,0.0
859,-0.5884632337471623,0.4219029756905849,67.465312035164,0.0
860,-0.647374163695078,0.36347650673003695,67.50311954416453,0.0
861,-0.7235250549669597,0.2899337197427181,67.55111367601485,0.0
862,-0.814051961645576,0.20359066319244482,67.60903444202535,0.0
863,-0.9147183286332949,0.1077553450559132,67.67662878228136,0.0
864,-1.0205433103016002,0.0063338730766973605,67.75364979041136,0.0
865,-1.1265272756681823,-0.09662936488414481,67.83985596965405,0.0
866,-1.2283208918575594,-0.19739545121101326,67.93501051734607,0.0
867,-1.3227069389163162,-0.2928825928780284,68.038880635222,0.0
868,-1.40781562266862,-0.3808712907150885,68.15123686316758,0.0
869,-1.4830585863244476,-0.4600407335749158,68.27185243429848,0.0
870,-1.5488271324931668,-0.5298493176124933,68.40050264945378,0.0
871,-1.6060436611565854,-0.5903026985216533,68.53696426939597,0.0
872,-1.655676452536683,-0.641672217755486,68.68101492320086,0.0
873,-1.698327066385416,-0.6842312612943728,68.83243253150336,0.0
874,-1.733979209651951,-0.7180669019085107,68.99099474343812,0.0
875,-1.761960198298628,-0.7430021574615265,69.15647838628162,0.0
876,-1.781115378426891,-0.7586359695532325,69.32865892696354,0.0
877,-1.7901420550144254,-0.7644802855597274,69.50730994477226,0.0
878,-1.7879879296291352,-0.7601526481178692,69.69220261473305,0.0
879,-1.7742042509042257,-0.7455727623891871,69.88310520128805,0.0
880,-1.7491616782112862,-0.7211140547615457,70.07978256205705,0.0
881,-1.7140808824062546,-0.6876746382736616,70.28199566160521,0.0
882,-1.6708842742195964,-0.6466523106581005,70.48950109529197,0.0
883,-1.6219214140589209,-0.5998299680824608,70.70205062342241,0.0
884,-1.5696448655436992,-0.5491960794383139,70.91939071606969,0.0
885,-1.5163114407770835,-0.49673603112392417,71.14126210908596,0.0
886,-1.463761842094255,-0.4442327402793641,71.36739937196688,0.0
887,-1.4133013606969647,-0.39310960495560754,71.59753048838525,0.0
888,-1.36567721947816,-0.34433787387019305,71.83137645035885,0.0
889,-1.321131513699194,-0.29841690262366316,72.06865086716844,0.0
890,-1.2795037322928717,-0.25542247550773023,72.30905959029236,0.0
891,-1.240360013051699,-0.2151077009211483,72.55230035577499,0.0
892,-1.2031320086657764,-0.1770342814426599,72.79806244559558,0.0
893,-1.1672518760460355,-0.14070964412492998,73.0460263697526,0.0
894,-1.1322700050090362,-0.1057071941879934,73.2958635709235,0.0
895,-1.097940841689969,-0.07175203978154981,73.54723615370312,0.0
896,-1.0642634138696707,-0.038761849710822915,73.79979664056037,0.0
897,-1.0314693277533573,-0.006840819795136732,74.05318775678536,0.0
898,-0.999960968356687,0.023767237674551134,74.30704224682303,0.0
899,-0.970212739046471,0.05275410320069418,74.56098272450382,0.0
900,-0.9426551599505041,0.07983397217393465,74.81462155978726,0.0
901,-0.9175645580369174,0.10482415988414998,75.06756080472425,0.0
902,-0.8949805339583983,0.12770408813289713,75.3193921614212,0.0
903,-0.8746696492968147,0.1486418068641241,75.56969699484729,0.0
904,-0.8561461433110171,0.16798392606332518,75.81804639336588,0.0
905,-0.8387485684709384,0.18621190684318456,76.06400127988857,0.0
906,-0.8217567767110161,0.2038737740781514,76.30711257654262,0.0
907,-0.8045212208361867,0.2215042758230948,76.54692142570784,0.0
908,-0.7865717892126451,0.2395476558683936,76.78295947021533,0.0
909,-0.7676799513219458,0.2582955505386529,77.01474919540314,0.0
910,-0.7478642920841684,0.27784876915073964,77.24180433559278,0.0
911,-0.7273486759042224,0.29810700679451463,77.46363034738134,0.0
912,-0.706495501029456,0.3187860627459949,77.67972495193676,0.0
913,-0.6857380967694119,0.33945876581718315,77.88957874823346,0.0
914,-0.6655271147759927,0.35961384394568247,78.09267589887409,0.0
915,-0.6462923814990627,0.3787261602167562,78.28849488980644,0.0
916,-0.6284120533582048,0.3963314703850925,78.47650936486345,0.0
917,-0.6121794946361857,0.41209853176010114,78.65618903562711,0.0
918,-0.5977641807820782,0.4258907037859674,78.82700066664675,0.0
919,-0.5851715603708021,0.4378082771992915,78.98840913552557,0.0
920,-0.5742132258702102,0.4482022245461156,79.13987856683237,0.0
921,-0.5645001930161669,0.4576506845779649,79.28087353819771,0.0
922,-0.5554689387689318,0.4668920389901875,79.41086035631972,0.0
923,-0.5464447116508663,0.47671335609961546,79.52930839993816,0.0
924,-0.5367422615446324,0.48780016569631796,79.63569152614264,0.0
925,-0.525801296154364,0.5005622218985178,79.72948953566396,0.0
926,-0.5133506628723368,0.5149586475336173,79.81018969207061,0.0
927,-0.49958815175377147,0.5303526281790585,79.8772882890539,0.0
928,-0.4853503015742193,0.5454284142731411,79.93029225925208,0.0
929,-0.47223152900600956,0.5581998788890876,79.96872081734051,0.0
930,-0.46260188123883805,0.5661292930282441,79.9921071294117,0.0
931,-0.45947682161995046,0.566357876681048,80.0,1.0
932,-0.4662160406739574,0.5560284635029036,79.99466915064004,0.0
933,-0.4860689375634291,0.5326593570326137,79.97884356285668,0.0
934,-0.521631821189,0.49451217265903813,79.95277957902164,0.0
935,-0.5743213478695021,0.4408898977145328,79.91674088602909,0.0
936,-0.6439860583823482,0.3723076513102754,79.8709978620103,0.0
937,-0.7287636230449446,0.2904979682027611,79.81582692828437,0.0
938,-0.8252440983625956,0.19824183645508447,79.75150990888372,0.0
939,-0.9289280298348432,0.09905023949774222,79.67833339984834,0.0
940,-1.0348914678948322,-0.003248977056896779,79.59658815033171,0.0
941,-1.138511922049718,-0.10494475594208785,79.5065684574042,0.0
942,-1.2360904514338682,-0.20281924242404709,79.40857157628082,0.0
943,-1.32523333865261,-0.2944026234003332,79.30289714753854,0.0
944,-1.4049228549877855,-0.37806952703278485,79.18984664272578,0.0
945,-1.475287929275983,-0.452975167035539,79.06972282960646,0.0
946,-1.5371570030896546,-0.518863684388581,78.94282925812121,0.0
947,-1.5915200451306708,-0.57580656766105,78.80946976799265,0.0
948,-1.6390389688880007,-0.623939903384279,78.66994801874996,0.0
949,-1.6797268946797976,-0.663263534161897,78.52456704280115,0.0
950,-1.7128706161803138,-0.6935451220631913,78.37362882204062,0.0
951,-1.737204756192997,-0.7143432140950361,78.21743388834477,0.0
952,-1.7512758361673655,-0.7251331762291222,78.05628094818168,0.0
953,-1.753882122407874,-0.7254957067004892,77.89046653144015,0.0
954,-1.744460121789171,-0.7153149781062506,77.7202846644716,0.0
955,-1.723315890381263,-0.6949344520846228,77.54602656723374,0.0
956,-1.6916554179401653,-0.6652316514296392,77.36798037432958,0.0
957,-1.6514289988988906,-0.6275943719076542,77.18643087964658,0.0
958,-1.6050479548178043,-0.5838041958201694,77.00165930422216,0.0
959,-1.5550489957938032,-0.5358530965985624,76.8139430868894,0.0
960,-1.5037759568224425,-0.48573125879068196,76.6235556971945,0.0
961,-1.4531313597309075,-0.43522710403796394,76.43076647002086,0.0
962,-1.404430214939233,-0.38577439445479944,76.2358404613075,0.0
963,-1.3583688308637478,-0.3383685689046687,76.03903832420852,0.0
964,-1.3151015066837808,-0.2935586609313091,75.84061620500667,0.0
965,-1.2743982939743204,-0.2515059763214403,75.64082565806709,0.0
966,-1.2358415720080556,-0.21208930108623664,75.43991357909661,0.0
967,-1.1990135820157393,-0.17503069077219463,75.23812215595942,0.0
968,-1.163634207242059,-0.14001628689037382,75.03568883628976,0.0
969,-1.1296260742270365,-0.1067921127291549,74.83284631113997,0.0
970,-1.0971065528859938,-0.0752233822400415,74.62982251390072,0.0
971,-1.0663264133366042,-0.04531506194304766,74.42684063373719,0.0
972,-1.037586767157415,-0.01719906473093602,74.22411914279292,0.0
973,-1.0111660086809742,0.008901873111539005,74.02187183642613,0.0
974,-0.9872773052171363,0.032722227694130496,73.82030788575909,0.0
975,-0.9660599349368673,0.054003590873326984,73.61963190184049,0.0
976,-0.9475923725160592,0.07253926156537246,73.42004401074142,0.0
977,-0.9319080586107383,0.08820941635723845,73.22173993893031,0.0
978,-0.918998021016315,0.10100507666896902,73.02491110829723,0.0
979,-0.90879467925056,0.11104031921859697,72.82974474022599,0.0
980,-0.9011426912641081,0.11855254351807287,72.63642396814112,0.0
981,-0.8957707440403408,0.12389070189026954,72.44512795798755,0.0
982,-0.8922800493924611,0.12749182266418255,72.25603203613142,0.0
983,-0.8901606045984262,0.12984725235298245,72.06930782420359,0.0
984,-0.8888369393869199,0.1314617239946051,71.88512338043934,0.0
985,-0.8877348543824044,0.13281015931696855,71.70364334710155,0.0
986,-0.8863535028983502,0.13429837196206768,71.52502910360884,0.0
987,-0.8843252426390862,0.13623396525795053,71.34943892502324,0.0
988,-0.8814488482336791,0.1388124174467033,71.17702814558729,0.0
989,-0.8776884698002806,0.14212074872123776,71.00794932703441,0.0
990,-0.8731392999566558,0.14615780027271044,70.84235243143057,0.0
991,-0.8679691581790604,0.15086681447093048,70.68038499834053,0.0
992,-0.8623508353957307,0.1561735084196639,70.52219232614583,0.0
993,-0.8564014193665183,0.16202180396829358,70.3679176573766,0.0
994,-0.8501419105341772,0.16840007261429957,70.2177023679536,0.0
995,-0.8434848383171695,0.17535300028372683,70.07168616027164,0.0
996,-0.8362513117347958,0.18297742504948367,69.93000726008994,0.0
997,-0.8282130130546617,0.1914039741717917,69.79280261723011,0.0
998,-0.8191490192109255,0.20076922565051047,69.66020811011705,0.0
999,-0.8089023799682318,0.21118482555577706,69.53235875423367,0.0
1000,-0.797419272737919,0.2227102249160725,69.40938891459523,0.0
1001,-0.7847573924904591,0.2353345765684486,69.29143252238633,0.0
1002,-0.7710609103722084,0.2489713065445492,69.17862329593903,0.0
1003,-0.7565131020970057,0.26346655419134535,69.07109496626882,0.0
1004,-0.7412874812391935,0.27862057894063874,68.96898150742331,0.0
1005,-0.7255179864661047,0.29421958327918063,68.87241737193752,0.0
1006,-0.7092978735154609,0.31007406958400624,68.7815377317309,0.0
1007,-0.6927009842638033,0.3260584856903423,68.69647872482268,0.0
1008,-0.6758065612254514,0.34214525496936155,68.6173777082868,0.0
1009,-0.658706712315979,0.3584244689371824,68.54437351791219,0.0
1010,-0.6414859479259449,0.3750992531904147,68.47760673508367,0.0
1011,-0.6241809048393749,0.3924472654394559,68.41721996144784,0.0
1012,-0.6067470718200112,0.4107421499982429,68.36335810198267,0.0
1013,-0.589068697672956,0.43013570029599657,68.31616865714534,0.0
1014,-0.571041766724417,0.4505115086080991,68.27580202483391,0.0
1015,-0.5527376459265246,0.4713321944966578,68.24241181296145,0.0
1016,-0.5346230889265783,0.4915119467850388,68.21615516351112,0.0
1017,-0.5177816771321023,0.5093506929421727,68.1971930890138,0.0
1018,-0.5040638961433913,0.5225629002339145,68.18569082246927,0.0
1019,-0.4960952853357112,0.5284215952377469,68.18181818181819,1.0
1020,-0.49709545897980195,0.5240177650343776,68.18660520251338,0.0
1021,-0.5105007672646465,0.506610430843787,68.20080076364215,0.0
1022,-0.5394323702514198,0.47401879797733043,68.2241621438706,0.0
1023,-0.5860999116823644,0.42499109158452436,68.25645346407224,0.0
1024,-0.6512663853054081,0.3594801881639157,68.29744504840826,0.0
1025,-0.7339080044030646,0.2787667011072817,68.34691281342691,0.0
1026,-0.831173769097342,0.18539501537929481,68.40463768284567,0.0
1027,-0.9386847620847374,0.08292241616961438,68.47040502588811,0.0
1028,-1.0511296958153111,-0.024481450608741046,68.54400411723717,0.0
1029,-1.1630365710057518,-0.13251655947722019,68.62522761684332,0.0
1030,-1.2695540601324842,-0.23723036466945907,68.71387106798987,0.0
1031,-1.3670732226484614,-0.3354068039596596,68.80973241216952,0.0
1032,-1.4535601768300108,-0.4248009063754329,68.91261151946958,0.0
1033,-1.5285421999170605,-0.5041867398394556,69.02230973329621,0.0
1034,-1.5927744763696345,-0.5732260782212104,69.13862942839545,0.0
1035,-1.6476899488320123,-0.6322019705331567,69.26137358124755,0.0
1036,-1.6947806871444253,-0.6816869847470759,69.39034535202588,0.0
1037,-1.7350651287524133,-0.7222248025088361,69.52534767742023,0.0
1038,-1.7687626934364011,-0.7540947532451392,69.66618287373004,0.0
1039,-1.7952369971121007,-0.7772048146595462,69.81265224973367,0.0
1040,-1.8131981559395212,-0.7911259668975559,69.96455572893876,0.0
1041,-1.821091635828627,-0.7952475967707897,70.12169148091479,0.0
1042,-1.8175612144142503,-0.7890075170488975,70.28385556150211,0.0
1043,-1.8018657219141656,-0.7721364856007158,70.45084156178528,0.0
1044,-1.774152677199773,-0.7448579406483287,70.62244026580801,0.0
1045,-1.735536984909824,-0.7079975485386016,70.798439317098,0.0
1046,-1.687984581629645,-0.6629797938687267,70.97862289415878,0.0
1047,-1.6340446178400534,-0.611714406747086,71.16277139517351,0.0
1048,-1.5764995312121948,-0.5563980870732763,71.35066113225442,0.0
1049,-1.5180075560137274,-0.4992722305849929,71.54206403565803,0.0
1050,-1.4608009938713948,-0.4423828067946529,71.7367473684738,0.0
1051,-1.4064835134396485,-0.38738416992847224,71.93447345237928,0.0
1052,-1.3559473792711985,-0.33541642381430703,72.13499940514129,0.0
1053,-1.309410036031261,-0.2870693705218311,72.33807689062631,0.0
1054,-1.2665499554776123,-0.24242888585251976,72.54345188216757,0.0
1055,-1.2267057118625668,-0.20118726416613403,72.75086444021751,0.0
1056,-1.1890931480629074,-0.16279013638583484,72.9600485052954,0.0
1057,-1.1529963881184755,-0.12659007601367422,73.17073170731707,0.0
1058,-1.117899611163853,-0.09198059935422043,73.38263519246915,0.0
1059,-1.0835443751695546,-0.05849234844066101,73.59547346886222,0.0
1060,-1.0499163259866768,-0.025843484907451253,73.80895427226444,0.0
1061,-1.017180441329696,0.006053759200150471,74.02277845328115,0.0
1062,-0.9855924726959929,0.03712088147509973,74.23663988740218,0.0
1063,-0.9554146825822939,0.06716179286807306,74.45022540939122,0.0
1064,-0.9268569321046091,0.09591868941100082,74.66321477353414,0.0
1065,-0.9000523627102008,0.1231241795800771,74.87528064129948,0.0
1066,-0.8750643927089286,0.14854312351979979,75.08608859799025,0.0
1067,-0.8519122567639761,0.17200211806121338,75.29529719998244,0.0
1068,-0.8305980890900165,0.19340786218629297,75.5025580541497,0.0
1069,-0.8111202507766521,0.212757084695206,75.70751593106594,0.0
1070,-0.7934645808612525,0.23014034301675546,75.9098089135554,0.0
1071,-0.7775754311570093,0.24574045550881746,76.10906858212323,0.0
1072,-0.7633182228017914,0.2598245929978751,76.30492023874721,0.0
1073,-0.7504509044562067,0.2727280897159744,76.49698317044064,0.0
1074,-0.7386205122869126,0.2848284466572151,76.68487095390945,0.0
1075,-0.7273931347266638,0.2965098482461358,76.8681918025193,0.0
1076,-0.7163137695951716,0.3081212962335787,77.04654895666133,0.0
1077,-0.7049811989396823,0.3199343053690294,77.21954111845808,0.0
1078,-0.6931165418891968,0.3321080408752743,77.3867629315826,0.0
1079,-0.6806055517087742,0.3446700599676935,77.54780550677229,0.0
1080,-0.6675039259335231,0.3575191217635616,77.70225699340847,0.0
1081,-0.6540078867044355,0.3704530043473088,77.84970319729717,0.0
1082,-0.6404024615884548,0.383219466720402,77.98972824453232,0.0
1083,-0.6270020575440655,0.3955832185809512,78.12191529104466,0.0
1084,-0.6140923677951229,0.4073969237781365,78.24584727714519,0.0
1085,-0.6018754507651835,0.41866080031069863,78.36110772605412,0.0
1086,-0.5904182475663013,0.4295542009433816,78.46728158507571,0.0
1087,-0.5796114846732331,0.44042445831251864,78.56395610773004,0.0
1088,-0.5691565397769801,0.4517237456001093,78.65072177479172,0.0
1089,-0.5586041338132373,0.46389363876021006,78.72717325181448,0.0
1090,-0.5474638553187589,0.4772085056612295,78.79291038033988,0.0
1091,-0.5353862512782037,0.4916008554724132,78.84753919960762,0.0
1092,-0.52239417950365,0.5065016436328078,78.89067299519873,0.0
1093,-0.5091154330351263,0.5207332883949459,78.92193337066497,0.0
1094,-0.4969528008449849,0.532490406506899,78.94095133782557,0.0
1095,-0.4881271863282493,0.5394319883230214,78.94736842105263,1.0
1096,-0.48554699614199215,0.5388898637034766,78.94541683385256,0.0
1097,-0.492490968404315,0.5281749564518711,78.93961324382418,0.0
1098,-0.5121356559156502,0.504939790641487,78.9300352204591,0.0
1099,-0.5470033182774392,0.4675385161966711,78.9167613565812,0.0
1100,-0.5984396508935801,0.4153192432790239,78.89987119464318,0.0
1101,-0.6662422588574829,0.3487905693417331,78.87944515393859,0.0
1102,-0.7485417364134845,0.2696246522762396,78.85556445882949,0.0
1103,-0.8419867047591237,0.18048946465126764,78.82831106808513,0.0
1104,-0.942212139119045,0.08473661096545412,78.79776760542128,0.0
1105,-1.044496677147795,-0.01399940590202961,78.76401729132449,0.0
1106,-1.1444627859146725,-0.11221645809550174,78.72714387623998,0.0
1107,-1.2386614500337685,-0.206898498614427,78.68723157519692,0.0
1108,-1.324914990203596,-0.29574634986994697,78.64436500393865,0.0
1109,-1.4023569551369297,-0.37725250549486544,78.59862911662057,0.0
1110,-1.4711853923030647,-0.45062197740597243,78.55010914513296,0.0
1111,-1.532212692952871,-0.5155747676255222,78.49889054010058,0.0
1112,-1.5863365638682816,-0.5720896160627237,78.44505891360596,0.0
1113,-1.6340674079123236,-0.6201577843272441,78.38869998367812,0.0
1114,-1.6752288355628338,-0.659608057898033,78.32989952058325,0.0
1115,-1.7089038665902583,-0.6900422851814507,78.26874329494957,0.0
1116,-1.7336361481133862,-0.7108904734478035,78.20531702775351,0.0
1117,-1.747826320435452,-0.7215634984564513,78.13970634218984,0.0
1118,-1.7502084642365268,-0.7216575386993209,78.07199671744418,0.0
1119,-1.740269921965128,-0.7111530441613662,78.00227344438167,0.0
1120,-1.7184982415003258,-0.690554570513229,77.93062158316238,0.0
1121,-1.6863936571944844,-0.6609344430611815,77.85712592278878,0.0
1122,-1.6462541318949346,-0.6238680004397831,77.78187094258845,0.0
1123,-1.600799750436296,-0.5812743915889738,77.70494077563035,0.0
1124,-1.552737872646421,-0.5351979788292702,77.62641917407032,0.0
1125,-1.5043741901906154,-0.48757659848829915,77.5463894764184,0.0
1126,-1.457351667114744,-0.4400424299204734,77.46493457671687,0.0
1127,-1.4125591722634687,-0.3937903137427411,77.38213689561609,0.0
1128,-1.3702061142942117,-0.3495307831639887,77.29807835333183,0.0
1129,-1.3300195329341271,-0.3075257857498612,77.2128403444656,0.0
1130,-1.291495140868487,-0.26768882363727464,77.12650371466758,0.0
1131,-1.2541299591027277,-0.22972135734400248,77.03914873911921,0.0
1132,-1.2175820282468857,-0.19325503564755572,76.95085510281089,0.0
1133,-1.1817352688881977,-0.15797375887532747,76.86170188258843,0.0
1134,-1.1466820602250642,-0.12369836535986278,76.77176753094065,0.0
1135,-1.1126591757181925,-0.0904268858981462,76.68112986149858,0.0
1136,-1.0799768227836881,-0.05833225433005959,76.58986603621621,0.0
1137,-1.0489673580556345,-0.027725545053849554,76.49805255420117,0.0
1138,-1.01995924395126,0.0010040999689510666,76.40576524216327,0.0
1139,-0.9932646736125021,0.027461072578367496,76.31307924644739,0.0
1140,-0.9691635287554555,0.05131546591106528,76.22006902661782,0.0
1141,-0.947871919444313,0.07236620497593133,76.12680835055934,0.0
1142,-0.9294946737346941,0.09058701235867589,76.03337029106112,0.0
1143,-0.9139712676088827,0.10614877354748978,75.93982722384854,0.0
1144,-0.9010306212369498,0.11941418964634115,75.84625082702874,0.0
1145,-0.8901721327652778,0.1309039348864713,75.75271208191498,0.0
1146,-0.8806888710961348,0.14123787352893025,75.65928127519551,0.0
1147,-0.8717426989200534,0.1510596698006319,75.56602800241319,0.0
1148,-0.8624881990197721,0.16095724764125635,75.47302117272174,0.0
1149,-0.8522236596180804,0.171393675582461,75.38032901488562,0.0
1150,-0.8405297251970182,0.18266203388748647,75.2880190844909,0.0
1151,-0.8273497696109605,0.1948732598128139,75.19615827233514,0.0
1152,-0.8129777964809484,0.20797853327734725,75.10481281396503,0.0
1153,-0.7979483048356267,0.22181921594241905,75.01404830033138,0.0
1154,-0.7828576250561556,0.2361901212653158,74.92392968953212,0.0
1155,-0.7681732003221393,0.2508983271821997,74.8345213196145,0.0
1156,-0.7540944157508839,0.26580129255937324,74.74588692240948,0.0
1157,-0.7405120990748086,0.28081462872633955,74.65808963837142,0.0
1158,-0.7270795678083456,0.2958897834913085,74.57119203239826,0.0
1159,-0.7133690501914025,0.3109721808959397,74.48525611060805,0.0
1160,-0.6990580141990573,0.3259577610122742,74.4003433380492,0.0
1161,-0.6840804839271205,0.34066782353480773,74.31651465732293,0.0
1162,-0.6686908710829119,0.3548575894931374,74.23383050809817,0.0
1163,-0.6534165864881649,0.368263869571688,74.15235084750009,0.0
1164,-0.6389106649883655,0.3806842835898053,74.0721351713553,0.0
1165,-0.6257462754174793,0.3920682181016856,73.993242536278,0.0
1166,-0.6142131705043861,0.4025917308922745,73.91573158258339,0.0
1167,-0.6041776812842613,0.41268751250249025,73.83966055801518,0.0
1168,-0.5950530131921078,0.4230077039704418,73.76508734227725,0.0
1169,-0.5858997416242258,0.4343108145070333,73.69206947235962,0.0
1170,-0.5756448921713669,0.44728144785597496,73.62066416865163,0.0
1171,-0.5633799556439841,0.46230922672589675,73.55092836183658,0.0
1172,-0.5486799410503572,0.47926717730851326,73.48291872056399,0.0
1173,-0.5318798307840213,0.49733652280726326,73.41669167989723,0.0
1174,-0.5142506379838443,0.5149223053897812,73.35230347053654,0.0
1175,-0.4980316426037057,0.5296922500260698,73.28981014881904,0.0
1176,-0.48629526723424316,0.5387514134076279,73.22926762749945,0.0
1177,-0.48264465853300237,0.5389406964856089,73.17073170731707,1.0
1178,-0.49077048674684803,0.5272226712538595,73.11282326350972,0.0
1179,-0.5139213062566037,0.5010982434702977,73.05415239544791,0.0
1180,-0.5543673718125748,0.4589868451115571,72.9947585345982,0.0
1181,-0.6129544758364187,0.4005041299521035,72.9346809188591,0.0
1182,-0.6888438095945666,0.326585338799148,72.87395858563761,0.0
1183,-0.7795095511699933,0.23942775423351825,72.81263036537185,0.0
1184,-0.8810178823296081,0.14225755091631886,72.75073487549538,0.0
1185,-0.9885488351048545,0.03895859390563983,72.68831051483816,0.0
1186,-1.0970629996463745,-0.06637347869909738,72.6253954584591,0.0
1187,-1.2019777015461321,-0.1698750137765777,72.56202765290486,0.0
1188,-1.2997144748747929,-0.2682810433672368,72.4982448118895,0.0
1189,-1.3880121139198367,-0.3591573483375255,72.43408441238891,0.0
1190,-1.4659562271664226,-0.4409692647894575,72.36958369114458,0.0
1191,-1.533740713209114,-0.5129927760102285,72.30477964157036,0.0
1192,-1.5922343582480427,-0.5751051506363297,72.23970901105629,0.0
1193,-1.642466457580007,-0.6275146186364776,72.17440829866294,0.0
1194,-1.6851612212743434,-0.6704965787898967,72.10891375320043,0.0
1195,-1.7204360133257737,-0.7041962919032029,72.04326137168513,0.0
1196,-1.747733086050481,-0.7285373323266249,71.97748689816817,0.0
1197,-1.7659885300807665,-0.7432467074928092,71.9116258229287,0.0
1198,-1.7739756772775688,-0.7479786053733897,71.84571338202598,0.0
1199,-1.7707154240653598,-0.7424960888857012,71.77978455720323,0.0
1200,-1.755836716643206,-0.7268586940973968,71.71387407613722,0.0
1201,-1.7297958852019126,-0.7015657044416157,71.64801641302674,0.0
1202,-1.6939102193593432,-0.6676184266443725,71.58224578951388,0.0
1203,-1.6502114049642087,-0.6264859311292605,71.51659617593127,0.0
1204,-1.6011643730275866,-0.5799818338843736,71.45110129286964,0.0
1205,-1.5493204747048293,-0.530079229767087,71.38579461305874,0.0
1206,-1.4969804427066011,-0.4787026547223994,71.32070936355593,0.0
1207,-1.4459343287557809,-0.42753799680005233,71.25587852823655,0.0
1208,-1.3973246000639796,-0.37789409264254004,71.19133485057941,0.0
1209,-1.3516480451780675,-0.33063593097053434,71.12711083674247,0.0
1210,-1.3088785091832438,-0.28619280346875986,71.0632387589226,0.0
1211,-1.268664940631256,-0.24462948308244492,70.99975065899383,0.0
1212,-1.230546039538802,-0.20575786410872446,70.93667835241902,0.0
1213,-1.1941273151623781,-0.16926224449193716,70.87405343242952,0.0
1214,-1.159185809973361,-0.13481356264525476,70.81190727446791,0.0
1215,-1.1256946162890606,-0.10215486245691303,70.75027104088885,0.0
1216,-1.0937841161397717,-0.07114956658388732,70.68917568591365,0.0
1217,-1.0636714877868814,-0.04179317480498665,70.62865196083378,0.0
1218,-1.0355909027239447,-0.014195744161705964,70.5687304194592,0.0
1219,-1.0097463639929736,0.011454052988815772,70.50944142380754,0.0
1220,-0.9862937814411372,0.034932278114281456,70.45081515003031,0.0
1221,-0.9653454028887554,0.05602157749624606,70.39288159457229,0.0
1222,-0.9469822490980147,0.07454582148051081,70.33567058056103,0.0
1223,-0.9312598147132594,0.09039495511544884,70.2792117644232,0.0
1224,-0.9181981109796357,0.10353985044738498,70.22353464272499,0.0
1225,-0.9077569018513029,0.11403834530681994,70.16866855923365,0.0
1226,-0.8998069285491397,0.12203426214967844,70.11464271219832,0.0
1227,-0.8941131260469751,0.12775135728450115,70.06148616184736,0.0
1228,-0.890342522644499,0.13148410014685782,70.00922783810104,0.0
1229,-0.8880979801426404,0.1335869622215969,69.95789654849743,0.0
1230,-0.8869647012314252,0.13446338912844383,69.90752098633058,0.0
1231,-0.8865478287836228,0.134554745863243,69.85812973899982,0.0
1232,-0.8864826320916729,0.1343283898317467,69.80975129656946,0.0
1233,-0.886413415685353,0.1342630520359009,69.76241406053863,0.0
1234,-0.8859561543393194,0.134829467682392,69.71614635282096,0.0
1235,-0.8846725303566835,0.13646514166956378,69.67097642493445,0.0
1236,-0.882081686005705,0.1395442749271103,69.62693246740199,0.0
1237,-0.8777198085646075,0.144346638264554,69.58404261936327,0.0
1238,-0.8712336976591205,0.15103151561297246,69.54233497839965,0.0
1239,-0.8624744136288953,0.15962361648438364,69.50183761057285,0.0
1240,-0.8515514696526655,0.17001635798160752,69.46257856067997,0.0
1241,-0.838820475099338,0.18199422028794485,69.42458586272667,0.0
1242,-0.8248022412936994,0.1952709548739302,69.3878875506212,0.0
1243,-0.8100574939010087,0.2095358480173091,69.3525116690921,0.0
1244,-0.7950570824280153,0.22449764501929798,69.31848628483313,0.0
1245,-0.780087442452085,0.23991619932908603,69.28583949787897,0.0
1246,-0.7652170280882638,0.25561551876374544,69.25459945321562,0.0
1247,-0.7503284232356594,0.27147766056874073,69.22479435263043,0.0
1248,-0.735200819484353,0.28742310994419473,69.19645246680622,0.0
1249,-0.7196144675627634,0.30338784646281064,69.1696021476653,0.0
1250,-0.7034450664731872,0.3193086188481105,69.14427184096853,0.0
1251,-0.6867209984298048,0.3351252629026752,69.12049009917646,0.0
1252,-0.6696270834217023,0.3508026259315949,69.09828559457864,0.0
1253,-0.6524523251147576,0.3663663462623173,69.07768713269839,0.0
1254,-0.6354940480044394,0.38193871364669296,69.05872366598093,0.0
1255,-0.6189451615645236,0.3977556748905047,69.04142430777287,0.0
1256,-0.602802130753329,0.4141458832645551,69.02581834660174,0.0
1257,-0.5868342455300741,0.43145858232748446,69.01193526076487,0.0
1258,-0.57064592350127,0.44993860761422605,68.99980473323743,0.0
1259,-0.5538421791584155,0.46956179168868706,68.98945666690997,0.0
1260,-0.5362772233953722,0.48985914667951796,68.98092120016653,0.0
1261,-0.5183357832462787,0.5097693291790322,68.97422872281474,0.0
1262,-0.5011755057177822,0.5275623838613792,68.96940989238033,0.0
1263,-0.4868537299277135,0.5408713258955271,68.96649565077908,0.0
1264,-0.47827600976543916,0.5468516631109588,68.96551724137932,1.0
1265,-0.47893605498141,0.5424649015424868,68.96900528089182,0.0
1266,-0.49246238034068623,0.5248550745282722,68.97935119710031,0.0
1267,-0.5220370308122252,0.4917633586344665,68.99638059496424,0.0
1268,-0.5697938075987518,0.44191082907202667,69.01992268288639,0.0
1269,-0.6363238114309464,0.37527777876894713,69.04980994103545,0.0
1270,-0.7204049398975332,0.29322142700898823,69.08587780258482,0.0
1271,-0.8190286632665049,0.19840051832555028,69.12796434698932,0.0
1272,-0.927733083163994,0.09451028590802305,69.17591000449558,0.0
1273,-1.0411847036929283,-0.014132651963115833,69.22955727115172,0.0
1274,-1.153900213451489,-0.1230864575195526,69.28875043364602,0.0
1275,-1.2609735612876967,-0.22827610078411714,69.35333530336604,0.0
1276,-1.3586740050832884,-0.32639693248856083,69.42315895912661,0.0
1277,-1.4448051278752638,-0.4151636041641791,69.4980694980695,0.0
1278,-1.5187600637693701,-0.4933698325068425,69.57791579428894,0.0
1279,-1.5812693496246633,-0.5607630430475864,69.66254726478584,0.0
1280,-1.6339044783737082,-0.6177749376090623,69.75181364240069,0.0
1281,-1.6784566410299928,-0.6651763793180394,69.84556475541865,0.0
1282,-1.7163403229796919,-0.703736683089045,69.94365031358441,0.0
1283,-1.7481653762274143,-0.7339610464565476,70.04591970030421,0.0
1284,-1.7735784033409072,-0.7559573063960636,70.1522217708531,0.0
1285,-1.791404008165545,-0.769450153718636,70.2624046564434,0.0
1286,-1.8000362796859082,-0.7739255124990336,70.37631557404764,0.0
1287,-1.7979633793309848,-0.7688585144180984,70.49380064190608,0.0
1288,-1.7842744222857112,-0.7539620817913439,70.61470470068299,0.0
1289,-1.7590092986641028,-0.7293927952996564,70.73887114027211,0.0
1290,-1.723264615888389,-0.695865462912248,70.86614173228347,0.0
1291,-1.6790441639578475,-0.6546528722071113,70.99635646827865,0.0
1292,-1.6289147033516829,-0.6074755820426414,71.12935340385233,0.0
1293,-1.5755745507155183,-0.5563110464087655,71.26496850869053,0.0
1294,-1.5214512747374167,-0.5031663422153251,71.40303552276643,0.0
1295,-1.468418181430069,-0.4498617912700532,71.54338581886567,0.0
1296,-1.417671694895802,-0.3978646562325582,71.68584827166156,0.0
1297,-1.3697624655242164,-0.34819636687217126,71.83024913359053,0.0
1298,-1.3247373403406348,-0.3014182942369284,71.97641191780572,0.0
1299,-1.2823335322945968,-0.25768472767825473,72.12415728851396,0.0
1300,-1.242168589999791,-0.21684088361769283,72.27330295902759,0.0
1301,-1.203884404904078,-0.17853994893216024,72.42366359788807,0.0
1302,-1.1672245596994988,-0.14235577720677908,72.57505074344189,0.0
1303,-1.132046503253656,-0.10787484334052092,72.72727272727273,0.0
1304,-1.098288187797134,-0.07475966346167157,72.88013460691427,0.0
1305,-1.0659184354698827,-0.04278352594041157,73.03343810828879,0.0
1306,-1.0348991917753232,-0.011841337207657593,73.18698157833373,0.0
1307,-1.005177159732249,0.0180568670821053,73.34055994829477,0.0
1308,-0.9767063401684692,0.04680406747527949,73.49396470817807,0.0
1309,-0.9494876297766346,0.07422255713489581,73.64698389286492,0.0
1310,-0.9236026307793528,0.10009687587600777,73.79940208040189,0.0
1311,-0.8992199044936603,0.12421258254320933,73.9510004029849,0.0
1312,-0.8765627903513045,0.14639913468977442,74.10155657115875,0.0
1313,-0.8558438086609935,0.1665729868702558,74.25084491175366,0.0
1314,-0.8371842849987777,0.18477462133089526,74.39863642007592,0.0
1315,-0.8205434574734504,0.20119174430433787,74.54469882686256,0.0
1316,-0.8056779471880864,0.21616122919507982,74.68879668049793,0.0
1317,-0.7921435044554279,0.23014493180869672,74.83069144497448,0.0
1318,-0.779340983768217,0.24367895612244805,74.97014161405905,0.0
1319,-0.7666001472995754,0.2573014534557844,75.10690284210096,0.0
1320,-0.7532882758380754,0.2714693814353813,75.2407280918886,0.0
1321,-0.7389252523151107,0.286478552640713,75.37136779992453,0.0
1322,-0.7232834320448072,0.3024027092341526,75.4985700594504,0.0
1323,-0.7064505531128793,0.3190656768901934,75.62208082150524,0.0
1324,-0.6888379493106778,0.3360559060139868,75.74164411425025,0.0
1325,-0.6711245479192786,0.35278558208099187,75.85700228073574,0.0
1326,-0.6541395222689602,0.36858821364207345,75.96789623522271,0.0
1327,-0.6387018242784667,0.3828407391069785,76.07406573810368,0.0
1328,-0.625448987081246,0.39509028041345456,76.17524968939314,0.0
1329,-0.6146940621119927,0.40516291805074334,76.27118644067797,0.0
1330,-0.6063437277488642,0.41323287020095856,76.36161412533454,0.0
1331,-0.5998941030000274,0.4198351325757186,76.44627100672814,0.0
1332,-0.5945013338672384,0.42581226984636833,76.52489584401661,0.0
1333,-0.5891103112759847,0.43219555451795805,76.59722827508062,0.0
1334,-0.5826208935242215,0.4400307969113822,76.66300921600025,0.0
1335,-0.5740741586123297,0.4501687983084746,76.72198127639099,0.0
1336,-0.5628453419097975,0.46304824957524904,76.77388918980309,0.0
1337,-0.5488301233835632,0.47850397465224187,76.81848025827607,0.0
1338,-0.532605549011248,0.495634579295702,76.85550481002818,0.0
1339,-0.5155386307911134,0.5127598377784535,76.8847166691455,0.0
1340,-0.499809342430569,0.5274889728384514,76.90587363602243,0.0
1341,-0.48831554309764885,0.5369065881722164,76.91873797719241,0.0
1342,-0.4844392298451245,0.5378647564554477,76.92307692307692,1.0
1343,-0.4916772729587179,0.5273502477907736,76.92236198267837,0.0
1344,-0.5131719321159949,0.5028786973566263,76.92023044087671,0.0
1345,-0.5512092036074965,0.46285660715648214,76.91670233085966,0.0
1346,-0.6067761831729701,0.4068508306826504,76.9117978321087,0.0
1347,-0.6792728699081547,0.3357154037572617,76.90553726315972,0.0
1348,-0.7664545515712445,0.2515467191262228,76.89794107443309,0.0
1349,-0.8646402063538743,0.15746694268266176,76.8890298411369,0.0
1350,-0.9691684691228224,0.05726686038510828,76.87882425624682,0.0
1351,-1.0750275446637894,-0.045033530044002595,76.8673451235665,0.0
1352,-1.1775420071883034,-0.14563166511704811,76.85461335087192,0.0
1353,-1.272979517307772,-0.24131937607322468,76.84064994314272,0.0
1354,-1.3589517363741401,-0.3297273715754804,76.82547599588393,0.0
1355,-1.434526134072302,-0.40940214979160316,76.80911268854108,0.0
1356,-1.5000300809714557,-0.47971567742046206,76.7915812780113,0.0
1357,-1.556600391417338,-0.5406433633066564,76.77290309225361,0.0
1358,-1.6055934758299817,-0.5924725801748791,76.75309952400058,0.0
1359,-1.648008409253239,-0.6355158476369717,76.73219202457386,0.0
1360,-1.6840759831706587,-0.6698969277968417,76.71020209780627,0.0
1361,-1.7131258454404927,-0.6954560720325892,76.68715129407201,0.0
1362,-1.733766902732312,-0.7117882136071914,76.66306120442759,0.0
1363,-1.7443233941433403,-0.7183934549874083,76.63795345486518,0.0
1364,-1.743390857356183,-0.7148916279919274,76.6118497006799,0.0
1365,-1.7303410723492485,-0.7012388790555587,76.58477162095319,0.0
1366,-1.7056259673688068,-0.6778871101306616,76.55674091315343,0.0
1367,-1.6707987583663193,-0.645844989308116,76.52777928785525,0.0
1368,-1.6282605396105938,-0.6066264295659498,76.49790846357887,0.0
1369,-1.5808208996635376,-0.5621010382119309,76.4671501617506,0.0
1370,-1.5312070835215623,-0.514283402543763,76.43552610178558,0.0
1371,-1.4816568282776812,-0.4651089427738241,76.40305799629347,0.0
1372,-1.4336897019861112,-0.4162418817426906,76.36976754640816,0.0
1373,-1.388087035830577,-0.3689478836597121,76.33567643724197,0.0
1374,-1.3450439134693664,-0.3240450361025598,76.30080633346515,0.0
1375,-1.304410044687325,-0.2819279436553277,76.26517887501078,0.0
1376,-1.2659241136303003,-0.24264568152963106,76.22881567290598,0.0
1377,-1.2293697277530755,-0.2060078765476052,76.19173830522917,0.0
1378,-1.1946273518195198,-0.17169422011594607,76.15396831319387,0.0
1379,-1.1616436883106676,-0.13934909446126129,76.11552719735917,0.0
1380,-1.1303679712882366,-0.10865150995680303,76.0764364139665,0.0
1381,-1.1007052375366884,-0.0793582508546144,76.03671737140313,0.0
1382,-1.0725151704797207,-0.05132321032427495,75.99639142679172,0.0
1383,-1.0456552644251507,-0.024498021277062187,75.9554798827061,0.0
1384,-1.0200430541651935,0.001080936046115366,75.91400398401252,0.0
1385,-0.9957031534666182,0.0253149597843359,75.87198491483649,0.0
1386,-0.9727727216518534,0.04807138012465895,75.82944379565403,0.0
1387,-0.9514587185641742,0.06921438225776805,75.78640168050754,0.0
1388,-0.9319624384090305,0.08863449202706442,75.74287955434511,0.0
1389,-0.9144013852233438,0.10627279382389163,75.69889833048292,0.0
1390,-0.8987593409798692,0.12213660494906381,75.65447884818975,0.0
1391,-0.8848825285221215,0.136304904043055,75.6096418703931,0.0
1392,-0.8725192610925945,0.14892393010303376,75.56440808150576,0.0
1393,-0.8613819542159001,0.1601953261346843,75.51879808537225,0.0
1394,-0.8512024483365462,0.17036030756518017,75.47283240333397,0.0
1395,-0.841757760847856,0.1796832543695805,75.42653147241214,0.0
1396,-0.8328602558437563,0.188437031509379,75.37991564360756,0.0
1397,-0.8243250912361914,0.19689082066532423,75.33300518031615,0.0
1398,-0.8159390353251044,0.20530000057829612,75.28582025685897,0.0
1399,-0.8074527165406782,0.213897126971413,75.23838095712593,0.0
1400,-0.7986045086526424,0.22288339040505156,75.19070727333168,0.0
1401,-0.7891663382570409,0.23242071544125326,75.14281910488289,0.0
1402,-0.7789894809253177,0.24262536612164248,75.0947362573552,0.0
1403,-0.7680280471230536,0.2535641203284638,75.04647844157928,0.0
1404,-0.7563288219611705,0.26525368990611203,74.99806527283403,0.0
1405,-0.7439923109703056,0.27766337912629063,74.94951627014626,0.0
1406,-0.7311233125407492,0.2907204561671632,74.90085085569537,0.0
1407,-0.7177938904724935,0.30431771704187544,74.85208835432134,0.0
1408,-0.704035078783343,0.31832325671284706,74.80324799313568,0.0
1409,-0.6898589161317504,0.3325931284152072,74.75434890123294,0.0
1410,-0.6752967522605207,0.3469877280965002,74.70541010950234,0.0
1411,-0.660431461361312,0.36139182673569736,74.65645055053773,0.0
1412,-0.6454046412035486,0.3757360458678902,74.60748905864483,0.0
1413,-0.6303928349064323,0.3900146906517494,74.55854436994419,0.0
1414,-0.6155622180268164,0.4042922250062017,74.50963512256885,0.0
1415,-0.6010220008742683,0.41868954927774144,74.4607798569553,0.0
1416,-0.5867997125736105,0.43334269695514954,74.41199701622631,0.0
1417,-0.5728571730822519,0.4483310797115007,74.36330494666458,0.0
1418,-0.5591566096168924,0.4635795872916247,74.3147218982759,0.0
1419,-0.5457741184519269,0.478747387534207,74.26626602544044,0.0
1420,-0.5330441614532666,0.4931241660607876,74.21795538765097,0.0
1421,-0.5217059906190128,0.505559507607137,74.16980795033714,0.0
1422,-0.5130136470357942,0.5144511394029523,74.12184158577398,0.0
1423,-0.5087688330706411,0.5178116701179352,74.07407407407408,1.0
1424,-0.5112432019512035,0.5134214146359511,74.02475969744178,0.0
1425,-0.5229741562237885,0.4990585630143573,73.97220874892503,0.0
1426,-0.5464441495886089,0.4727803757016552,73.9165232019005,0.0
1427,-0.5836833501661377,0.4332141636756411,73.85780529021665,0.0
1428,-0.6358630684304409,0.3798084510829527,73.79615742684035,0.0
1429,-0.7029649104625982,0.3129958470099478,73.73168212519822,0.0
1430,-0.7836101592286366,0.23423081358601264,73.66448192327213,0.0
1431,-0.875109871706073,0.14588631772872435,73.59465931049948,0.0
1432,-0.973750000575367,0.051019497652360274,73.52231665752072,0.0
1433,-1.0752686199540267,-0.046957545981988424,73.44755614880832,0.0
1434,-1.1754320200878732,-0.14464588785940985,73.37047971820374,0.0
1435,-1.270589609488705,-0.2390021499007403,73.29118898738113,0.0
1436,-1.358091639687964,-0.3275953225452407,73.20978520724984,0.0
1437,-1.4364855392324571,-0.40873621823697304,73.12636920230041,0.0
1438,-1.5054567021448197,-0.4814649897461374,73.0410413178929,0.0
1439,-1.565537066676052,-0.5454125482677593,72.9539013704795,0.0
1440,-1.6176586664577497,-0.6005782353927359,72.86504860074854,0.0
1441,-1.662667576382803,-0.6470825222418229,72.77458162967069,0.0
1442,-1.7009248379358068,-0.6849559992056251,72.68259841742396,0.0
1443,-1.732098563787209,-0.714014041321848,72.58919622516852,0.0
1444,-1.755198829881534,-0.7338433844440125,72.4944715796392,0.0
1445,-1.7688385481869815,-0.7438982784949851,72.39852024051827,0.0
1446,-1.7716405626086242,-0.7436769811304451,72.30143717054867,0.0
1447,-1.762673773588441,-0.7329305848209912,72.20331650834363,0.0
1448,-1.7417997576581654,-0.7118497281081925,72.10425154384653,0.0
1449,-1.709843416334361,-0.6811815634335565,72.00433469639141,0.0
1450,-1.668553321201454,-0.6422470491986247,71.90365749531298,0.0
1451,-1.6203724080588493,-0.5968523096814151,71.80231056305277,0.0
1452,-1.5680828329072274,-0.5471114888047782,71.70038360070586,0.0
1453,-1.5144112261755673,-0.49521673652495335,71.59796537595228,0.0
1454,-1.461679715860784,-0.44320003154581544,71.49514371331513,0.0
1455,-1.4115672493941733,-0.3927302881181643,71.39200548668704,0.0
1456,-1.3650128512119497,-0.3449789507309788,71.28863661406615,0.0
1457,-1.3222575290231902,-0.30057126861607997,71.18512205444186,0.0
1458,-1.2829934531201779,-0.2596227695816601,71.0815458067715,0.0
1459,-1.2465730893718685,-0.22184503825251795,70.977990910988,0.0
1460,-1.2122283454350768,-0.18669460427733092,70.87453945097978,0.0
1461,-1.1792583112869857,-0.15353487256084927,70.77127255948466,0.0
1462,-1.1471595308574625,-0.12178330534131514,70.6682704248395,0.0
1463,-1.1156898790787595,-0.0910229733925878,70.5656122995292,0.0
1464,-1.084871723552889,-0.061066931858119455,70.46337651047888,0.0
1465,-1.054949661665378,-0.03197338975234157,70.36164047103487,0.0
1466,-1.026322263863262,-0.004017532302512755,70.26048069458146,0.0
1467,-0.9994665753754975,0.022368917341934386,70.15997280974108,0.0
1468,-0.9748695484353135,0.04667696811980315,70.06019157710864,0.0
1469,-0.9529733762744265,0.06840513796001163,69.96121090747116,0.0
1470,-0.9341341954375799,0.0871381581129233,69.86310388146622,0.0
1471,-0.9185888740318908,0.10261057001076881,69.76594277063518,0.0
1472,-0.9064246895268709,0.11474890831745715,69.66979905982832,0.0
1473,-0.8975511836222159,0.12368881028860493,69.57474347092185,0.0
1474,-0.8916797317597763,0.1297659934509936,69.48084598780862,0.0
1475,-0.8883212114829471,0.13348276270700887,69.38817588262712,0.0
1476,-0.8868130876114052,0.1354546005804351,69.29680174319518,0.0
1477,-0.8863826601470071,0.13634423551730926,69.20679150161757,0.0
1478,-0.8862429382466841,0.13679283210001583,69.11821246403966,0.0
1479,-0.8857040287398298,0.13735888867730223,69.03113134152068,0.0
1480,-0.8842716440572984,0.13847445411577988,68.94561428200436,0.0
1481,-0.8817020785202031,0.14042519963767613,68.86172690336593,0.0
1482,-0.8779935145962668,0.14335614651771905,68.77953432751863,0.0
1483,-0.8733142851051603,0.1472995095265662,68.69910121556447,0.0
1484,-0.8678914476189077,0.1522165579881472,68.62049180397761,0.0
1485,-0.8618978223386069,0.15804289011116332,68.5437699418118,0.0
1486,-0.8553759802216522,0.16472675129510325,68.46899912892549,0.0
1487,-0.8482232540387691,0.1722528409508824,68.3962425552222,0.0
1488,-0.8402383289791646,0.18064847237088136,68.32556314090631,0.0
1489,-0.8312064372057393,0.18997354824615528,68.25702357775786,0.0
1490,-0.8209859073812353,0.20029924032922222,68.19068637143285,0.0
1491,-0.8095599985698644,0.2116817389299904,68.12661388479958,0.0
1492,-0.797034788325468,0.22413701341948344,68.06486838232387,0.0
1493,-0.7835893783296761,0.2376209628304587,68.00551207552078,0.0
1494,-0.7694068737476837,0.25201769663321905,67.94860716949269,0.0
1495,-0.7546224183106831,0.267137777941334,67.89421591057831,0.0
1496,-0.739314078275366,0.2827282165324865,67.84240063514032,0.0
1497,-0.7235390412752657,0.2984961820226758,67.7932238195235,0.0
1498,-0.7073930918037202,0.31414772176724237,67.7467481312189,0.0
1499,-0.6910572434073187,0.3294402392944821,67.70303648127414,0.0
1500,-0.6747981116189995,0.3442428762586607,67.66215207799385,0.0
1501,-0.6589072464155875,0.35859309825560776,67.6241584819784,0.0
1502,-0.6435920149522222,0.3727325900867627,67.58911966255444,0.0
1503,-0.6288560226589062,0.38710339702247043,67.55710005565476,0.0
1504,-0.6144203669913787,0.4022881650871452,67.52816462320992,0.0
1505,-0.5997328397185,0.4188872367723518,67.50237891411993,0.0
1506,-0.5840918226804526,0.43733942046175706,67.47980912687865,0.0
1507,-0.5668814473049473,0.45770982331894094,67.46052217392999,0.0
1508,-0.5478822738566189,0.47948320899823205,67.44458574784024,0.0
1509,-0.5275935686126596,0.5014104686376011,67.43206838937742,0.0
1510,-0.5074846147985177,0.5214552752832663,67.42303955759488,0.0
1511,-0.49008963854203097,0.5368760149308871,67.41756970202269,0.0
1512,-0.47888006489993645,0.5444555262241602,67.41573033707866,1.0
1513,-0.4778906891962688,0.5408617893899691,67.42080041824683,0.0
1514,-0.4911360567064388,0.5230925530219513,67.43583567246574,0.0
1515,-0.5219145949331594,0.4889330820608089,67.46057989047429,0.0
1516,-0.5721421344201736,0.43734516005577156,67.49478462810134,0.0
1517,-0.6418678281095138,0.3687111349883182,67.5382084841551,0.0
1518,-0.7290969562622531,0.2848793787020647,67.59061641085188,0.0
1519,-0.8299807377889858,0.1889931408186005,67.65177905395656,0.0
1520,-0.9393482998123098,0.08512611552755134,67.72147212006023,0.0
1521,-1.0514733316746747,-0.022213946331860163,67.79947576865102,0.0
1522,-1.160911741534678,-0.12862615158052154,67.88557402684808,0.0
1523,-1.2632338874125466,-0.2303062934540258,67.97955422486605,0.0
1524,-1.3555086045434632,-0.32440161171420734,68.08120645046021,0.0
1525,-1.4364630123578108,-0.40917530926887835,68.19032302077382,0.0
1526,-1.5063183766948458,-0.48396517157772534,68.30669797016873,0.0
1527,-1.566366148433212,-0.5489621667125563,68.430126552772,0.0
1528,-1.6183891728046431,-0.6048695413529867,68.56040475861253,0.0
1529,-1.6640521077613262,-0.6525235236699407,68.69732884235856,0.0
1530,-1.704386558699707,-0.6925593799116094,68.84069486379566,0.0
1531,-1.7394796400981787,-0.7251912961625269,68.9902982393101,0.0
1532,-1.7684349625754194,-0.7501452923571905,69.14593330376225,0.0
1533,-1.7896128356641028,-0.7667480219347154,69.30739288225209,0.0
1534,-1.801084782871046,-0.7741391948882341,69.47446787139273,0.0
1535,-1.801179412892313,-0.7715493289282301,69.64694682981973,0.0
1536,-1.7889738860792357,-0.7585731036005774,69.82461557777435,0.0
1537,-1.764605930986063,-0.735373668788,70.00725680570734,0.0
1538,-1.7293368968103948,-0.7027727552840195,70.19464969195816,0.0
1539,-1.6853664355483986,-0.6622099393983479,70.38656952967175,0.0
1540,-1.6354617429576843,-0.6155846952908429,70.58278736322163,0.0
1541,-1.582502424382135,-0.5650197769044447,70.78306963451526,0.0
1542,-1.5290495545115117,-0.512598683362392,70.98717783966391,0.0
1543,-1.4770277166328931,-0.4601311265284729,71.19486819660567,0.0
1544,-1.4275715997981142,-0.40898945463933695,71.4058913243768,0.0
1545,-1.381046178313516,-0.3600395451598798,71.61999193483258,0.0
1546,-1.337212085377554,-0.3136670219739128,71.83690853772424,0.0
1547,-1.2954819110321731,-0.2698792566693997,72.05637316014345,0.0
1548,-1.2552007613542948,-0.2284498980900012,72.27811108144942,0.0
1549,-1.2158851071443677,-0.18906808276785855,72.50184058489558,0.0
1550,-1.1773673575941102,-0.15145910272984087,72.72727272727273,0.0
1551,-1.1398190977354623,-0.11545506726856362,72.95411112798264,0.0
1552,-1.1036596260603369,-0.08100940928057421,73.18205177904902,0.0
1553,-1.0693891879880946,-0.04816385207035051,73.41078287766268,0.0
1554,-1.0374064643842387,-0.01698710289656888,73.63998468294044,0.0
1555,-1.0078695216463938,0.012491093984374785,73.86932939865565,0.0
1556,-0.9806392563729903,0.04032916434535655,74.09848108376725,0.0
1557,-0.9553133950844082,0.06669225746471918,74.32709559263634,0.0
1558,-0.931329824309548,0.0918363379695756,74.55482054686941,0.0
1559,-0.908100523782513,0.11606383737727022,74.78129534076837,0.0
1560,-0.8851357001850446,0.13966400411191968,75.00615118239395,0.0
1561,-0.8621293705922871,0.16285409945552906,75.22901117226175,0.0
1562,-0.8389955130365605,0.18573630641640773,75.44949042168774,0.0
1563,-0.8158595926747394,0.2082805028237306,75.66719621277905,0.0
1564,-0.7930179098837365,0.23033638370883897,75.88172820202675,0.0
1565,-0.7708762672704589,0.2516714684028215,76.09267866939737,0.0
1566,-0.7498747022640114,0.2720257891360439,76.29963281473785,0.0
1567,-0.7304030810420259,0.2911706388057231,76.50216910320324,0.0
1568,-0.7127165905100152,0.308958276102716,76.69985966128608,0.0
1569,-0.6968679063734982,0.3253520231814182,76.89227072486983,0.0
1570,-0.6826770367679419,0.34043123882918364,77.0789631405454,0.0
1571,-0.6697545080629332,0.3543721262255392,77.25949292121794,0.0
1572,-0.6575784246033057,0.36741169994617756,77.43341185679128,0.0
1573,-0.645607122400903,0.3798067820672877,77.60026818044764,0.0
1574,-0.6333953027222048,0.3918011699337725,77.75960729074258,0.0
1575,-0.6206787668562646,0.40361138598188956,77.91097252940826,0.0
1576,-0.6074019650268344,0.4154350080190579,78.05390601440301,0.0
1577,-0.5936797861109464,0.42747694260892705,78.18794952736451,0.0
1578,-0.579704859754544,0.43998047744761676,78.31264545421676,0.0
1579,-0.5656292152487267,0.4532441948544127,78.42753777725159,0.0
1580,-0.55146075734096,0.46760513058765496,78.532173116556,0.0
1581,-0.5370176490191284,0.4833741196053009,78.6261018181892,0.0
1582,-0.5219747951887429,0.5007206958921616,78.70887908603297,0.0
1583,-0.5060154360819303,0.5195200883565856,78.78006615374869,0.0
1584,-0.4890704469780169,0.5391902335667915,78.83923149278064,0.0
1585,-0.47159590920545547,0.5585580781382071,78.88595205185072,0.0
1586,-0.4548158866745313,0.5757978977234769,78.91981452290274,0.0
1587,-0.4408504812230554,0.5884775104007014,78.94041662797855,0.0
1588,-0.4326627822795,0.5937310425045621,78.94736842105263,1.0
1589,-0.43379095064169204,0.5885519513728479,78.94549395739206,0.0
1590,-0.44787852904003206,0.5701723528741073,78.93991788549475,0.0
1591,-0.47806929446881086,0.5364707707469667,78.93071193511568,0.0
1592,-0.5263809064259496,0.48633653761348616,78.91794878460267,0.0
1593,-0.5931991139072736,0.41991975924982744,78.90170199532255,0.0
1594,-0.6770267436623544,0.33871232917692584,78.88204594684366,0.0
1595,-0.7745725802930055,0.24543538583791352,78.85905577296096,0.0
1596,-0.881183185187464,0.14374571680277168,78.83280729864576,0.0
1597,-0.9915300973477875,0.03780962088865136,78.80337697799756,0.0
1598,-1.1003971306669174,-0.06818077445331594,78.77084183327099,0.0
1599,-1.203391418032022,-0.17046307427611823,78.73527939504672,0.0
1600,-1.2974320495441574,-0.2660540399847951,78.69676764361009,0.0
1601,-1.3809362030625996,-0.3529389005167533,78.65538495159743,0.0
1602,-1.4536991990551456,-0.4300812163727412,78.61121002796492,0.0
1603,-1.5165298476531723,-0.4972711083378033,78.56432186333103,0.0
1604,-1.5707445519455328,-0.5548609638835604,78.51479967673879,0.0
1605,-1.61764121142224,-0.6034565629175827,78.46272286387986,0.0
1606,-1.6580689549813084,-0.6436344557886592,78.40817094681867,0.0
1607,-1.692183616604644,-0.6757436993426191,78.35122352524986,0.0
1608,-1.7194338350756433,-0.6998255466062319,78.291960229319,0.0
1609,-1.7387656181490434,-0.7156546941632498,78.23046067403229,0.0
1610,-1.748977713617229,-0.7228774113807218,78.16680441527699,0.0
1611,-1.7491229555066126,-0.7212016580769784,78.10107090747105,0.0
1612,-1.7388444396158214,-0.7105861778326125,78.03333946285619,0.0
1613,-1.7185616083675201,-0.6913804119244976,77.9636892124458,0.0
1614,-1.6894697504786065,-0.6643826339941091,77.89219906863549,0.0
1615,-1.6533696031730714,-0.6308053279110566,77.81894768948074,0.0
1616,-1.6123848257411761,-0.5921588931980453,77.74401344464347,0.0
1617,-1.568644065096195,-0.5500821231210251,77.66747438300607,0.0
1618,-1.524000234955064,-0.5061571053659729,77.58940820194886,0.0
1619,-1.4798388135678713,-0.4617461008486582,77.50989221828443,0.0
1620,-1.4369988071599922,-0.4178796970937916,77.42900334083973,0.0
1621,-1.3958029317778848,-0.37521193837820177,77.34681804467427,0.0
1622,-1.3561728842465892,-0.3340428363754411,77.26341234692137,0.0
1623,-1.3177935367055669,-0.29439516078133987,77.1788617842365,0.0
1624,-1.2802865894462931,-0.2561233163798875,77.09324139183535,0.0
1625,-1.2433585833249632,-0.21902873667574124,77.00662568410281,0.0
1626,-1.2068984570771026,-0.18295848137066095,76.91908863675174,0.0
1627,-1.171013615474932,-0.14787037244410092,76.83070367050985,0.0
1628,-1.1360076043523328,-0.11385707213696847,76.74154363631095,0.0
1629,-1.1023136278127128,-0.08113081550591353,76.65168080196636,0.0
1630,-1.0704040974247606,-0.049978146487449804,76.56118684029052,0.0
1631,-1.040697255188788,-0.020698669829738503,76.47013281865472,0.0
1632,-1.0134794572186416,0.00645699351785356,76.37858918994165,0.0
1633,-0.9888574087019062,0.031336913613618345,76.2866257848725,0.0
1634,-0.9667483893596873,0.05391649349331312,76.19431180567906,0.0
1635,-0.9469078172185803,0.0743028386748068,76.10171582109108,0.0
1636,-0.928983838030146,0.09271698131153447,76.00890576261052,0.0
1637,-0.9125818211155502,0.10946015506612919,75.91594892204289,0.0
1638,-0.8973212276615339,0.12487247438249321,75.82291195025672,0.0
1639,-0.8828733853562665,0.13929249420905074,75.72986085714123,0.0
1640,-0.8689776065194452,0.1530245582052911,75.63686101273348,0.0
1641,-0.8554402740063795,0.16631822870644883,75.54397714948527,0.0
1642,-0.8421244959599972,0.17936115238639536,75.45127336564146,0.0
1643,-0.8289369406032118,0.19228406026764067,75.35881312970086,0.0
1644,-0.8158153717224224,0.20517461770583065,75.26665928593145,0.0
1645,-0.8027174043980793,0.21809568935245466,75.17487406091293,0.0
1646,-0.7896096689932838,0.23110326194851816,75.08351907107874,0.0
1647,-0.776457186631785,0.2442596926890111,74.99265533123179,0.0
1648,-0.7632142096806799,0.25763902695676183,74.90234326400775,0.0
1649,-0.749818521055937,0.27132276158470203,74.8126427102611,0.0
1650,-0.7361906568125463,0.28538649498969465,74.72361294034968,0.0
1651,-0.7222386377270418,0.2998801987607331,74.6353126662944,0.0
1652,-0.707868804761986,0.314807033869047,74.5478000547917,0.0
1653,-0.6930039892114774,0.3301072452674551,74.46113274105733,0.0
1654,-0.677609368275406,0.34565413279052243,74.37536784348069,0.0
1655,-0.6617219773287197,0.3612678708519279,74.29056197907069,0.0
1656,-0.6454729603957704,0.3767497099728277,74.20677127967438,0.0
1657,-0.6290867749456412,0.39193396121644114,74.1240514089513,0.0
1658,-0.6128439643035893,0.4067488877809164,74.04245758008723,0.0
1659,-0.5970056115621725,0.42127160804557834,73.96204457423266,0.0
1660,-0.581714739570102,0.4357582017035585,73.88286675965209,0.0
1661,-0.5669057783356445,0.4506302581409792,73.80497811157156,0.0
1662,-0.5522611601232509,0.4664043738268359,73.72843223271356,0.0
1663,-0.5372505457523229,0.48356168815543726,73.65328237450916,0.0
1664,-0.5212727663690327,0.5023690273307844,73.57958145897882,0.0
1665,-0.5038951131124078,0.5226787122261741,73.50738210127484,0.0
1666,-0.48515317705859906,0.5437467081348552,73.43673663287964,0.0
1667,-0.4658443880531595,0.5641145942626994,73.36769712545535,0.0
1668,-0.44773004193518456,0.5815968651322678,73.300315415342,0.0
1669,-0.4335637291256886,0.5934004358808571,73.2346431287029,0.0
1670,-0.4268929276607905,0.5963796520525178,73.17073170731707,1.0
1671,-0.43163086671946227,0.5874019546981438,73.10713874658242,0.0
1672,-0.451455827539795,0.5637727885994079,73.04242205894384,0.0
1673,-0.4891489788852783,0.5236499190468027,72.97663311734007,0.0
1674,-0.5460135320662375,0.4663722731958684,72.90982315412747,0.0
1675,-0.621514740377923,0.39263913157445984,72.84204314753063,0.0
1676,-0.7132372682983242,0.3045006322096333,72.77334380885762,0.0
1677,-0.8171816867466235,0.20515516254045793,72.7037755704733,0.0
1678,-0.9283371492777767,0.09858583832348644,72.6333885745238,0.0
1679,-1.0414011981702098,-0.010901233349280393,72.56223266240407,0.0
1680,-1.1514916322248374,-0.1191565989181263,72.4903573649605,0.0
1681,-1.2547130250826093,-0.22260370019499554,72.41781189341961,0.0
1682,-1.3484881343255954,-0.31852586818623146,72.34464513103308,0.0
1683,-1.4316220047198303,-0.4051863498677699,72.27090562542978,0.0
1684,-1.504118865052485,-0.4817780126386523,72.19664158166397,0.0
1685,-1.566812420152711,-0.5482325039345226,72.12190085594936,0.0
1686,-1.620897550894125,-0.6049436935072481,72.04673095006791,0.0
1687,-1.667464839017857,-0.6524723668745811,71.97117900644191,0.0
1688,-1.7071363093903242,-0.6912964829413235,71.89529180385814,0.0
1689,-1.739878892920385,-0.7216551966884526,71.81911575383204,0.0
1690,-1.7650319859481276,-0.743509475666868,71.74269689760015,0.0
1691,-1.7815334839621257,-0.7566135925096648,71.66608090372864,0.0
1692,-1.7882773510795524,-0.7606666392701769,71.58931306632589,0.0
1693,-1.7845007747070605,-0.755497039976511,71.51243830384695,0.0
1694,-1.7700927411207903,-0.7412290622927996,71.4355011584773,0.0
1695,-1.7457415630188102,-0.7183887113447993,71.3585457960841,0.0
1696,-1.712887925287563,-0.6879242822261586,71.28161600672242,0.0
1697,-1.6735056351857813,-0.6511392352037713,71.20475520568448,0.0
1698,-1.6297767852161176,-0.609556140639181,71.12800643507964,0.0
1699,-1.5837496165021065,-0.5647451767159961,71.05141236593344,0.0
1700,-1.5370630133561682,-0.5181560141448198,70.97501530079369,0.0
1701,-1.4907959813056846,-0.470987482195417,70.89885717683208,0.0
1702,-1.4454627542940348,-0.42411728276464306,70.82297956942995,0.0
1703,-1.4011347408633064,-0.37809803355224336,70.74742369623686,0.0
1704,-1.3576393057191543,-0.3332104605471391,70.672230421691,0.0
1705,-1.3147705525532787,-0.2895533482402745,70.59744026199083,0.0
1706,-1.272452900030633,-0.24714504808904206,70.52309339050755,0.0
1707,-1.2308216754387575,-0.2060131463517876,70.44922964362799,0.0
1708,-1.1902166098662148,-0.16625576608338488,70.37588852701829,0.0
1709,-1.1511115182234366,-0.12806732887543704,70.30310922229899,0.0
1710,-1.1140173820239114,-0.09173066376393518,70.23093059412213,0.0
1711,-1.0793945009576404,-0.05758398829367117,70.15939119764172,0.0
1712,-1.0475966971115827,-0.02597447079798232,70.08852928636915,0.0
1713,-1.0188536755471511,0.002790056228662796,70.01838282040558,0.0
1714,-0.993282757922976,0.028482145703486256,69.94898947504359,0.0
1715,-0.9709125533436879,0.05098297235225491,69.88038664973104,0.0
1716,-0.9517008443154846,0.07029555690705863,69.81261147739036,0.0
1717,-0.9355365579177544,0.08654334981436645,69.74570083408678,0.0
1718,-0.9222276072288811,0.09995618974867193,69.67969134903996,0.0
1719,-0.9114869747472415,0.11084663382607235,69.61461941497342,0.0
1720,-0.902933382858598,0.11958033451730721,69.55052119879686,0.0
1721,-0.8961178667868543,0.12654469484226752,69.48743265261703,0.0
1722,-0.8905753574299263,0.13212035284955537,69.42538952507327,0.0
1723,-0.8858866207717093,0.13665979337375242,69.36442737299413,0.0
1724,-0.8817276875397356,0.14047623472078855,69.30458157337225,0.0
1725,-0.8778861674875695,0.14384383507158044,69.24588733565528,0.0
1726,-0.8742363395923474,0.1470075705908561,69.18837971435087,0.0
1727,-0.870682087471251,0.15019858149928805,69.13209362194429,0.0
1728,-0.8670906782090433,0.15364920704504476,69.0770638421284,0.0
1729,-0.8632448139619584,0.15760195502808275,69.0233250433454,0.0
1730,-0.8588335160205207,0.16230839220049037,68.97091179264096,0.0
1731,-0.8534872672301769,0.1680169205626606,68.91985856983187,0.0
1732,-0.8468457170550132,0.17495169742578875,68.87019978198863,0.0
1733,-0.8386340215588276,0.18328752515936875,68.82196977823531,0.0
1734,-0.8287213161374709,0.19312660611151267,68.77520286486968,0.0
1735,-0.8171426751050609,0.20448239682387268,68.72993332080694,0.0
1736,-0.804080621541879,0.21727377452750204,68.68619541335138,0.0
1737,-0.789817281616672,0.23133015234384158,68.64402341430072,0.0
1738,-0.7746769573399293,0.2464059583714185,68.60345161638872,0.0
1739,-0.7589777427485095,0.2622016989279602,68.5645143500724,0.0
1740,-0.7430017200402357,0.2783888597169479,68.52724600067052,0.0
1741,-0.7269825170961995,0.2946368585827459,68.49168102586151,0.0
1742,-0.711102927802475,0.31064149341725816,68.45785397354888,0.0
1743,-0.6954957454289149,0.3261550741425613,68.42579950010358,0.0
1744,-0.6802445710536303,0.3410180994213552,68.39555238899334,0.0
1745,-0.6653833894082598,0.355190711269797,68.36714756980982,0.0
1746,-0.6508927442361551,0.3687794745632052,68.34062013770537,0.0
1747,-0.6366893903163188,0.38205199287581953,68.316005373252,0.0
1748,-0.6226093555902117,0.39542956381130306,68.29333876273597,0.0
1749,-0.6083920994271244,0.4094477232684923,68.27265601890264,0.0
1750,-0.593682138449726,0.4246771803916242,68.25399310216694,0.0
1751,-0.5780686476753047,0.44160379285661455,68.2373862423058,0.0
1752,-0.5611795695361402,0.4604754616798996,68.22287196065018,0.0
1753,-0.542834537031231,0.48113465195992333,68.21048709279523,0.0
1754,-0.5232428392784967,0.5028652354722232,68.20026881184812,0.0
1755,-0.5032123302283372,0.5242885611384199,68.1922546522346,0.0
1756,-0.48431713692268225,0.5433433602840224,68.18648253408632,0.0
1757,-0.46896212754950545,0.5573756078540331,68.18299078823215,0.0
1758,-0.4602870292231479,0.5633479010775144,68.18181818181819,1.0
1759,-0.4618778213573048,0.5581555707241163,68.18609350677089,0.0
1760,-0.4772970709254618,0.5390128954071813,68.19877327765356,0.0
1761,-0.5094994604452106,0.5038529291193664,68.21964260422399,0.0
1762,-0.5602474016484004,0.45167393295122915,68.24849206401412,0.0
1763,-0.6296648297507946,0.3827679434413801,68.28511719648705,0.0
1764,-0.7160504747130937,0.2987834510673679,68.32931801842838,0.0
1765,-0.8160138256316064,0.2026019273161399,68.38089855891495,0.0
1766,-0.9249138171781025,0.0980414685349206,68.4396664123497,0.0
1767,-1.0375013207646873,-0.010567089939311852,68.50543230818283,0.0
1768,-1.1486213461690857,-0.11886260958898676,68.5780096960644,0.0
1769,-1.25383363697638,-0.2229155324430397,68.65721434528773,0.0
1770,-1.349852048271674,-0.31959540703587636,68.74286395749182,0.0
1771,-1.4347581978007353,-0.4067894910814329,68.83477779169117,0.0
1772,-1.5079890893171384,-0.4834467742852693,68.93277630079756,0.0
1773,-1.5701239892467889,-0.5494543901975047,69.03668077888817,0.0
1774,-1.6225121296992453,-0.6053833769498895,69.14631301855987,0.0
1775,-1.6668024506030037,-0.6521625147009549,69.26149497779203,0.0
1776,-1.7044607701660535,-0.6907486155148674,69.3820484558177,0.0
1777,-1.7363755019583613,-0.7218576228511577,69.50779477757857,0.0
1778,-1.762643642700426,-0.7458043241762532,69.63855448641223,0.0
1779,-1.7825878178133259,-0.7624730742484244,69.77414704469005,0.0
1780,-1.794993101980492,-0.7714132228189846,69.91439054219323,0.0
1781,-1.7984915889227922,-0.7720271731771553,70.0591014120812,0.0
1782,-1.7919856921391784,-0.7638016264242311,70.2080941543722,0.0
1783,-1.7749991561606764,-0.7465269576827123,70.36118106692052,0.0
1784,-1.7478742711923618,-0.7204563221703744,70.51817198393775,0.0
1785,-1.711781304545766,-0.686372629223369,70.67887402216886,0.0
1786,-1.6685558755944654,-0.6455534678925261,70.84309133489461,0.0
1787,-1.620419015028259,-0.5996460841296676,71.01062487399376,0.0
1788,-1.5696546742751696,-0.5504817816222773,71.18127216035838,0.0
1789,-1.5183174957714272,-0.4998684468744971,71.3548270630155,0.0
1790,-1.4680231485271045,-0.44940025911452824,71.53107958736733,0.0
1791,-1.4198439679669712,-0.4003161260816162,71.70981567301996,0.0
1792,-1.3743055598628469,-0.3534256203362399,71.89081700172872,0.0
1793,-1.3314629963401823,-0.3091065094817817,72.07386081604288,0.0
1794,-1.291028625262597,-0.26736456232525774,72.25871974928909,0.0
1795,-1.2525230307170667,-0.22793657090341438,72.44516166758453,0.0
1796,-1.2154226806292239,-0.19041273828695934,72.632949524624,0.0
1797,-1.1792819155403733,-0.15435487611266596,72.82184123003283,0.0
1798,-1.143814102973363,-0.11939140261773049,73.0115895321263,0.0
1799,-1.1089261066215692,-0.08527745410095461,73.20194191595907,0.0
1800,-1.0747087889244158,-0.051916759611827124,73.39264051758997,0.0
1801,-1.0413918712014,-0.019349579749635193,73.583422055524,0.0
1802,-1.009274637900596,0.012283386941053964,73.77401778032693,0.0
1803,-0.9786467347789336,0.042788507464389974,73.9641534434359,0.0
1804,-0.9497162533695481,0.07196587851655206,74.15354928621201,0.0
1805,-0.9225632298907387,0.09964593897221061,74.34192005029807,0.0
1806,-0.8971324088888428,0.12571153528019544,74.52897501035548,0.0
1807,-0.8732683361309076,0.15010599204159922,74.71441803025625,0.0
1808,-0.8507808845764245,0.17283170336432266,74.89794764380268,0.0
1809,-0.8295158336257846,0.19394552855317812,75.07925716103337,0.0
1810,-0.8093999910893593,0.2135563907190031,75.25803480115182,0.0
1811,-0.790438187960256,0.23182733600119093,75.43396385308223,0.0
1812,-0.7726591141273252,0.24898010960951056,75.60672286461363,0.0
1813,-0.7560304851960037,0.2652966911166452,75.77598586104054,0.0
1814,-0.7403802277553628,0.2811107565393792,75.94142259414225,0.0
1815,-0.725360966147335,0.2967835827137689,76.10269882226598,0.0
1816,-0.7104794850449845,0.3126633238356132,76.25947662218825,0.0
1817,-0.6951881671951257,0.32903265204233134,76.41141473332655,0.0
