,PPG_Raw,PPG_Clean,PPG_Rate,PPG_Peaks
0,-2.530407509809378,-0.4036938029474127,73.85457032140415,0.0
1,-2.5907292746296964,-0.4607697149727097,73.85457032140415,0.0
2,-2.6479282409272136,-0.5155637976552059,73.85457032140415,0.0
3,-2.6995168850861075,-0.5661014453256275,73.85457032140415,0.0
4,-2.7439163310530117,-0.6110287992079588,73.85457032140415,0.0
5,-2.7806838194340497,-0.6497864532821683,73.85457032140415,0.0
6,-2.8105049226861696,-0.6826457318502972,73.85457032140415,0.0
7,-2.8349613544806513,-0.7106048806200123,73.85457032140415,0.0
8,-2.8561367517395273,-0.7351677243727694,73.85457032140415,0.0
9,-2.8761577494886623,-0.7580467737479208,73.85457032140415,0.0
10,-2.8967780651683888,-0.780843238843791,73.85457032140415,0.0
11,-2.919095821872195,-0.8047571189342222,73.85457032140415,0.0
12,-2.9434518665234393,-0.8303729561341668,73.85457032140415,0.0
13,-2.9695013639480403,-0.8575539270233915,73.85457032140415,0.0
14,-2.9964025932136025,-0.8854619281513599,73.85457032140415,0.0
15,-3.0230454221005685,-0.9127064803425354,73.85457032140415,0.0
16,-3.0482551561573556,-0.9376112887551628,73.85457032140415,0.0
17,-3.0709457922894394,-0.9585733090084257,73.85457032140415,0.0
18,-3.090239098661408,-0.9744738317438271,73.85457032140415,0.0
19,-3.105591652288159,-0.9850840265430864,73.85457032140415,0.0
20,-3.1169692362443406,-0.9913905267594757,73.85457032140415,0.0
21,-3.125075830255871,-0.9957548313217202,73.85457032140415,0.0
22,-3.1315907780430865,-1.0018206027636196,73.85457032140415,0.0
23,-3.139308255356656,-1.0141026164642588,73.85457032140415,0.0
24,-3.1520303277215245,-1.0372347189456466,73.85457032140415,0.0
25,-3.1740639781343067,-1.0749205293931723,73.85457032140415,0.0
26,-3.209233412430345,-1.128710904748996,73.85457032140415,0.0
27,-3.2594459482484375,-1.1968098313757158,73.85457032140415,0.0
28,-3.323023408882449,-1.273163814326217,73.85457032140415,0.0
29,-3.393186181277591,-1.347097536088282,73.85457032140415,0.0
30,-3.4571905030170966,-1.4037058274454828,73.85457032140415,0.0
31,-3.4966065125261405,-1.425097147927441,73.85457032140415,0.0
32,-3.489044862450561,-1.3924219258650425,73.85457032140415,0.0
33,-3.411303260595658,-1.2884415505826399,73.85457032140415,0.0
34,-3.2434850314701853,-1.1002422209312268,73.85457032140415,0.0
35,-2.9732662895804656,-0.8216141614977545,73.85457032140415,0.0
36,-2.5992965144861127,-0.4546310906935721,73.85457032140415,0.0
37,-2.13280618069681,-0.010085381776949065,73.85457032140415,0.0
38,-1.5968719676760244,0.4933578728188328,73.85457032140415,0.0
39,-1.023362367482204,1.03117328811904,73.85457032140415,0.0
40,-0.44818922039647674,1.5758026896662045,73.85457032140415,0.0
41,0.09406253667374913,2.09978186275904,73.85457032140415,0.0
42,0.5749049110170491,2.578600296236821,73.85457032140415,0.0
43,0.9750828341535183,2.9928048045662154,73.85457032140415,0.0
44,1.285502495158615,3.3290438912313305,73.85457032140415,0.0
45,1.5059704262065186,3.5799982444966596,73.85457032140415,0.0
46,1.6423119921960985,3.743392207951277,73.85457032140415,0.0
47,1.702791725518647,3.820470715400405,73.85457032140415,1.0
48,1.6948345245507195,3.814411790988418,73.8586231767259,0.0
49,1.6228639973283898,3.7291093258857133,73.86267524117785,0.0
50,1.4877218159155972,3.5686181117546862,73.86672527858654,0.0
51,1.2877151426676678,3.3373428575782813,73.8707720522365,0.0
52,1.02094036791246,3.0408304301026714,73.87481432487121,0.0
53,0.6882122449918953,2.686846602161138,73.87885085869429,0.0
54,0.2957491455140524,2.286329499958142,73.88288041537116,0.0
55,-0.14321333992324434,1.8538329857895093,73.88690175603104,0.0
56,-0.6084625438609256,1.407197691764613,73.89091364126949,0.0
57,-1.0746594987146159,0.9663826297201197,73.89491483115125,0.0
58,-1.514666969920069,0.551606049002761,73.8989040852136,0.0
59,-1.9036117101192769,0.18112578710729155,73.90288016246996,0.0
60,-2.2227313431443294,-0.13090838235762992,73.90684182141423,0.0
61,-2.462110079564692,-0.376099107392159,73.9107878200252,0.0
62,-2.6216990139942475,-0.5526134064469629,73.91471691577154,0.0
63,-2.7104563246254822,-0.6650086714166812,73.91862786561727,0.0
64,-2.7439039794669977,-0.7231236418042525,73.92251942602752,0.0
65,-2.7407543310107565,-0.7402693933678302,73.92639035297475,0.0
66,-2.7194204105001387,-0.7310780914375236,73.93023940194554,0.0
67,-2.695156789554506,-0.7094053607914624,73.93406532794747,0.0
68,-2.678323983456546,-0.6866346443091157,73.93786688551675,0.0
69,-2.67392558747006,-0.6706181707898986,73.94164282872616,0.0
70,-2.682247670797639,-0.6653416940683238,73.94539191119331,0.0
71,-2.700219716610154,-0.671255183062044,73.94911288608942,0.0
72,-2.7230465642524133,-0.6860996441877617,73.95280450614862,0.0
73,-2.7457130464732096,-0.7059996003501459,73.95646552367741,0.0
74,-2.7640929583013523,-0.7265852623197105,73.96009469056476,0.0
75,-2.775552487380123,-0.7439490642593296,73.96369075829261,0.0
76,-2.7790819285582495,-0.7553106142772719,73.96725247794673,0.0
77,-2.775086210230321,-0.7593422220209068,73.97077860022796,0.0
78,-2.764999538710364,-0.756176552345685,73.97426787546401,0.0
79,-2.7508686085875627,-0.747167150744089,73.97771905362168,0.0
80,-2.734995357457868,-0.7344972799330273,73.9811308843193,0.0
81,-2.7196716124090106,-0.7207346322694872,73.98450211683979,0.0
82,-2.706994389946385,-0.7084149762827454,73.98783150014417,0.0
83,-2.6987309772443986,-0.6997139647396469,73.99111778288534,0.0
84,-2.6962070201183703,-0.6962396825740359,73.99435971342233,0.0
85,-2.700211881826661,-0.6989535556921649,73.99755603983516,0.0
86,-2.7109411083318316,-0.7082063644017073,74.0007055099398,0.0
87,-2.728010660727511,-0.7238602398594528,74.00380687130384,0.0
88,-2.750570363706302,-0.7454570953944544,74.00685887126248,0.0
89,-2.777514642090042,-0.7723895895805482,74.00986025693487,0.0
90,-2.8077491991064507,-0.8040333921141214,74.01280977524102,0.0
91,-2.8404407819565223,-0.8398099891326266,74.01570617291908,0.0
92,-2.8751686265751557,-0.879167192319992,74.01854819654294,0.0
93,-2.911917220162724,-0.9214876713223384,74.02133459254046,0.0
94,-2.9508972056105702,-0.9659598026318963,74.02406410721193,0.0
95,-2.992241125797402,-1.0114638926422237,74.02673548674912,0.0
96,-3.035672486645398,-1.0565341021578043,74.0293474772546,0.0
97,-3.0802695611302884,-1.0994474652518766,74.03189882476165,0.0
98,-3.124428711790527,-1.1384648979964522,74.03438827525443,0.0
99,-3.166080652177459,-1.1722081652467273,74.03681457468866,0.0
100,-3.2031439577951692,-1.200109134333657,74.03917646901284,0.0
101,-3.2341324164524146,-1.2228244920534515,74.04147270418959,0.0
102,-3.258779499591475,-1.2424829556723211,74.04370202621774,0.0
103,-3.2785102666625603,-1.2626338672168667,74.04586318115466,0.0
104,-3.2965824586941266,-1.2878023922847928,74.04795491513902,0.0
105,-3.31774187322107,-1.3226267342775158,74.04997597441412,0.0
106,-3.347302704654369,-1.3706476676734236,74.0519251053514,0.0
107,-3.3896773917792555,-1.4329228583993716,74.05380105447459,0.0
108,-3.4465344595689076,-1.5067245621287793,74.05560256848419,0.0
109,-3.5149281570417856,-1.5846247036873766,74.05732839428234,0.0
110,-3.5858727676620386,-1.6542560646951672,74.05897727899824,0.0
111,-3.643871733396198,-1.698953341776897,74.06054797001381,0.0
112,-3.667811921140946,-1.6993299304504024,74.06203921498991,0.0
113,-3.6333825083770015,-1.6356593887981354,74.0634497618929,0.0
114,-3.516810222628944,-1.4907427098338064,74.06477835902172,0.0
115,-3.2993043316279884,-1.2527982849366786,74.06602375503523,0.0
116,-2.9712978686455545,-0.9178508178158766,74.06718469898009,0.0
117,-2.535475525606359,-0.4911426684552599,74.06825994031908,0.0
118,-2.007760863150227,0.012753908351400889,74.06924822895971,0.0
119,-1.415873748964033,0.5712094030842696,74.07014831528326,0.0
120,-0.7956490020502798,1.1560129978250198,74.07095895017443,0.0
121,-0.18586113940551083,1.7366314166460537,74.07167888505114,0.0
122,0.37733400427540426,2.2836759336344503,74.0723068718949,0.0
123,0.8651554550665099,2.771970180588824,74.07284166328155,0.0
124,1.259198364955938,3.182709072100074,74.0732820124124,0.0
125,1.5521928534489493,3.5044045015197374,74.07362667314578,0.0
126,1.7465888351643173,3.732578298252977,74.07387440002904,0.0
127,1.8515223200911735,3.868425690862269,74.07402394833086,0.0
128,1.8790196084202262,3.916873342666096,74.07407407407408,1.0
129,1.8403715918660517,3.8845510086411594,74.07407407407408,0.0
130,1.7434891798808956,3.778166862510139,74.07407407407408,0.0
131,1.591786220605314,3.6036346102534056,74.07407407407408,0.0
132,1.384777266750154,3.366082544212272,74.07407407407408,0.0
133,1.1201742562136825,3.070634435324758,74.07407407407408,0.0
134,0.796890786499158,2.723647569996074,74.07407407407408,0.0
135,0.41810911752533747,2.333973024707712,74.07407407407408,0.0
136,-0.006483638679744316,1.9137954925264022,74.07407407407408,0.0
137,-0.45999661849014445,1.4787153413642442,74.07407407407408,0.0
138,-0.9194973381104521,1.0469272305319357,74.07407407407408,0.0
139,-1.3588785724094816,0.637579624155159,74.07407407407408,0.0
140,-1.752821933870431,0.2686107956871341,74.07407407407408,0.0
141,-2.080945672861853,-0.045502631919744574,74.07407407407408,0.0
142,-2.3311511328203176,-0.2956128377890058,74.07407407407408,0.0
143,-2.501367717492694,-0.4789882548881862,74.07407407407408,0.0
144,-2.5992980583667413,-0.5993938093092301,74.07407407407408,0.0
145,-2.6402750303693785,-0.6661530802714308,74.07407407407408,0.0
146,-2.6438118502698496,-0.6923936742924754,74.07407407407408,0.0
147,-2.629715523740747,-0.6928350600410835,74.07407407407408,0.0
148,-2.614664357354805,-0.681548212867485,74.07407407407408,0.0
149,-2.609935916089793,-0.6700886985326913,74.07407407407408,0.0
150,-2.6206049919023835,-0.6662937658108072,74.07407407407408,0.0
151,-2.646136674449835,-0.6738727757340617,74.07407407407408,0.0
152,-2.68198664214714,-0.692750534711062,74.07407407407408,0.0
153,-2.7216556693823946,-0.7199836574428222,74.07407407407408,0.0
154,-2.7586459474621283,-0.7509877045885531,74.07407407407408,0.0
155,-2.78790689837166,-0.7807972053389048,74.07407407407408,0.0
156,-2.8065769505585165,-0.8051245324753008,74.07407407407408,0.0
157,-2.8140487350293872,-0.821067191015171,74.07407407407408,0.0
158,-2.8115432560690388,-0.8274110644631587,74.07407407407408,0.0
159,-2.801442930207453,-0.8245657230433201,74.07407407407408,0.0
160,-2.786611974176119,-0.8142301501802057,74.07407407407408,0.0
161,-2.7698583967324524,-0.7989157788195931,74.07407407407408,0.0
162,-2.7536028058250968,-0.7814502456492438,74.07407407407408,0.0
163,-2.73974476494689,-0.764558033627079,74.07407407407408,0.0
164,-2.7296732623570326,-0.7505744946572729,74.07407407407408,0.0
165,-2.724355980925839,-0.7413086546647417,74.07407407407408,0.0
166,-2.724453349324676,-0.7380361152930023,74.07407407407408,0.0
167,-2.7304234434927857,-0.7415810513150799,74.07407407407408,0.0
168,-2.7426008144612393,-0.752437033740424,74.07407407407408,0.0
169,-2.7612419284655143,-0.7708788441449471,74.07407407407408,0.0
170,-2.786534390423131,-0.7970287580772837,74.07407407407408,0.0
171,-2.818570387940224,-0.8308576293316962,74.07407407407408,0.0
172,-2.857288729939548,-0.8721202844044808,74.07407407407408,0.0
173,-2.9023944938690254,-0.9202433846362851,74.07407407407408,0.0
174,-2.95327037973101,-0.9741995234497032,74.07407407407408,0.0
175,-3.008898817101415,-1.0324116114002697,74.07407407407408,0.0
176,-3.067816895790583,-1.0927344477263738,74.07407407407408,0.0
177,-3.1281253063474144,-1.152553987088976,74.07407407407408,0.0
178,-3.1875680713477372,-1.209028103585212,74.07407407407408,0.0
179,-3.2436949284184444,-1.2594658789992303,74.07407407407408,0.0
180,-3.2941144037310113,-1.3018078689565482,74.07407407407408,0.0
181,-3.336838757312604,-1.3351322633239469,74.07407407407408,0.0
182,-3.370703394771001,-1.3600788328120117,74.07407407407408,0.0
183,-3.395807116570506,-1.3790634577566117,74.07407407407408,0.0
184,-3.4138701721623543,-1.396160531009394,74.07407407407408,0.0
185,-3.4283608535598065,-1.41656592285439,74.07407407407408,0.0
186,-3.4442214704207346,-1.4456213916843526,74.07407407407408,0.0
187,-3.4670534835602513,-1.4874761563466978,74.07407407407408,0.0
188,-3.5017143520817893,-1.5435673923964526,74.07407407407408,0.0
189,-3.550435890055489,-1.611195221292678,74.07407407407408,0.0
190,-3.6107735656983433,-1.6825219745242146,74.07407407407408,0.0
191,-3.6738875438914147,-1.7443155664097287,74.07407407407408,0.0
192,-3.723764910012178,-1.778668818646696,74.07407407407408,0.0
193,-3.737941503674567,-1.7647642543746658,74.07407407407408,0.0
194,-3.690025886806293,-1.6815418685618706,74.07407407407408,0.0
195,-3.5538869458012865,-1.5109090084589323,74.07407407407408,0.0
196,-3.308840685635057,-1.240960210484077,74.07407407407408,0.0
197,-2.944725617437355,-0.868600751605017,74.07407407407408,0.0
198,-2.4655684734202086,-0.4010226096031925,74.07407407407408,0.0
199,-1.890733058796382,0.14433278858569065,74.07407407407408,0.0
200,-1.2530119372415063,0.7414069039732905,74.07407407407408,0.0
201,-0.5939158265900656,1.358513049484305,74.07407407407408,0.0
202,0.04281144785539506,1.9621620407470184,74.07407407407408,0.0
203,0.6179348102312869,2.5210312596154174,74.07407407407408,0.0
204,1.102169394182164,3.0093625093787386,74.07407407407408,0.0
205,1.4791784905342826,3.4092105883400805,74.07407407407408,0.0
206,1.7456924527324795,3.7112252123642535,74.07407407407408,0.0
207,1.909064533476022,3.9139698250266703,74.07407407407408,0.0
208,1.9831476133525368,4.02208518823708,74.07407407407408,0.0
209,1.9836400617777796,4.043823839391768,74.07407407407408,1.0
210,1.9240103471996635,3.9885678955981225,74.0744991736787,0.0
211,1.8128436378120591,3.864885157413779,74.07576021213445,0.0
212,1.6530534724722081,3.6794990397109624,74.07783583917528,0.0
213,1.442954946504597,3.4372952700712727,74.08070475443789,0.0
214,1.1787835661255657,3.1422250476306086,74.08434570283062,0.0
215,0.857939793884507,2.798751676448425,74.08873747003169,0.0
216,0.48209852519191426,2.4133717989937375,74.09385887811574,0.0
217,0.05937016400444032,1.995744856809966,74.09968878130711,0.0
218,-0.3950726186497134,1.5590785849061042,74.1062060618587,0.0
219,-0.8601215104544278,1.119611971847428,74.1133896260555,0.0
220,-1.311399775622496,0.6952609343808446,74.12121840034153,0.0
221,-1.7248645142592496,0.3036918972372685,74.12967132756974,0.0
222,-2.080495908552335,-0.039781297644409186,74.13872736337345,0.0
223,-2.365211876689446,-0.32404810035300813,74.14836547265912,0.0
224,-2.574371462276243,-0.5434358046279602,74.15856462621983,0.0
225,-2.711622200011883,-0.6981068387136173,74.16930379746834,0.0
226,-2.787277127960014,-0.7935793331698722,74.18056195929023,0.0
227,-2.815741204427391,-0.8395076134999863,74.19231808101569,0.0
228,-2.8126566517466043,-0.8479908742407369,74.20455112551056,0.0
229,-2.7923890780777296,-0.8317410303949173,74.21724004638577,0.0
230,-2.7662830692510485,-0.8024291319654874,74.2303637853252,0.0
231,-2.7418593512002603,-0.7694560489537735,74.24390126953205,0.0
232,-2.722883545761108,-0.7392819118458586,74.25783140929326,0.0
233,-2.7100649741697986,-0.7153290185519693,74.27213309566251,0.0
234,-2.7020716335889894,-0.6983704554539165,74.28678519826131,0.0
235,-2.6965731201611773,-0.6872488219560953,74.30176656319888,0.0
236,-2.691115872056746,-0.6797426774808474,74.3170560111104,0.0
237,-2.6837455366123035,-0.673409221285609,74.3326323353145,0.0
238,-2.6733756676635805,-0.6662700502469949,74.3484743000897,0.0
239,-2.6599420855819975,-0.6572595637433686,74.36456063907043,0.0
240,-2.6443872082486335,-0.646410317934563,74.38087005376293,0.0
241,-2.6285094151215698,-0.6347969261275807,74.39738121218133,0.0
242,-2.6147052654972804,-0.6242942685817532,74.41407274760446,0.0
243,-2.605633705469076,-0.617224600585713,74.43092325745384,0.0
244,-2.6038414891045516,-0.6159720486485445,74.44791130229316,0.0
245,-2.6114037139148305,-0.6226341076774027,74.46501540495007,0.0
246,-2.6296430957391466,-0.638761311890115,74.48221404976042,0.0
247,-2.658984533350309,-0.6652121466024449,74.49948568193608,0.0
248,-2.698972428251164,-0.70212481368141,74.51680870705623,0.0
249,-2.7484352590747885,-0.7489850459086165,74.53416149068322,0.0
250,-2.805742701146073,-0.8047536854721437,74.55152235810348,0.0
251,-2.869080700161689,-0.8680119137405345,74.56886959419388,0.0
252,-2.9366743196878096,-0.9370867249972403,74.58618144341449,0.0
253,-3.0069119465670666,-1.010133175795815,74.60343610992815,0.0
254,-3.0783585222598524,-1.085169744518422,74.62061175784737,0.0
255,-3.1496804024554725,-1.1600839565453676,74.63768651160946,0.0
256,-3.2195307655651066,-1.2326418995091504,74.65463845648036,0.0
257,-3.286454309446976,-1.30054258314212,74.67144563918757,0.0
258,-3.348861220888551,-1.3615531192487422,74.68808606868318,0.0
259,-3.4050990650185216,-1.413742639122569,74.7045377170371,0.0
260,-3.453627361181284,-1.4558037809597337,74.72077852046145,0.0
261,-3.4932797296852156,-1.4874153642025214,74.73678638046628,0.0
262,-3.5235817790491755,-1.5095658514695354,74.75253916514748,0.0
263,-3.5450742234437276,-1.5247332604021104,74.76801471060689,0.0
264,-3.55956690769821,-1.5368123294100018,74.78319082250555,0.0
265,-3.5702233486252433,-1.5507011303466203,74.79804527775008,0.0
266,-3.5813567407708886,-1.5715099890327346,74.8125558263127,0.0
267,-3.5978228899576985,-1.6034322311980564,74.82670019318539,0.0
268,-3.6239425764223165,-1.6484079502722437,74.84045608046792,0.0
269,-3.6619904259922738,-1.7048003446490427,74.85380116959064,0.0
270,-3.7104462585256566,-1.7663660363473617,74.86671312367176,0.0
271,-3.76238413722863,-1.8218131391771963,74.87916959000924,0.0
272,-3.80450967270776,-1.8551873912998587,74.89114820270751,0.0
273,-3.8173717312058986,-1.847204413360318,74.90262658543892,0.0
274,-3.777114895875945,-1.7774698116114052,74.91358235433977,0.0
275,-3.658799994336669,-1.6273309151155304,74.92399312104088,0.0
276,-3.44086790828503,-1.3829293089204362,74.93383649583231,0.0
277,-3.1098869640999633,-1.0379188991939705,74.94309009096217,0.0
278,-2.6644653264104847,-0.5953159172101843,74.9517315240688,0.0
279,-2.1172550257646834,-0.06806806958558076,74.95973842174612,0.0
280,-1.4943590130412148,0.5218465303002724,74.96708842324153,0.0
281,-0.8320878892387452,1.1456986332897823,74.97375918428548,0.0
282,-0.17170642279971798,1.7712969733982762,74.97972838105244,0.0
283,0.4466632915150403,2.3667129685531836,74.98497371425178,0.0
284,0.9896240806605024,2.90378157179931,74.98947291334834,0.0
285,1.434404863448542,3.3607759764495486,74.99320374091099,0.0
286,1.770400527013546,3.7238402381850966,74.99614399708842,0.0
287,1.9982762463959705,3.987035306736635,74.99827152421096,0.0
288,2.1271070233728833,4.151146833682818,74.99956421151654,0.0
289,2.1703892256877517,4.221650423955621,75.0,1.0
290,2.141908982778391,4.2063774075005735,74.99957486114306,0.0
291,2.0523947500697886,4.11344226230122,74.99831358542652,0.0
292,1.9076497056671846,3.949882652687191,74.99623742394674,0.0
293,1.7084980735253357,3.721254935291597,74.99336767716298,0.0
294,1.452454095659815,3.432173514715513,74.9897256903366,0.0
295,1.1366194020914653,3.0875422417187317,74.98533284908454,0.0
296,0.7610204588565531,2.6940558870199025,74.98021057504825,0.0
297,0.33147829402357437,2.261487812669206,74.97438032167932,0.0
298,-0.13880776707062162,1.8033384115453268,74.96786357014311,0.0
299,-0.6294853803698168,1.3365811419068012,74.96068182534125,0.0
300,-1.115157274722334,0.8804680172903024,74.95285661205423,0.0
301,-1.5689485892314785,0.4545888215651577,74.94440947120461,0.0
302,-1.9667060799282408,0.07656203964206076,74.93536195624205,0.0
303,-2.290822314527068,-0.24017232051076598,74.92573562965048,0.0
304,-2.532786619079521,-0.48800643093646867,74.91555205957822,0.0
305,-2.693924704109968,-0.6659342414335518,74.90483281659156,0.0
306,-2.7842748473035153,-0.7792969108763617,74.8935994705522,0.0
307,-2.8199996332033073,-0.8385766802031465,74.88187358761897,0.0
308,-2.820021303145879,-0.8574970849867504,74.86967672737403,0.0
309,-2.802645409830287,-0.8508061654636936,74.85703044007393,0.0
310,-2.7828265666583003,-0.8321512295126143,74.84395626402555,0.0
311,-2.770497812634372,-0.812400102174956,74.8304757230872,0.0
312,-2.7701045420999697,-0.7986448705567443,74.81661032429456,0.0
313,-2.7812193972680093,-0.7939720214255845,74.80238155561184,0.0
314,-2.7999184226421208,-0.7979327622973064,74.7878108838079,0.0
315,-2.820505617893867,-0.8075292207415644,74.77291975245704,0.0
316,-2.837188649609658,-0.8184651371652458,74.7577295800646,0.0
317,-2.845407187649249,-0.826399233759908,74.74226175831693,0.0
318,-2.8426525393035256,-0.8279789507730576,74.7265376504554,0.0
319,-2.828749879522584,-0.821506236794101,74.71057858977441,0.0
320,-2.805674623986267,-0.8071761517760936,74.69440587824265,0.0
321,-2.777031861349944,-0.7869144493738432,74.67804078524773,0.0
322,-2.7473450358813367,-0.7639074259340716,74.66150454646319,0.0
323,-2.721289308934117,-0.7419574575084527,74.64481836283797,0.0
324,-2.7029826473203484,-0.7248082536400633,74.62800339970751,0.0
325,-2.695426209840653,-0.7155676624633771,74.61108078602619,0.0
326,-2.7001661111574444,-0.7163193889827008,74.59407161372049,0.0
327,-2.7172220385332784,-0.727966976118185,74.57699693716228,0.0
328,-2.7452863367313283,-0.7503033398556348,74.55987777276214,0.0
329,-2.7821438524011146,-0.7822559931181617,74.5427350986813,0.0
330,-2.825213801302447,-0.822229064475942,74.5255898546627,0.0
331,-2.872087644617221,-0.8684528013675955,74.50846294197957,0.0
332,-2.920940626986562,-0.9192604541531905,74.49137522350185,0.0
333,-2.9707282072055112,-0.9732385682278892,74.47434752387927,0.0
334,-3.0211342588470576,-1.0292337694291813,74.45740062984083,0.0
335,-3.072303207082501,-1.0862388945812498,74.44055529060999,0.0
336,-3.124446491525817,-1.1432149374160057,74.42383221843515,0.0
337,-3.177447066200628,-1.1989250331987986,74.40725208923477,0.0
338,-3.2305828085479256,-1.2518576044861103,74.39083554335659,0.0
339,-3.282452789208891,-1.300296627044352,74.3746031864507,0.0
340,-3.331133968267813,-1.3425606313732965,74.3585755904555,0.0
341,-3.374538996338478,-1.377385066918098,74.34277329469658,0.0
342,-3.4109027064169606,-1.4043741842495214,74.32721680709793,0.0
343,-3.439300932548398,-1.4244090311356201,74.31192660550458,0.0
344,-3.4600975217528824,-1.4398775696052235,74.29692313911738,0.0
345,-3.475215943891904,-1.4545993607420145,74.2822268300383,0.0
346,-3.4881336896651893,-1.4733550788563898,74.26785807492689,0.0
347,-3.503501942494144,-1.5009992908399346,74.25383724676723,0.0
348,-3.526314046817618,-1.5412257977114368,74.240184696745,0.0
349,-3.560606397244686,-1.5951536543406712,74.2269207562349,0.0
350,-3.6077896153616624,-1.6599881205010558,74.21406573889794,0.0
351,-3.6648666316022767,-1.7280608871190857,74.2016399428884,0.0
352,-3.7229554852440008,-1.7865470562884438,74.18966365317095,0.0
353,-3.7666321827379474,-1.818080394498479,74.17815714394717,0.0
354,-3.774574843487421,-1.8023457387986836,74.16714068119231,0.0
355,-3.7217834277528996,-1.718538211159424,74.15663452530158,0.0
356,-3.5832816748959733,-1.5483795076384643,74.14665893384706,0.0
357,-3.3387591348900583,-1.2792181087780679,74.13723416444454,0.0
358,-2.977218715784832,-0.9066576899075705,74.12838047773128,0.0
359,-2.500512604172326,-0.43618726824057646,74.12011814045474,0.0
360,-1.9247822632518419,0.11656582003350424,74.11246742867266,0.0
361,-1.2792661648403116,0.7270960175348686,74.10544863106533,0.0
362,-0.6025805293209481,1.364639169622334,74.09908205236019,0.0
363,0.06278617908024692,1.9957263835480177,74.09338801686978,0.0
364,0.6765919077881183,2.588056174470489,74.0883868721436,0.0
365,1.2062878600236264,3.1140055394410684,74.08409899273472,0.0
366,1.6307204583933772,3.5531812250440256,74.08054478408211,0.0
367,1.9414595030802524,3.8936199896077746,74.0777446865097,0.0
368,2.1416670235461317,4.131534200425249,74.0757191793432,0.0
369,2.2429400906016608,4.2698013921024796,74.07448878514573,0.0
370,2.260961058890609,4.315645433548665,74.07407407407408,1.0
371,2.2110030355947186,4.278097829681563,74.07407407407408,0.0
372,2.104325119196847,4.165831173940168,74.07407407407408,0.0
373,1.946249840638909,3.9858256512959036,74.07407407407408,0.0
374,1.736296847555031,3.743097551524185,74.07407407407408,0.0
375,1.4702482944742072,3.4414426253490453,74.07407407407408,0.0
376,1.1435527116442363,3.0848928809490728,74.07407407407408,0.0
377,0.7551354271990943,2.6794129709296177,74.07407407407408,0.0
378,0.3105563565193252,2.234311142177572,74.07407407407408,0.0
379,-0.17640762312048605,1.7629194570291469,74.07407407407408,0.0
380,-0.684282578258846,1.2822862586983887,74.07407407407408,0.0
381,-1.186479157526228,0.8118720475014203,74.07407407407408,0.0
382,-1.6553213636966808,0.3714857918999106,74.07407407407408,0.0
383,-2.06651314186687,-0.02111763870152661,74.07407407407408,0.0
384,-2.4029461887232637,-0.35247900373330776,74.07407407407408,0.0
385,-2.656986426302955,-0.6150549979573547,74.07407407407408,0.0
386,-2.830830043068713,-0.8079003880473784,74.07407407407408,0.0
387,-2.9350275343121117,-0.9363022092480116,74.07407407407408,0.0
388,-2.9856815399453422,-1.0104754356959837,74.07407407407408,0.0
389,-3.001043260041507,-1.0436103428971037,74.07407407407408,0.0
390,-2.9982512015281224,-1.0496674220538584,74.07407407407408,0.0
391,-2.9908147817996893,-1.0413302657515584,74.07407407407408,0.0
392,-2.987203931178422,-1.0284565475736611,74.07407407407408,0.0
393,-2.990628235437276,-1.0172362658669605,74.07407407407408,0.0
394,-2.9998376973930623,-1.0101092060578094,74.07407407407408,0.0
395,-3.0106033711308804,-1.0063456645755577,74.07407407407408,0.0
396,-3.017465910176829,-1.0030846591617468,74.07407407407408,0.0
397,-3.0153673110560133,-0.9965689015831656,74.07407407407408,0.0
398,-3.0008774038960224,-0.9833187332688451,74.07407407407408,0.0
399,-2.972858387992498,-0.9610387785553726,74.07407407407408,0.0
400,-2.9325485466744317,-0.9291336683067251,74.07407407407408,0.0
401,-2.883164238859373,-0.8888019119864524,74.07407407407408,0.0
402,-2.8291947243022433,-0.8427604357847008,74.07407407407408,0.0
403,-2.7755853640062527,-0.794712194403897,74.07407407407408,0.0
404,-2.7269776623467896,-0.7486983761913139,74.07407407407408,0.0
405,-2.68712130505277,-0.7084749212437829,74.07407407407408,0.0
406,-2.6585173279940655,-0.6770259275548774,74.07407407407408,0.0
407,-2.6423056281818873,-0.6562831028398092,74.07407407407408,0.0
408,-2.6383752214280283,-0.6470709798379869,74.07407407407408,0.0
409,-2.6456490477526997,-0.649251636229323,74.07407407407408,0.0
410,-2.6624763056745224,-0.6620075512457914,74.07407407407408,0.0
411,-2.6870558972148038,-0.6841816361953762,74.07407407407408,0.0
412,-2.7178149776109772,-0.7145911202664352,74.07407407407408,0.0
413,-2.7536757521859143,-0.7522458427512364,74.07407407407408,0.0
414,-2.7941616276613526,-0.7964282429545859,74.07407407407408,0.0
415,-2.839322246318561,-0.846626789917677,74.07407407407408,0.0
416,-2.889495034035,-0.9023504574349929,74.07407407407408,0.0
417,-2.944961321604525,-0.9628824912988692,74.07407407407408,0.0
418,-3.005585133363159,-1.02705108185216,74.07407407407408,0.0
419,-3.0705310269012065,-1.0930981178390533,74.07407407407408,0.0
420,-3.138140598408352,-1.1587127858212007,74.07407407407408,0.0
421,-3.2060116073495344,-1.2212651511200554,74.07407407407408,0.0
422,-3.27128090082249,-1.2782299170841127,74.07407407407408,0.0
423,-3.331074013026441,-1.3277391914549268,74.07407407407408,0.0
424,-3.383056918151851,-1.3691545822520612,74.07407407407408,0.0
425,-3.4260075708244093,-1.4035140076114305,74.07407407407408,0.0
426,-3.4603088081059092,-1.433697873583463,74.07407407407408,0.0
427,-3.4882425888997792,-1.4641812985230778,74.07407407407408,0.0
428,-3.5139415457535446,-1.5002978300691046,74.07407407407408,0.0
429,-3.542847034777152,-1.5470325164511023,74.07407407407408,0.0
430,-3.580564313521632,-1.6074762556573943,74.07407407407408,0.0
431,-3.6311209639177817,-1.6811880108865118,74.07407407407408,0.0
432,-3.6948243978732602,-1.7627991345526484,74.07407407407408,0.0
433,-3.766139707268921,-1.8412259164621188,74.07407407407408,0.0
434,-3.8321952626566684,-1.8998103529051895,74.07407407407408,0.0
435,-3.8725786415717782,-1.917577589945292,74.07407407407408,0.0
436,-3.860935008898713,-1.8715949805351586,74.07407407407408,0.0
437,-3.7685048202048357,-1.7401778547366453,74.07407407407408,0.0
438,-3.5692021948085353,-1.5064635362638277,74.07407407407408,0.0
439,-3.2452878845853954,-1.1617258021492218,74.07407407407408,0.0
440,-2.792324670085093,-0.7077746697214227,74.07407407407408,0.0
441,-2.222084144690121,-0.15790364611484364,74.07407407407408,0.0
442,-1.562463282566321,0.46390404447556643,74.07407407407408,0.0
443,-0.8541808222619628,1.1254651529079263,74.07407407407408,0.0
444,-0.14484620230290998,1.7901926582892709,74.07407407407408,0.0
445,0.5183274012470463,2.421535389669082,74.07407407407408,0.0
446,1.0955599659261628,2.987261766037724,74.07407407407408,0.0
447,1.5597763754137912,3.4628254499170876,74.07407407407408,0.0
448,1.899066708660446,3.8332542137007355,74.07407407407408,0.0
449,2.1159930476927094,4.093325921287872,74.07407407407408,0.0
450,2.2241514552034927,4.246161161089392,74.07407407407408,0.0
451,2.243005788991872,4.300685252614322,74.07407407407408,1.0
452,2.1923326898370847,4.268619508345749,74.07407407407408,0.0
453,2.087597005329676,4.16170881961121,74.07407407407408,0.0
454,1.937253403198071,3.9897753494455284,74.07407407407408,0.0
455,1.7424506324934996,3.7599411065571373,74.07407407407408,0.0
456,1.4990272613853646,3.47704975297642,74.07407407407408,0.0
457,1.201147377107292,3.1450176027602614,74.07407407407408,0.0
458,0.8455340926124764,2.7686269357630655,74.07407407407408,0.0
459,0.4351104232867528,2.3551900263861647,74.07407407407408,0.0
460,-0.0189882560389145,1.9155741043630767,74.07407407407408,0.0
461,-0.4976226358398555,1.464263621107394,74.07407407407408,0.0
462,-0.9760522925029609,1.0183945789425977,74.07407407407408,0.0
463,-1.42789744160656,0.5959585218823937,74.07407407407408,0.0
464,-1.8296142804664992,0.2135756334105039,74.07407407407408,0.0
465,-2.1643468922969786,-0.11566913474069784,74.07407407407408,0.0
466,-2.4242534169689147,-0.38386223008121156,74.07407407407408,0.0
467,-2.610869113206619,-0.589042352541664,74.07407407407408,0.0
468,-2.733607264220944,-0.7350016382881263,74.07407407407408,0.0
469,-2.8069507876060915,-0.8301979474332963,74.07407407407408,0.0
470,-2.8471375266500085,-0.8860442547286312,74.07407407407408,0.0
471,-2.869145462146773,-0.9149402521265732,74.07407407407408,0.0
472,-2.884570728505645,-0.9284209796326455,74.07407407407408,0.0
473,-2.9006538453518034,-0.9357275465094865,74.07407407407408,0.0
474,-2.9203709444166055,-0.9429830093103557,74.07407407407408,0.0
475,-2.9432741169655845,-0.9530171133506465,74.07407407407408,0.0
476,-2.9666877331773764,-0.9657594219224532,74.07407407407408,0.0
477,-2.986924559822188,-0.9790340985871215,74.07407407407408,0.0
478,-3.000309785413195,-0.9895508948904576,74.07407407407408,0.0
479,-3.003923819106603,-0.9938930451064784,74.07407407407408,0.0
480,-2.996057891961535,-0.9893424971196639,74.07407407407408,0.0
481,-2.976416814293345,-0.9744411283356199,74.07407407407408,0.0
482,-2.9461151440491893,-0.9492487077399109,74.07407407407408,0.0
483,-2.907511038098101,-0.9153130798017974,74.07407407407408,0.0
484,-2.863915852763351,-0.8754085180658228,74.07407407407408,0.0
485,-2.819214671489953,-0.8331217965053146,74.07407407407408,0.0
486,-2.777438236245776,-0.7923728280860031,74.07407407407408,0.0
487,-2.7423376197368414,-0.756950285168172,74.07407407407408,0.0
488,-2.717019093090699,-0.7301259892824781,74.07407407407408,0.0
489,-2.7036885057686306,-0.7143889162921729,74.07407407407408,0.0
490,-2.703532304436926,-0.7113142776737711,74.07407407407408,0.0
491,-2.7167353887184915,-0.7215589824103321,74.07407407407408,0.0
492,-2.7426138848764494,-0.744955149630203,74.07407407407408,0.0
493,-2.7798266843016832,-0.7806609012893052,74.07407407407408,0.0
494,-2.826621552844876,-0.8273241695337464,74.07407407407408,0.0
495,-2.881069016239988,-0.8832212269686397,74.07407407407408,0.0
496,-2.9412420238548727,-0.9463461216148342,74.07407407407408,0.0
497,-3.005312950071464,-1.014447591459518,74.07407407407408,0.0
498,-3.071559762195617,-1.085032269406363,74.07407407407408,0.0
499,-3.138296088855021,-1.155371934163087,74.07407407407408,0.0
500,-3.20376205204457,-1.2225628231640795,74.07407407407408,0.0
501,-3.2660309796317732,-1.2836820568743488,74.07407407407408,0.0
502,-3.322996266983706,-1.3360676050908662,74.07407407407408,0.0
503,-3.3724956772719934,-1.3777148204918421,74.07407407407408,0.0
504,-3.4126028594938997,-1.4077392664727886,74.07407407407408,0.0
505,-3.442070054537156,-1.4268112542714375,74.07407407407408,0.0
506,-3.460850016577375,-1.4374339588185268,74.07407407407408,0.0
507,-3.4705695745507468,-1.4439267005046665,74.07407407407408,0.0
508,-3.474783441881285,-1.4519981115676273,74.07407407407408,0.0
509,-3.478819458814318,-1.4678548526145667,74.07407407407408,0.0
510,-3.489054050324212,-1.4968860389280874,74.07407407407408,0.0
511,-3.511546242470766,-1.5420771835250648,74.07407407407408,0.0
512,-3.550113874623586,-1.6024166634875923,74.07407407407408,0.0
513,-3.604136633494305,-1.671633474298746,74.07407407407408,0.0
514,-3.6665700512051935,-1.7376194668619163,74.07407407407408,0.0
515,-3.7227848147616585,-1.7828236191465772,74.07407407407408,0.0
516,-3.750834107133767,-1.7857581224010237,74.07407407407408,0.0
517,-3.72354600857402,-1.7235453534998715,74.07407407407408,0.0
518,-3.6124368636560997,-1.5752009544795453,74.07407407407408,0.0
519,-3.3929191305586315,-1.32514470306059,74.07407407407408,0.0
520,-3.049782979689324,-0.9663122977794625,74.07407407407408,0.0
521,-2.581649353779805,-0.5022483520711014,74.07407407407408,0.0
522,-2.003168959181776,0.05229279117742491,74.07407407407408,0.0
523,-1.3442077987400511,0.6724474474763524,74.07407407407408,0.0
524,-0.6459990130796077,1.3259242117541024,74.07407407407408,0.0
525,0.04497475762062768,1.9768271077592754,74.07407407407408,0.0
526,0.6840227331543204,2.589945795357074,74.07407407407408,0.0
527,1.2346579452685102,3.134746020096823,74.07407407407408,0.0
528,1.6730333860638134,3.58836714591311,74.07407407407408,0.0
529,1.9895912306756272,3.937156451105916,74.07407407407408,0.0
530,2.1878132379555812,4.176588998115781,74.07407407407408,0.0
531,2.280635164444064,4.3097620809058,74.07407407407408,0.0
532,2.28557311279127,4.344936059219987,74.07407407407408,1.0
533,2.219802104629658,4.292756365254357,74.0739029069769,0.0
534,2.096311590170305,4.163802608749528,74.07339114684011,0.0
535,1.9219079452662395,3.96697475797211,74.07254141233501,0.0
536,1.6973540738959423,3.7089820604118238,74.0713563311936,0.0
537,1.4194404122305944,3.3949098094392984,74.0698385399703,0.0
538,1.084352355486301,3.0295723502468377,74.0679906838049,0.0
539,0.691403672728357,2.6191793615897536,74.06581541618678,0.0
540,0.2461101035130314,2.172785414480584,74.06331539872055,0.0
541,-0.2382690471903096,1.7030681319211232,74.06049330089292,0.0
542,-0.7412001193477307,1.2261641040843894,74.05735179984119,0.0
543,-1.2372942931535995,0.760535020143899,74.0538935801229,0.0
544,-1.7000883208342967,0.32507783994793726,74.05012133348717,0.0
545,-2.1062460201190736,-0.06312592588871657,74.04603775864737,0.0
546,-2.4391652871339686,-0.390946189013921,74.04164556105545,0.0
547,-2.6911834754297446,-0.650783667769176,74.03694745267768,0.0
548,-2.863978472544412,-0.8412840199374958,74.03194615177205,0.0
549,-2.967228904868406,-0.9670727159958421,74.0266443826672,0.0
550,-3.015993313659928,-1.037603209488712,74.0210448755431,0.0
551,-3.027504044029711,-1.065381492926619,74.0151503662132,0.0
552,-3.0181101389516933,-1.0639298948854334,74.00896359590848,0.0
553,-3.0009602834115654,-1.045867448995769,74.00248731106291,0.0
554,-2.984751830619108,-1.02142011179732,73.99572426310093,0.0
555,-2.9735733663198594,-0.9975551975437628,73.98867720822648,0.0
556,-2.9676238507065116,-0.9777932349238587,73.98134890721393,0.0
557,-2.9644566313221272,-0.9626195766039651,73.97374212520064,0.0
558,-2.9603793169136314,-0.9503224993200471,73.9658596314815,0.0
559,-2.951710581374832,-0.9380373365550281,73.95770419930514,0.0
560,-2.935708307636689,-0.9227779809164969,73.94927860567218,0.0
561,-2.9111004251804493,-0.9022783806169016,73.94058563113518,0.0
562,-2.878241855681208,-0.875532059182485,73.93162805960057,0.0
563,-2.8389731432275016,-0.8429904913362712,73.92240867813246,0.0
564,-2.7962702708315503,-0.8064469750130185,73.9129302767583,0.0
565,-2.7537678128386798,-0.7686815413331977,73.90319564827674,0.0
566,-2.715229490251106,-0.7329696404256615,73.89320758806706,0.0
567,-2.684040232927075,-0.7025626027784303,73.88296889390091,0.0
568,-2.662794430257311,-0.6802344101449969,73.87248236575589,0.0
569,-2.6530425832183,-0.667962485575232,73.86175080563106,0.0
570,-2.6552280107807054,-0.6667763977320164,73.85077701736468,0.0
571,-2.668804687175734,-0.676773950778774,73.83956380645374,0.0
572,-2.692490505545644,-0.6972746636504864,73.82811397987572,0.0
573,-2.7245874799388696,-0.7270602341603721,73.81643034591232,0.0
574,-2.7632954613779916,-0.764642464454903,73.80451571397523,0.0
575,-2.8069584981965323,-0.8085015479143922,73.79237289443402,0.0
576,-2.8542091711366653,-0.8572500725204848,73.78000469844615,0.0
577,-2.904007424877947,-0.9096977695996676,73.76741393778899,0.0
578,-2.9555949100065426,-0.9648153907792891,73.75460342469403,0.0
579,-3.008395566489253,-1.0216193872876493,73.74157597168313,0.0
580,-3.0618894270060113,-1.0790187014518506,73.72833439140699,0.0
581,-3.1154786179797647,-1.1356776945742988,73.71488149648565,0.0
582,-3.1683619020477853,-1.1899522107727014,73.70122009935119,0.0
583,-3.2194403112980274,-1.2399468960879299,73.68735301209254,0.0
584,-3.267287740900208,-1.283720263883437,73.67328304630257,0.0
585,-3.3102285392061574,-1.3196307270696435,73.65901301292708,0.0
586,-3.346559279740801,-1.3467757995067589,73.64454572211619,0.0
587,-3.3749256052801275,-1.365434992459818,73.62988398307786,0.0
588,-3.3948148255315527,-1.3773944637581528,73.61503060393348,0.0
589,-3.4070589938641413,-1.386019323847551,73.59998839157569,0.0
590,-3.414181079464286,-1.395957378649212,73.58476015152847,0.0
591,-3.4203844286727096,-1.412411040105607,73.56934868780924,0.0
592,-3.4310064791941195,-1.439999470501308,73.55375680279333,0.0
593,-3.4513451347933186,-1.4813385332318565,73.5379872970805,0.0
594,-3.4849183979014833,-1.5355705623623424,73.52204296936374,0.0
595,-3.5314130720969845,-1.5971524117659763,73.50592661630017,0.0
596,-3.58477217216035,-1.6552320873794186,73.4896410323843,0.0
597,-3.6319992585214087,-1.693892754911308,73.47318900982327,0.0
598,-3.65325262144186,-1.693414370114723,73.45657333841447,0.0
599,-3.62361564365107,-1.6325135006206108,73.43979680542519,0.0
600,-3.5165644611440317,-1.4913063285710448,73.42286219547468,0.0
601,-3.308681080206478,-1.254546867500776,73.40577229041817,0.0
602,-2.984712056375358,-0.914572763630208,73.38852986923321,0.0
603,-2.5418075067868244,-0.4733837484057526,73.37113770790825,0.0
604,-1.9918167705760736,0.05660213067764375,73.3535985793332,0.0
605,-1.3608984099275605,0.6533380964807349,73.33591525319243,0.0
606,-0.6863383573295587,1.287411256198146,73.31809049585982,0.0
607,-0.011179191722848456,1.925410063132246,73.30012707029599,0.0
608,0.6221700973984938,2.5338037008400622,73.28202773594766,0.0
609,1.177925152736662,3.082641191317384,73.26379524864939,0.0
610,1.631239524108899,3.5484293251537657,73.24543236052722,0.0
611,1.9700369283380286,3.9157387214221036,73.22694181990468,0.0
612,2.1942097403708036,4.17737094164139,73.20832637121084,0.0
613,2.3126555806149955,4.333229092700233,73.18958875489062,0.0
614,2.3390616254068948,4.388297489842966,73.17073170731707,1.0
615,2.2875267837147013,4.350293513159323,73.1496156235403,0.0
616,2.169046686100658,4.22757446727712,73.1241733354518,0.0
617,1.9896228515669023,4.027765318260122,73.09451716218794,0.0
618,1.7503474173592457,3.757352967842327,73.06076056137981,0.0
619,1.4493245422373262,3.4222256952015484,73.02301800335891,0.0
620,1.0848208861765476,3.0288881356893276,72.98140484804728,0.0
621,0.6587167453964919,2.585911616837553,72.93603722471434,0.0
622,0.17925667051312652,2.105125289477063,72.88703191476797,0.0
623,-0.33770315277919594,1.6021246051024371,72.83450623773246,0.0
624,-0.8693489158993937,1.0958491332803288,72.77857794055208,0.0
625,-1.3883734507080867,0.6072159417311978,72.719365090344,0.0
626,-1.8667156906666915,0.15702973943991627,72.65698597071105,0.0
627,-2.279744396869142,-0.23642934637870927,72.5915589817103,0.0
628,-2.6099656621233325,-0.5596558344741259,72.52320254356117,0.0
629,-2.849460588762607,-0.8055509695586234,72.4520350041625,0.0
630,-3.0005663794992175,-0.9741113080678456,72.37817455047684,0.0
631,-3.074723552618396,-1.0720463574197685,72.30173912382735,0.0
632,-3.0898205817864617,-1.1114158808904815,72.22284633914113,0.0
633,-3.066672462752918,-1.107566006672536,72.14161340816244,0.0
634,-3.0254025604758903,-1.0767626454784733,72.05815706664791,0.0
635,-2.982442694472925,-1.033949783071416,71.97259350554648,0.0
636,-2.9486600662961564,-0.990999821886871,71.88503830615727,0.0
637,-2.9288250744612743,-0.9556941369652242,71.79560637924934,0.0
638,-2.9223228625434814,-0.9315086246866655,71.70441190811987,0.0
639,-2.924752887364287,-0.9181197146629124,71.61156829555861,0.0
640,-2.929913659543124,-0.9124244309242572,71.5171881146802,0.0
641,-2.9316659254713615,-0.9098046807955456,71.42138306357876,0.0
642,-2.9252945935322687,-0.9053663217155435,71.32426392375366,0.0
643,-2.9081920570740944,-0.894938029547344,71.2259405222495,0.0
644,-2.8798895869483676,-0.875703241235061,71.12652169744882,0.0
645,-2.841610686595494,-0.8464358414148688,71.0261152684516,0.0
646,-2.795586135521802,-0.807394311843587,70.92482800797158,0.0
647,-2.7443612351986646,-0.7599842652833565,70.82276561867623,0.0
648,-2.690264710525692,-0.7063194616724758,70.72003271289478,0.0
649,-2.6351237628910678,-0.6487993634175389,70.61673279561529,0.0
650,-2.5802270208951685,-0.5897864429995238,70.51296825069126,0.0
651,-2.5264761346322504,-0.5314213827076657,70.40884033017538,0.0
652,-2.4746362121962076,-0.47557126581259823,70.30444914669815,0.0
653,-2.425592505095675,-0.42387412561437504,70.1998936688076,0.0
654,-2.3805368696017957,-0.3778276309909887,70.09527171918666,0.0
655,-2.3410346281644654,-0.33887047269507853,69.99067997566414,0.0
656,-2.3089558810126443,-0.30841865490894993,69.88621397493692,0.0
657,-2.286290401603069,-0.2878396214190186,69.78196811891993,0.0
658,-2.2748941340025466,-0.2783686308569703,69.67803568364326,0.0
659,-2.2762292135116455,-0.2809886752694163,69.57450883061622,0.0
660,-2.291154452334663,-0.2963041471410677,69.47147862057982,0.0
661,-2.319803353028228,-0.3244384623403216,69.36903502957107,0.0
662,-2.3615610576620742,-0.3649782334363382,69.26726696722511,0.0
663,-2.4151292396614554,-0.4169742319104477,69.16626229724268,0.0
664,-2.478654511583875,-0.47899585463122635,69.06610785995339,0.0
665,-2.549893187387976,-0.5492245435356469,68.96688949690831,0.0
666,-2.626390756814256,-0.6255652091814194,68.86869207743761,0.0
667,-2.7056618731032183,-0.7057545758509668,68.77159952711285,0.0
668,-2.785358931602985,-0.7874515077413085,68.67569485805578,0.0
669,-2.8634122618325515,-0.8683053987598369,68.5810602010401,0.0
670,-2.9381185947665434,-0.946011919336856,68.48777683933506,0.0
671,-3.008157311410562,-1.0183770857989192,68.39592524424401,0.0
672,-3.0725324639936087,-1.083416529076152,68.3055851122949,0.0
673,-3.1304689023269656,-1.1395131720462137,68.21683540404298,0.0
674,-3.181320118740593,-1.1856410810397777,68.12975438445058,0.0
675,-3.224558098033841,-1.2216367346314074,68.04441966481284,0.0
676,-3.259900218407169,-1.2484658356264435,67.96090824620205,0.0
677,-3.287582367466805,-1.268402357203952,67.87929656440826,0.0
678,-3.3087186448032933,-1.2850175941055673,67.79966053635735,0.0
679,-3.325614315498133,-1.3028814549502004,67.72207560799328,0.0
680,-3.3418453654169618,-1.3269135963283882,67.6466168036148,0.0
681,-3.3619116596722245,-1.3613889825649275,67.57335877666269,0.0
682,-3.3903312663718292,-1.4086926008444145,67.5023758619572,0.0
683,-3.4301763839939228,-1.4680135015724254,67.4337421293915,0.0
684,-3.4812404524738043,-1.5342444006958917,67.36753143909102,0.0
685,-3.538229484297424,-1.597383749421444,67.30381749805437,0.0
686,-3.5895227569173622,-1.6427023845304527,67.24267391829642,0.0
687,-3.6170738678888807,-1.6518298741991564,67.18417427651978,0.0
688,-3.597866776571896,-1.6047480852643248,67.12839217534643,0.0
689,-3.506999014850146,-1.4824818503189863,67.0754013061469,0.0
690,-3.322005261178098,-1.2700932561332943,67.02527551351046,0.0
691,-3.0275939230834887,-0.9594649275318283,66.978088861406,0.0
692,-2.6197056127346428,-0.5513372067480694,66.93391570108895,0.0
693,-2.107834073530291,-0.056161261335168966,66.89283074081729,0.0
694,-1.5149007275425614,0.5064668768978882,66.85490911744516,0.0
695,-0.874554168114223,1.109757504223725,66.82022646997069,0.0
696,-0.22640520437210832,1.72275460755105,66.78885901512128,0.0
697,0.3897805526827272,2.313912934284814,66.7608836250679,0.0
698,0.9396683504194987,2.8545909283751625,66.73637790736717,0.0
699,1.3985405922723553,3.321854648545588,66.71542028723883,0.0
700,1.7532906122147716,3.700146460243272,66.69809009229544,0.0
701,2.0020000297372356,3.9816228860776643,66.68446763984886,0.0
702,2.151463080751721,4.165249409357733,66.67463432692972,0.0
703,2.213460162068428,4.254990934744146,66.66867272316443,0.0
704,2.2007708814447597,4.257599522919774,66.66666666666667,1.0
705,2.1238498085100326,4.180543034506476,66.67200611897184,0.0
706,1.9888372722569478,4.03053570627137,66.68784049624543,0.0
707,1.7972327552475427,3.8129491906420965,66.71390086714575,0.0
708,1.5471864198368377,3.53214638367404,66.7499270120349,0.0
709,1.236011770390795,3.1925466914310405,66.79566661611491,0.0
710,0.8632425073336408,2.8000536614175195,66.85087449988548,0.0
711,0.4334160087003008,2.3633929799849795,66.91531188355916,0.0
712,-0.04218217354375239,1.8949367406006918,66.98874568237235,0.0
713,-0.5453308753439066,1.4107188085757627,67.07094783000635,0.0
714,-1.0523777965772179,0.929543235794162,67.16169462758666,0.0
715,-1.537154244120038,0.4713053186661562,67.26076611596308,0.0
716,-1.9746767597990171,0.054831940058207906,67.36794546918891,0.0
717,-2.3448272501248435,-0.30433814619754507,67.48301840731983,0.0
718,-2.635214108788483,-0.5957964815369111,67.6057726268409,0.0
719,-2.842616283114508,-0.815372627822115,67.7359972472067,0.0
720,-2.972750169021205,-0.9653068474704163,67.87348227214703,0.0
721,-3.038491042202343,-1.0534804504483717,68.01801806454866,0.0
722,-3.0570241277051324,-1.0918818311057532,68.16939483387499,0.0
723,-3.04660407106149,-1.0946230667429766,68.32740213523131,0.0
724,-3.0236184455332102,-1.0758837601883684,68.49182837932297,0.0
725,-3.000496263045498,-1.048138156750265,68.66246035269094,0.0
726,-2.9847420388894474,-1.0209303448990101,68.83908274774225,0.0
727,-2.979092526470487,-1.0003272035911985,69.02147770222328,0.0
728,-2.982555701681362,-0.9890333893444424,69.20942434791382,0.0
729,-2.9919432537252217,-0.9870292598253655,69.40269836844676,0.0
730,-3.00346790693121,-0.9925146724387693,69.60107156628625,0.0
731,-3.0140411832704883,-1.0029195121189403,69.80431143902379,0.0
732,-3.0220466446735483,-1.015772300022136,70.01218076527869,0.0
733,-3.0275304597163935,-1.029286892640126,70.22443720061665,0.0
734,-3.0318967138588695,-1.0426133784365181,70.44083288402783,0.0
735,-3.037288286116123,-1.0557813892829928,70.6611140556342,0.0
736,-3.045867658505226,-1.069424949491994,70.88502068642413,0.0
737,-3.059193514353921,-1.0844078783422577,71.11228612094156,0.0
738,-3.0778320795406913,-1.1014662756494282,71.34263673398631,0.0
739,-3.101263360989096,-1.120955820945,71.57579160251035,0.0
740,-3.1280616701019395,-1.142747521188195,71.81146219402392,0.0
741,-3.156267299864154,-1.1662689343316797,72.04935207295186,0.0
742,-3.1838350794794144,-1.1906502508160233,72.28915662650601,0.0
743,-3.209047034627759,-1.2149137592288388,72.53056281176217,0.0
744,-3.230802381030614,-1.238144110100607,72.77324892574843,0.0
745,-3.248737320268335,-1.2595934537512958,73.01688440046756,0.0
746,-3.263169378506896,-1.2787040052604968,73.26112962488251,0.0
747,-3.27489781002919,-1.2950625154214426,73.50563579599793,0.0
748,-3.2849166421485925,-1.308327589885458,73.7500448012616,0.0
749,-3.294108574955861,-1.3181841736338646,73.99398913459383,0.0
750,-3.3029897209118513,-1.3243750306418551,74.23709184842313,0.0
751,-3.311571588557219,-1.326835923779317,74.47896654416459,0.0
752,-3.3193965877416276,-1.3259232497636806,74.71921740361886,0.0
753,-3.325777990769884,-1.322678376274174,74.9574392637946,0.0
754,-3.3302255288791973,-1.3190335437556304,75.19321773766238,0.0
755,-3.3329649157723287,-1.3178429404739176,75.42612938333104,0.0
756,-3.33538153424684,-1.322630730111681,75.65574192409791,0.0
757,-3.3401666159836276,-1.3369914530436064,75.88161452175778,0.0
758,-3.350952322849537,-1.363654975608156,76.1032981054617,0.0
759,-3.3713129465223877,-1.4033255992053457,76.32033575829297,0.0
760,-3.4031819696497907,-1.453501436471418,76.53226316357159,0.0
761,-3.444956096541348,-1.507548793007464,76.73860911270984,0.0
762,-3.489764319755791,-1.5543214001095877,76.93889607621726,0.0
763,-3.5244938950982743,-1.5785593382217304,77.13264083919279,0.0
764,-3.530117647829473,-1.5621767152963348,77.31935520234472,0.0
765,-3.4836297660216036,-1.486369381421477,77.4985467492437,0.0
766,-3.361501821287115,-1.3342806347952894,77.66971968014133,0.0
767,-3.1441123975126866,-1.093800772597677,77.83237571227609,0.0
768,-2.820221712623451,-0.7599907960216228,77.98601504614277,0.0
769,-2.3903985331495603,-0.3366424208772295,78.13013739671813,0.0
770,-1.8684498837807082,0.16337836640471948,78.26424308812287,0.0
771,-1.2803464347820326,0.7191319975029253,78.38783420965446,0.0
772,-0.6607617634864006,1.3038118405473416,78.50041583055477,0.0
773,-0.04796329641413692,1.8877729886881314,78.60149727028396,0.0
774,0.5217861863273835,2.441835347867422,78.69059342046138,0.0
775,1.0190623731691177,2.9402702064681203,78.7672261140131,0.0
776,1.4243437004599326,3.362968862993366,78.83092553643877,0.0
777,1.7288029118554065,3.696490980541476,78.88123167348645,0.0
778,1.932913851488224,3.933949401669586,78.9176957889085,0.0
779,2.0434726770689298,4.073943499759573,78.93988192537526,0.0
780,2.069945674970363,4.118943632154876,78.94736842105263,1.0
781,2.021125052859742,4.073611616891814,78.94257625096591,0.0
782,1.902913528496769,3.9435011138914957,78.9283494946525,0.0
783,1.7177201505853608,3.73443287982433,78.90491761671653,0.0
784,1.465513060164688,3.452624523707252,78.87251609844743,0.0
785,1.1461409920239491,3.1054289950074714,78.83138590537934,0.0
786,0.762208513201051,2.7023577021442264,78.78177295982854,0.0
787,0.3216476660141565,2.2559767944928133,78.72392762014546,0.0
788,-0.16080065621402262,1.7822890547985057,78.65810416830826,0.0
789,-0.6637200607143862,1.300341296373578,78.58456030737376,0.0
790,-1.1608968185569764,0.830994770156934,78.50355667018503,0.0
791,-1.624632365483151,0.39501350627455845,78.41535634061671,0.0
792,-2.029796043946929,0.0108081261446632,78.32022438852167,0.0
793,-2.35770046087716,-0.3077247399254003,78.21842741942272,0.0
794,-2.5988923675435744,-0.5528292930674535,78.11023313987538,0.0
795,-2.754209328828248,-0.7236502405065047,77.99590993931137,0.0
796,-2.8338912157112945,-0.8259720316033086,77.87572648905879,0.0
797,-2.855025240015772,-0.870994996597361,77.7499513591227,0.0
798,-2.8379934041345103,-0.8733962791708555,77.61885265320454,0.0
799,-2.802770584192635,-0.8490509796849534,77.48269766233302,0.0
800,-2.7658594928407667,-0.8128284498753799,77.34175253738282,0.0
801,-2.738396643331343,-0.7768281724449437,77.19628198066196,0.0
802,-2.725619349764276,-0.7492985901645199,77.04654895666133,0.0
803,-2.727550197925888,-0.7343246944366184,76.89281442197621,0.0
804,-2.740511156451834,-0.7322149053182943,76.73533707433316,0.0
805,-2.7589687842040505,-0.7403982587004024,76.57437312058279,0.0
806,-2.7772407582883516,-0.7545799758164774,76.41017606345508,0.0
807,-2.790730940153151,-0.7699020260670192,76.24299650681222,0.0
808,-2.7965485433664212,-0.7819054602949377,76.07308197908134,0.0
809,-2.7935465489244256,-0.7871731298460846,75.90067677450043,0.0
810,-2.781943076483849,-0.7836212358547222,75.7260218117683,0.0
811,-2.7627494956175602,-0.7704848149795742,75.54935450965216,0.0
812,-2.7372217656936293,-0.748091682841819,75.37090867907433,0.0
813,-2.7064895153173603,-0.7175365391924151,75.1909144311729,0.0
814,-2.671423935529165,-0.6803554095242251,75.00959810080883,0.0
815,-2.6327129595868253,-0.6382697976240951,74.82718218497469,0.0
816,-2.5910518050401956,-0.5930316561663029,74.64388529554716,0.0
817,-2.5473443210480062,-0.5463652974628672,74.45992212581633,0.0
818,-2.5028382338157806,-0.4999779722782256,74.27550343021964,0.0
819,-2.459162131705458,-0.4555999794233502,74.0908360167072,0.0
820,-2.418270601433689,-0.41501683824924335,73.90612275116607,0.0
821,-2.382324446011543,-0.3800666550536235,73.72156257333695,0.0
822,-2.3535359941784124,-0.3525907116613032,73.53735052366356,0.0
823,-2.3340024083208815,-0.33434017541699856,73.35367778052539,0.0
824,-2.3255406594691124,-0.32685347079781846,73.17073170731707,0.0
825,-2.3295323842329636,-0.33132546730375756,72.9886959088521,0.0
826,-2.346787696793268,-0.348490752413522,72.80775029658491,0.0
827,-2.377442521148961,-0.3785394677986783,72.62807116216366,0.0
828,-2.420908912025973,-0.421076881768773,72.4498312588453,0.0
829,-2.4758964070690537,-0.4751289849958288,72.27319989032546,0.0
830,-2.5405121319151016,-0.5391881401378177,72.09834300655778,0.0
831,-2.612430270807374,-0.6112873223428256,71.92542330615969,0.0
832,-2.689103089436914,-0.689090348868403,71.75460034502588,0.0
833,-2.7679725911789514,-0.7699892519666938,71.58603065079471,0.0
834,-2.846640164322397,-0.8512076831112165,71.41986784283785,0.0
835,-2.922964691973824,-0.9299184744266653,71.25626275746892,0.0
836,-2.995085694854126,-1.0033905551499545,71.09536357809273,0.0
837,-3.061398746713264,-1.0691813289673169,70.93731597004252,0.0
838,-3.1205333954370533,-1.1253822777481561,70.78226321987948,0.0
839,-3.1713888966935273,-1.1709071144285637,70.63034637895518,0.0
840,-3.2132666454671934,-1.205785624429299,70.48170441106383,0.0
841,-3.2461035274823735,-1.2313982469313243,70.33647434403942,0.0
842,-3.270764463306301,-1.250565028886158,70.19479142517795,0.0
843,-3.289303613806218,-1.2673973783248733,70.05678928039453,0.0
844,-3.305062904300698,-1.2868399912362922,69.92260007704971,0.0
845,-3.322458849476143,-1.3138769176298095,69.79235469040962,0.0
846,-3.3463320279198308,-1.3524466127051322,69.66618287373004,0.0
847,-3.3808117414861223,-1.4041946964857877,69.54421343198347,0.0
848,-3.4277812711404603,-1.4672717170835066,69.4265743992767,0.0
849,-3.485194920447389,-1.535434435071671,69.31339322003419,0.0
850,-3.5456518499256156,-1.5977125237248362,69.20479693405245,0.0
851,-3.595713304349253,-1.638845389959041,69.1009123655595,0.0
852,-3.6164018612126436,-1.6405765665435386,69.00186631644432,0.0
853,-3.585115590445995,-1.5837323007820685,68.90778576385186,0.0
854,-3.47885170251778,-1.4508376452719067,68.8187980623708,0.0
855,-3.2782485774126298,-1.2288772107595596,68.73503115107482,0.0
856,-2.9716453403310115,-0.9117274988059655,68.65661376571124,0.0
857,-2.558239640122575,-0.5018005254113496,68.5836756563672,0.0
858,-2.049554579185638,-0.010551151383524138,68.51634781097948,0.0
859,-1.468778476347505,0.5423040648059141,68.45476268509327,0.0
860,-0.8480179037544947,1.1307693619767585,68.39905443831579,0.0
861,-0.22397598663867258,1.7254350589401586,68.34935917795259,0.0
862,0.3670816398288842,2.296735898994619,68.3058152103605,0.0
863,0.8940591624858437,2.8180417604117065,68.26856330059826,0.0
864,1.334527501166612,3.2680665714983674,68.2377469410076,0.0
865,1.6763504616036797,3.632235361009491,68.21351262941081,0.0
866,1.9172533051242875,3.9028759595452436,68.19601015767017,0.0
867,2.0626283276545085,4.078349133598744,68.18539291141612,0.0
868,2.12225367425525,4.16144278669301,68.18181818181819,1.0
869,2.106788893937461,4.157485293735663,68.18660520251338,0.0
870,2.0248824771122003,4.072653057348587,68.20080076364215,0.0
871,1.8815240839106824,3.9128569342042026,68.2241621438706,0.0
872,1.677959808626536,3.683415846660473,68.25645346407224,0.0
873,1.4131184204615375,3.3895076581915893,68.29744504840826,0.0
874,1.086126725913201,3.03718012699826,68.34691281342691,0.0
875,0.6991995201232152,2.634557784950335,68.40463768284567,0.0
876,0.26006233043655885,2.192828113332193,68.47040502588811,0.0
877,-0.21683774617255008,1.7266434322855653,68.54400411723717,0.0
878,-0.7107677568693281,1.2537188700751676,68.62522761684332,0.0
879,-1.1967900842040997,0.7936051979563699,68.71387106798987,0.0
880,-1.6490559545567636,0.3658192346399336,68.80973241216952,0.0
881,-2.0445715906573767,-0.012325230062338655,68.91261151946958,0.0
882,-2.3665922138214843,-0.32776370581686987,69.02230973329621,0.0
883,-2.606908996470554,-0.5732003046752675,69.13862942839545,0.0
884,-2.766575863019472,-0.7478041776685291,69.26137358124755,0.0
885,-2.854995658260586,-0.8569573242866891,69.39034535202588,0.0
886,-2.8876524372321386,-0.9111187994590341,69.52534767742023,0.0
887,-2.8830493474736834,-0.9240382627234461,69.66618287373004,0.0
888,-2.859529133536629,-0.9106615604600201,69.81265224973367,0.0
889,-2.8326018276143548,-0.8851031778708404,69.96455572893876,0.0
890,-2.813215883433288,-0.859014574920078,70.12169148091479,0.0
891,-2.80715133504095,-0.8405706195266452,70.28385556150211,0.0
892,-2.815457572640915,-0.834157236544733,70.45084156178528,0.0
893,-2.83565880266045,-0.840704579753272,70.62244026580801,0.0
894,-2.8633397500983757,-0.8585001727452861,70.798439317098,0.0
895,-2.8937142980644484,-0.8842543675604979,70.97862289415878,0.0
896,-2.9228603672804474,-0.9141821859287443,71.16277139517351,0.0
897,-2.9484427997730216,-0.9449048207417055,71.35066113225442,0.0
898,-2.969896076690849,-0.9740452695624199,71.54206403565803,0.0
899,-2.9881590460626057,-1.0004758242141354,71.7367473684738,0.0
900,-3.0051237810596154,-1.0242511663456337,71.93447345237928,0.0
901,-3.0229811752468776,-1.0463150688137353,72.13499940514129,0.0
902,-3.0436281714737037,-1.0680937447835657,72.33807689062631,0.0
903,-3.0682568577153653,-1.0910848573517724,72.54345188216757,0.0
904,-3.0971842115656685,-1.116524573552921,72.75086444021751,0.0
905,-3.1299158316699893,-1.1451762433142014,72.9600485052954,0.0
906,-3.1653825832791673,-1.1772448160509297,73.17073170731707,0.0
907,-3.2022573088923996,-1.2123908478867975,73.38263519246915,0.0
908,-3.2392534662329306,-1.2498030846310608,73.59547346886222,0.0
909,-3.2753260631140626,-1.288290576034525,73.80895427226444,0.0
910,-3.309731792991346,-1.3263708650373855,74.02277845328115,0.0
911,-3.3419518000815516,-1.362353206177477,74.23663988740218,0.0
912,-3.3715255415418928,-1.3944364706159702,74.45022540939122,0.0
913,-3.397874427878726,-1.4208523268664166,74.66321477353414,0.0
914,-3.42019979131518,-1.4400799550299879,74.87528064129948,0.0
915,-3.437520473946813,-1.4511376270517382,75.08608859799025,0.0
916,-3.448877876097899,-1.453922522171022,75.29529719998244,0.0
917,-3.453689645869089,-1.4495312642689338,75.5025580541497,0.0
918,-3.45218432072244,-1.4404611518166952,75.70751593106594,0.0
919,-3.4458041124635104,-1.4305780315044512,75.9098089135554,0.0
920,-3.4374296461778484,-1.4247512803205913,76.10906858212323,0.0
921,-3.4312697485083556,-1.4281042828316513,76.30492023874721,0.0
922,-3.4322834200550205,-1.4449072822732014,76.49698317044064,0.0
923,-3.4450704197243875,-1.4772367156576003,76.68487095390945,0.0
924,-3.472286371470506,-1.523621002807909,76.8681918025193,0.0
925,-3.512800156602597,-1.5779619972978576,77.04654895666133,0.0
926,-3.5599857099286876,-1.629039015143416,77.21954111845808,0.0
927,-3.6006712535231644,-1.6608509270217184,77.3867629315826,0.0
928,-3.615285316808924,-1.6539277184119987,77.54780550677229,0.0
929,-3.5795825327999413,-1.5875612316060395,77.70225699340847,0.0
930,-3.467993549358849,-1.4426991520653236,77.84970319729717,0.0
931,-3.258184721919776,-1.2050634021810527,77.98972824453232,0.0
932,-2.9359641036812665,-0.8679430463568106,78.12191529104466,0.0
933,-2.4993906246746866,-0.4341105569715168,78.24584727714519,0.0
934,-1.960964839688472,0.08356680772819047,78.36110772605412,0.0
935,-1.3471465343455198,0.6630182573466028,78.46728158507571,0.0
936,-0.6950821250974203,1.2752694380159588,78.56395610773004,0.0
937,-0.047153782518796664,1.8877707166186077,78.65072177479172,0.0
938,0.5554435559996969,2.468161494038756,78.72717325181448,0.0
939,1.0786253907843972,2.987794571079783,78.79291038033988,0.0
940,1.4995225043184097,3.4244115673303117,78.84753919960762,0.0
941,1.8079712811858897,3.763562451269274,78.89067299519873,0.0
942,2.0053094493185064,3.998649470111422,78.92193337066497,0.0
943,2.101075856483637,4.1297772463902245,78.94095133782557,0.0
944,2.108662271002588,4.161833481481409,78.94736842105263,1.0
945,2.04109931839521,4.102352334246452,78.94257625096591,0.0
946,1.9079989920929106,3.9596994997734876,78.9283494946525,0.0
947,1.7143038745311936,3.7419745771962494,78.90491761671653,0.0
948,1.4610036716335635,3.4567946285694156,78.87251609844743,0.0
949,1.1474714177060747,3.1118651115786142,78.83138590537934,0.0
950,0.7746533172615916,2.7160266835633484,78.78177295982854,0.0
951,0.3481250724023169,2.2803420862446524,78.72392762014546,0.0
952,-0.11992802906186692,1.8187842496916642,78.65810416830826,0.0
953,-0.6104477299148897,1.3482011106012783,78.58456030737376,0.0
954,-1.0991244596331544,0.8874310984052305,78.50355667018503,0.0
955,-1.5595665245926285,0.4556724394064611,78.41535634061671,0.0
956,-1.967277100214015,0.07041023862059803,78.32022438852167,0.0
957,-2.3035003019532647,-0.25467196069145237,78.21842741942272,0.0
958,-2.5580430140522736,-0.5113528526935877,78.11023313987538,0.0
959,-2.7304476851937927,-0.6977529666752428,77.99590993931137,0.0
960,-2.829307427829075,-0.8182504357847002,77.87572648905879,0.0
961,-2.8699661898587787,-0.8824569509543726,77.7499513591227,0.0
962,-2.8712116450722918,-0.9034702957937948,77.61885265320454,0.0
963,-2.8517510501330983,-0.8957540837438857,77.48269766233302,0.0
964,-2.8272245034180488,-0.8730447797744084,77.34175253738282,0.0
965,-2.808291219003373,-0.8466464964277229,77.19628198066196,0.0
966,-2.8000089548980722,-0.8243624758201228,77.04654895666133,0.0
967,-2.8024111449235654,-0.8101607775364481,76.89281442197621,0.0
968,-2.811943637730657,-0.804518396281429,76.73533707433316,0.0
969,-2.8232925706357324,-0.8052667433731847,76.57437312058279,0.0
970,-2.8311279834663186,-0.8086944480613665,76.41017606345508,0.0
971,-2.8313920705754456,-0.8106576221715027,76.24299650681222,0.0
972,-2.8219404080886163,-0.8074948905283661,76.07308197908134,0.0
973,-2.802543683186218,-0.7966254093724227,75.90067677450043,0.0
974,-2.774418474240948,-0.7767987559918764,75.7260218117683,0.0
975,-2.7395396376868755,-0.7480436900933582,75.54935450965216,0.0
976,-2.699985556929515,-0.7114129760559533,75.37090867907433,0.0
977,-2.657498662589138,-0.668637874823981,75.1909144311729,0.0
978,-2.6133384133220763,-0.6217920689908167,75.00959810080883,0.0
979,-2.568396476007851,-0.5730309572611619,74.82718218497469,0.0
980,-2.5234648455572852,-0.524431615243065,74.64388529554716,0.0
981,-2.4795176193303528,-0.47792335468081626,74.45992212581633,0.0
982,-2.4378891631804156,-0.4352767550500677,74.27550343021964,0.0
983,-2.4002893261550877,-0.39811294408169184,74.0908360167072,0.0
984,-2.3686628940361953,-0.3679024449871334,73.90612275116607,0.0
985,-2.3449507281426634,-0.3459384849499947,73.72156257333695,0.0
986,-2.3308311246874776,-0.3332866433783539,73.53735052366356,0.0
987,-2.3275119815687133,-0.3307255120800394,73.35367778052539,0.0
988,-2.335616274994675,-0.33869839471447183,73.17073170731707,0.0
989,-2.355168405540237,-0.35729347235208425,72.9886959088521,0.0
990,-2.3856609694361826,-0.3862610930447028,72.80775029658491,0.0
991,-2.4261695986864376,-0.42506509716756063,72.62807116216366,0.0
992,-2.475487339089185,-0.47295396274712664,72.4498312588453,0.0
993,-2.532260247635949,-0.5290302221841774,72.27319989032546,0.0
994,-2.595111627089907,-0.5922952723533297,72.09834300655778,0.0
995,-2.662739850539185,-0.6616522996769768,71.92542330615969,0.0
996,-2.733969552653862,-0.7358620385132464,71.75460034502588,0.0
997,-2.8077370783791005,-0.8134624163391068,71.58603065079471,0.0
998,-2.8830036334012616,-0.8926803269715228,71.41986784283785,0.0
999,-2.958611966512457,-0.9713772915338083,71.25626275746892,0.0
1000,-3.0331280815169013,-1.0470758292743887,71.09536357809273,0.0
1001,-3.1047298872319176,-1.1171060367763024,70.93731597004252,0.0
1002,-3.171211352296947,-1.1788903766169354,70.78226321987948,0.0
1003,-3.2301570774367137,-1.2303504864544135,70.63034637895518,0.0
1004,-3.279306179665537,-1.2703782754009019,70.48170441106383,0.0
1005,-3.3170705441479917,-1.2992735846861372,70.33647434403942,0.0
1006,-3.343111710373259,-1.3190233897989883,70.19479142517795,0.0
1007,-3.3588273490602347,-1.3332939460769042,70.05678928039453,0.0
1008,-3.367567267134077,-1.3470354046952817,69.92260007704971,0.0
1009,-3.374403719098066,-1.3656602052665603,69.79235469040962,0.0
1010,-3.3853328914274288,-1.3938457490096021,69.66618287373004,0.0
1011,-3.4058897952316616,-1.4341134883245414,69.54421343198347,0.0
1012,-3.4393116344123302,-1.4854285679174848,69.4265743992767,0.0
1013,-3.484560532771098,-1.5421214318210623,69.31339322003419,0.0
1014,-3.5346701565592973,-1.5934332326170444,69.20479693405245,0.0
1015,-3.5759532193343975,-1.6239179185222468,69.1009123655595,0.0
1016,-3.5885420564169768,-1.6147981653406176,69.00186631644432,0.0
1017,-3.5485040338357754,-1.5461901301574823,68.90778576385186,0.0
1018,-3.431401425803536,-1.39991913953763,68.8187980623708,0.0
1019,-3.216738793764501,-1.1624892340574147,68.73503115107482,0.0
1020,-2.8923943630758386,-0.8276861609062767,68.65661376571124,0.0
1021,-2.4580011417402736,-0.3983142589379649,68.5836756563672,0.0
1022,-1.9264049425245828,0.11330205832027007,68.51634781097948,0.0
1023,-1.3227534898093207,0.6862033337098281,68.45476268509327,0.0
1024,-0.6813364514163255,1.292956205196134,68.39905443831579,0.0
1025,-0.04082592135112348,1.9027328387289306,68.34935917795259,0.0
1026,0.5610881418600457,2.4847737203859737,68.3058152103605,0.0
1027,1.0925847602340486,3.0116328506309893,68.26856330059826,0.0
1028,1.5311975893290461,3.461664713067037,68.2377469410076,0.0
1029,1.8653212741708103,3.8203850588003627,68.21351262941081,0.0
1030,2.0936079768694165,4.080582794428338,68.19601015767017,0.0
1031,2.2225795410835985,4.241322194768923,68.18539291141612,0.0
1032,2.263147446677394,4.306194468195179,68.18181818181819,1.0
1033,2.226927379391907,4.281307257627494,68.18609350677089,0.0
1034,2.1232197331362057,4.17351339395412,68.19877327765356,0.0
1035,1.9573220487937206,3.9892768450813443,68.21964260422399,0.0
1036,1.7305050127460608,3.7343817440260327,68.24849206401412,0.0
1037,1.441589165252183,3.4144571326161226,68.28511719648705,0.0
1038,1.0896695165222183,3.0360720570665096,68.32931801842838,0.0
1039,0.6772228972557911,2.6080050626305695,68.38089855891495,0.0
1040,0.2126861724501284,2.1422445097222087,68.4396664123497,0.0
1041,-0.2883135975897311,1.6543418157872165,68.50543230818283,0.0
1042,-0.8035554230766953,1.1629012405651182,68.5780096960644,0.0
1043,-1.3066245774344682,0.6882062183409119,68.65721434528773,0.0
1044,-1.7705906901151447,0.25019947942624854,68.74286395749182,0.0
1045,-2.172093390270869,-0.13380093373604685,68.83477779169117,0.0
1046,-2.4948791584121817,-0.451194106654599,68.93277630079756,0.0
1047,-2.7320094531096455,-0.6955745412485829,69.03668077888817,0.0
1048,-2.8863204213160247,-0.8673020694102632,69.14631301855987,0.0
1049,-2.969140082229947,-0.973059323266567,69.26149497779203,0.0
1050,-2.9976473980742115,-1.024498315549875,69.3820484558177,0.0
1051,-2.9915101554621417,-1.0362518152887923,69.50779477757857,0.0
1052,-2.969525655997299,-1.0236914762001414,69.63855448641223,0.0
1053,-2.946907905571331,-1.0008349763275193,69.77414704469005,0.0
1054,-2.9336518314036963,-0.978741480925321,69.91439054219323,0.0
1055,-2.934124253021939,-0.9646094958103159,70.0591014120812,0.0
1056,-2.947759377158314,-0.9616362069900057,70.2080941543722,0.0
1057,-2.970534426457153,-0.9695483216731757,70.36118106692052,0.0
1058,-2.996797913530327,-0.9856016024057696,70.51817198393775,0.0
1059,-3.021020194873008,-1.0057887109775796,70.67887402216886,0.0
1060,-3.039119089504708,-1.0259974386805895,70.84309133489461,0.0
1061,-3.0491589938251527,-1.0429151650494628,71.01062487399376,0.0
1062,-3.051395048443997,-1.054561828677199,71.18127216035838,0.0
1063,-3.0477901763862967,-1.060429667564815,71.3548270630155,0.0
1064,-3.0412324744229524,-1.0612915712384756,71.53107958736733,0.0
1065,-3.034705111249559,-1.0587951131283677,71.70981567301996,0.0
1066,-3.0306186350334574,-1.0549789275582602,71.89081700172872,0.0
1067,-3.030431636844184,-1.0518338584860973,72.07386081604288,0.0
1068,-3.0345890566886915,-1.0509923432147161,72.25871974928909,0.0
1069,-3.042723023755734,-1.0535790558082851,72.44516166758453,0.0
1070,-3.0540071917417744,-1.0602077071202558,72.632949524624,0.0
1071,-3.0675406667761544,-1.0710742358671275,72.82184123003283,0.0
1072,-3.08265774338968,-1.0860818684586178,73.0115895321263,0.0
1073,-3.0990996657120227,-1.1049396538684668,73.20194191595907,0.0
1074,-3.1170268935905314,-1.1271991010667137,73.39264051758997,0.0
1075,-3.136884417480093,-1.152225872693178,73.583422055524,0.0
1076,-3.1591581260162185,-1.1791357770660802,73.77401778032693,0.0
1077,-3.184081133473791,-1.2067473955040458,73.9641534434359,0.0
1078,-3.211366065415229,-1.2336104168090223,74.15354928621201,0.0
1079,-3.2400473629219406,-1.2581554533982264,74.34192005029807,0.0
1080,-3.2685089334553723,-1.2789786578419013,74.52897501035548,0.0
1081,-3.2947416094489284,-1.2952286579387393,74.71441803025625,0.0
1082,-3.316821809584884,-1.3070144388335956,74.89794764380268,0.0
1083,-3.3335338367700222,-1.315713964379586,75.07925716103337,0.0
1084,-3.344986923460362,-1.3240479804199703,75.25803480115182,0.0
1085,-3.3530248249000927,-1.3358019794638682,75.43396385308223,0.0
1086,-3.361213572698285,-1.3551356741081437,75.60672286461363,0.0
1087,-3.3742401147387544,-1.3855083855943422,75.77598586104054,0.0
1088,-3.3966667506105153,-1.4283553929432349,75.94142259414225,0.0
1089,-3.431152799846414,-1.4817510231427637,76.10269882226598,0.0
1090,-3.476447423390123,-1.539361552895556,76.25947662218825,0.0
1091,-3.5256300590771854,-1.5899997670876471,76.41141473332655,0.0
1092,-3.5651678855898297,-1.6180281025148295,76.55816893475624,0.0
1093,-3.5753128349750325,-1.6047197761529985,76.69939245535818,0.0
1094,-3.5321377166285135,-1.5304976149421246,76.83473641727934,0.0
1095,-3.4111280219037683,-1.3777664817691408,76.96385031273189,0.0
1096,-3.1917864709018824,-1.1338854674532408,77.08638251398598,0.0
1097,-2.8623096022845584,-0.7937371568077781,77.20198081622948,0.0
1098,-2.4232090780470323,-0.3613753416757655,77.31029301277235,0.0
1099,-1.888875206817387,0.14962397323117282,77.41096750186753,0.0
1100,-1.286518178415364,0.7172444254298815,77.50365392420255,0.0
1101,-0.6525642715055892,1.3133963085808804,77.5880038298908,0.0
1102,-0.02724303733468253,1.9071581080069682,77.66367137355584,0.0
1103,0.5514227725998114,2.4683038787794582,77.7303140358626,0.0
1104,1.0528661669736528,2.970479455096136,77.78759336960243,0.0
1105,1.4573329740208414,3.393484876989445,77.83517576819172,0.0
1106,1.7567452545100366,3.724334697503503,77.8727332541945,0.0
1107,1.9531315301679755,3.957049047805736,77.89994428523207,0.0
1108,2.0552774175138193,4.09140739338351,77.91649457440018,0.0
1109,2.0746166551507246,4.131106605359035,77.92207792207792,1.0
1110,2.021460401094904,4.081857056315609,77.92095105843461,0.0
1111,1.9024804819322017,3.949907263696162,77.91759615590965,0.0
1112,1.7199935847001175,3.741325487701141,77.91205202388565,0.0
1113,1.4731206037353222,3.4621308352769202,77.90435782327575,0.0
1114,1.1604079604374613,3.1191187964866076,77.89455304484832,0.0
1115,0.7831031351322856,2.7210296836344634,77.88267748781199,0.0
1116,0.3480860357323209,2.2796114196429977,77.86877123867833,0.0
1117,-0.13045900473918434,1.8101524437910113,77.85287465041938,0.0
1118,-0.6312028238056746,1.3311969107211878,77.83502832193552,0.0
1119,-1.1277336879772664,0.8633656205136554,77.81527307784933,0.0
1120,-1.5920843251536818,0.4274373148258833,77.79364994863933,0.0
1121,-1.9989118703726587,0.04203801418850761,77.7702001511274,0.0
1122,-2.329371072066891,-0.27860554135909266,77.74496506933268,0.0
1123,-2.5738210941307025,-0.5263923320300576,77.71798623570348,0.0
1124,-2.732811241033097,-0.7002021674407457,77.68930531273878,0.0
1125,-2.8162121182216104,-0.8057091904353105,77.65896407500938,0.0
1126,-2.840784626429652,-0.8541955941672986,77.62700439158819,0.0
1127,-2.826801842094678,-0.8606013588647157,77.59346820889878,0.0
1128,-2.7944826710936863,-0.8411802834427431,77.5583975339898,0.0
1129,-2.76094202513218,-0.8111830749298257,77.521834418243,0.0
1130,-2.738152390749258,-0.7829512971728386,77.48382094152089,0.0
1131,-2.7321277382067763,-0.7646976052475347,77.44439919676046,0.0
1132,-2.7432667763689147,-0.760097483239911,77.40361127501768,0.0
1133,-2.767586409274048,-0.7686604522458547,77.36149925096757,0.0
1134,-2.79846330039665,-0.7867161142174915,77.31810516886335,0.0
1135,-2.828483272659735,-0.8087647259410381,77.27347102895818,0.0
1136,-2.851060136627166,-0.8289129380271638,77.22763877439195,0.0
1137,-2.8615988284653096,-0.8421400647982706,77.1806502785449,0.0
1138,-2.858105557854768,-0.8452061734068047,77.13254733285986,0.0
1139,-2.841257865768156,-0.8371022411009968,77.08337163513347,0.0
1140,-2.8140244289836214,-0.8190353993495976,77.03316477827727,0.0
1141,-2.780968873153574,-0.7940222808581843,76.98196823954773,0.0
1142,-2.747390725726213,-0.7662191664710238,76.9298233702453,0.0
1143,-2.7184547064224382,-0.7401434335936538,76.87677138588076,0.0
1144,-2.698439694965867,-0.719936895138904,76.82285335680736,0.0
1145,-2.6902059322282015,-0.7087927890349774,76.76811019931698,0.0
1146,-2.6949399500659443,-0.7086223928222803,76.71258266719757,0.0
1147,-2.7121951178841592,-0.7199840415054352,76.6563113437493,0.0
1148,-2.7402012063427246,-0.74224637759774,76.59933663425593,0.0
1149,-2.776370178674767,-0.773917434524667,76.54169875890841,0.0
1150,-2.81788616569053,-0.8130478476524533,76.48343774617616,0.0
1151,-2.8622494614326137,-0.8576131887256845,76.42459342662286,0.0
1152,-2.9076578991925244,-0.9057966353008149,76.3652054271614,0.0
1153,-2.9531530054093027,-0.9561248853145322,76.30531316574414,0.0
1154,-2.9985201361666154,-1.0074504931201034,76.24495584648318,0.0
1155,-3.0439933566215203,-1.0588140612029875,76.18417245519579,0.0
1156,-3.089860776716162,-1.1092513241763164,76.1230017553696,0.0
1157,-3.136084176408191,-1.157626034541127,76.06148228454234,0.0
1158,-3.1820361592910618,-1.2025655763294745,75.99965235109035,0.0
1159,-3.2264253768615947,-1.2425520732886837,75.93755003142043,0.0
1160,-3.267437532386261,-1.276181140444041,75.87521316755887,0.0
1161,-3.3030779280735105,-1.3025507130370686,75.81267936513223,0.0
1162,-3.331664602864854,-1.3216936284923473,75.74998599173345,0.0
1163,-3.352387152849605,-1.3349311419675534,75.68717017566763,0.0
1164,-3.365812408189716,-1.345011015565661,75.62426880507114,0.0
1165,-3.3741891235919104,-1.3559111141768356,75.56131852739819,0.0
1166,-3.3813939990747346,-1.3722403513295323,75.4983557492687,0.0
1167,-3.3923882236601544,-1.3982491384596583,75.4354166366712,0.0
1168,-3.412128971709806,-1.4365590903723748,75.37253711551497,0.0
1169,-3.4440032371690545,-1.4868174133826475,75.30975287252525,0.0
1170,-3.488006348873822,-1.5445517142145384,75.24709935647547,0.0
1171,-3.5390422797430663,-1.6005231435912157,75.1846117797507,0.0
1172,-3.5858296107521253,-1.6408338242044285,75.12232512023645,0.0
1173,-3.610900530298209,-1.6479350556783654,75.06027412352691,0.0
1174,-3.5920371836379066,-1.60251895034214,74.99849330544727,0.0
1175,-3.505194062824172,-1.486087517895684,74.93701695488421,0.0
1176,-3.328557698191966,-1.2838210850695748,74.87587913691941,0.0
1177,-3.047002590020701,-0.9872561756248249,74.81511369626067,0.0
1178,-2.655950533555815,-0.5962664236807123,74.75475426096551,0.0
1179,-2.163643485622354,-0.11993369091168127,74.69483424645227,0.0
1180,-1.5911382781642252,0.4239112605435793,74.63538685979381,0.0
1181,-0.9698626656622659,1.010446202751102,74.57644510428922,0.0
1182,-0.3371858756824896,1.6106229486720447,74.51804178430909,0.0
1183,0.2690333494215187,2.1944490851934138,74.46020951040994,0.0
1184,0.8157083287492314,2.7341973521999807,74.4029807047138,0.0
1185,1.2784655194201646,3.2069867763014757,74.34638760654907,0.0
1186,1.643516227556669,3.5963343732310364,74.29046227834894,0.0
1187,1.9072621746555347,3.8925154324435516,74.23523661180403,0.0
1188,2.0739903692618356,4.091836122226419,74.18074233426582,0.0
1189,2.1524191517586257,4.195150848952679,74.12701101539815,0.0
1190,2.1520439344103433,4.206095241046306,74.07407407407408,1.0
1191,2.0801958944498296,4.129523736379155,74.02062586763064,0.0
1192,1.9405050362879503,3.970538363223081,73.96538412261893,0.0
1193,1.7330963977631941,3.7343015034572042,73.90841512818521,0.0
1194,1.4564048228333744,3.426590949204697,73.849785050055,0.0
1195,1.1100601522436828,3.0548401687281697,73.78955990179861,0.0
1196,0.6979847859752004,2.6292644619090995,73.72780551732117,0.0
1197,0.23075756201955133,2.1636397005363466,73.6645875245795,0.0
1198,-0.2735305011141959,1.6753820759421805,73.59997132052568,0.0
1199,-0.7903135401696073,1.1847528338117734,73.53402204727576,0.0
1200,-1.2913649904160178,0.7132359073378327,73.46680456950003,0.0
1201,-1.7487954708281845,0.2813514778493962,73.39838345302962,0.0
1202,-2.1393174613685666,-0.09367930224454746,73.32882294467247,0.0
1203,-2.4477773770084563,-0.3999510568920982,73.25818695323056,0.0
1204,-2.669139377886149,-0.6321640307715805,73.18653903170865,0.0
1205,-2.808505426872394,-0.7919316488778598,73.1139423607033,0.0
1206,-2.8792573092886866,-0.8870575376545964,73.0404597329602,0.0
1207,-2.8998598885850333,-0.929943693042016,72.9661535390864,0.0
1208,-2.8901394999526353,-0.9354552045878821,72.89108575440291,0.0
1209,-2.8678822859765893,-0.9186500476147597,72.81531792692266,0.0
1210,-2.846406786176583,-0.8927727082731403,72.73891116643753,0.0
1211,-2.8334420485774734,-0.8678188315439563,72.66192613469754,0.0
1212,-2.831296050999089,-0.8498338538236604,72.58442303666466,0.0
1213,-2.838018183113934,-0.8409497888975314,72.50646161282324,0.0
1214,-2.849096425006414,-0.8400275665580759,72.42810113252837,0.0
1215,-2.8592024501876407,-0.8436839602414375,72.34940038837284,0.0
1216,-2.8635930846330937,-0.8474534157697228,72.27041769155382,0.0
1217,-2.8589524797921366,-0.8468616645161537,72.19121086821909,0.0
1218,-2.8436545880080657,-0.8382535260988905,72.11183725677324,0.0
1219,-2.8175799962762027,-0.8192994876113826,72.03235370612369,0.0
1220,-2.7816984566922787,-0.7891828206220948,71.95281657484657,0.0
1221,-2.737624730683009,-0.7485253702516811,71.87328173125213,0.0
1222,-2.687291948702379,-0.6991385512119215,71.79380455433015,0.0
1223,-2.6327960345106285,-0.643687908794438,71.71443993555488,0.0
1224,-2.5763797842798173,-0.5853424842013226,71.63524228153017,0.0
1225,-2.520472458374883,-0.527454520016454,71.55626551745522,0.0
1226,-2.4676935405789115,-0.47329033587992886,71.47756309139163,0.0
1227,-2.420762405476581,-0.42581582441131605,71.39918797931307,0.0
1228,-2.3823077515614712,-0.38753207516698085,71.32119269091882,0.0
1229,-2.3546164764181214,-0.3603565392552121,71.24362927619329,0.0
1230,-2.3393851647655377,-0.3455491081710239,71.16654933269389,0.0
1231,-2.3375365777566337,-0.34368631628492385,71.09000401355011,0.0
1232,-2.3491453648322844,-0.35468751715143393,71.01404403615702,0.0
1233,-2.3734897930244405,-0.37789318789974846,70.9387196915478,0.0
1234,-2.4092161037042166,-0.41218831997510347,70.86408085442922,0.0
1235,-2.4545755429395495,-0.4561554060736227,70.79017699386593,0.0
1236,-2.5076782029854168,-0.5082345944216962,70.71705718459907,0.0
1237,-2.5667077908352387,-0.5668655217114567,70.64477011898639,0.0
1238,-2.6300574841484248,-0.6305874759222182,70.57336411955072,0.0
1239,-2.696373556935154,-0.6980818933592625,70.5028871521254,0.0
1240,-2.7645212188535857,-0.768152597481446,70.4333868395856,0.0
1241,-2.8335063920286645,-0.8396526862405967,70.36491047615509,0.0
1242,-2.9023911007826784,-0.9113802637068102,70.29750504227941,0.0
1243,-2.9702283302671173,-0.9819759549175126,70.23121722005682,0.0
1244,-3.0360225288443803,-1.049861119895716,70.16609340921944,0.0
1245,-3.098707709079156,-1.11325484498522,70.10217974365797,0.0
1246,-3.1571369183827853,-1.170298419636572,70.03952210848432,0.0
1247,-3.2100945044487923,-1.2192971648385762,69.97816615762719,0.0
1248,-3.2563639829516684,-1.2590617696604727,69.91815733195713,0.0
1249,-3.294892305583889,-1.2892977393352996,69.85954087793816,0.0
1250,-3.325073322663382,-1.3109581650135431,69.80236186680412,0.0
1251,-3.347127199579439,-1.3264505138870266,69.74666521425931,0.0
1252,-3.362487970727586,-1.3395825250573705,69.69249570070386,0.0
1253,-3.374047379082593,-1.3551543117787368,69.6398979919849,0.0
1254,-3.3860652990237528,-1.378157603449147,69.58891666067692,0.0
1255,-3.4035725055293384,-1.4126253344732742,69.53959620789446,0.0
1256,-3.4311799037892134,-1.4602729045284173,69.49198108564255,0.0
1257,-3.471369655237946,-1.5191653192185077,69.44611571971086,0.0
1258,-3.5225493017189504,-1.5827061764025818,69.40204453311932,0.0
1259,-3.577342743450171,-1.6392506320237037,69.35981197012364,0.0
1260,-3.621698172611859,-1.6725795732727124,69.31946252079089,0.0
1261,-3.635345380056986,-1.6633364426418549,69.28104074615668,0.0
1262,-3.593899666694176,-1.5913408801560214,69.24459130397659,0.0
1263,-3.4725120648524155,-1.4384915986871363,69.210158975086,0.0
1264,-3.2504997477709385,-1.191802130519904,69.17778869038426,0.0
1265,-2.9160021163882126,-0.8460235666860723,69.14752555846009,0.0
1266,-2.469546506778822,-0.40533019423732863,69.11941489387722,0.0
1267,-1.9255617984433437,0.11631583468229323,69.09350224614064,0.0
1268,-1.3113287619682408,0.6962683594609365,69.06983342936533,0.0
1269,-0.6634729813779473,1.305633209955439,69.04845455267149,0.0
1270,-0.022701754004095093,1.9126318953484898,69.02941205133173,0.0
1271,0.5721082347682266,2.4862991298122954,69.01275271869794,0.0
1272,1.0892425166767539,2.9998555641228473,68.99852373893678,0.0
1273,1.5078333100782546,3.4331740104610264,68.98677272060571,0.0
1274,1.8192228954124885,3.7739595271492625,68.97754773110292,0.0
1275,2.025862876037388,4.017544581709576,68.97089733202671,0.0
1276,2.1381651897760845,4.1654950786919525,68.96687061548276,0.0
1277,2.170181996980842,4.223463377060251,68.96551724137932,1.0
1278,2.135235724614985,4.1988561388730545,68.96900528089182,0.0
1279,2.042576427096774,4.098880155862237,68.97935119710031,0.0
1280,1.8958256961716902,3.9293934138083713,68.99638059496424,0.0
1281,1.6934740839428455,3.6947580172673717,69.01992268288639,0.0
1282,1.431173323888392,3.3986244282510274,69.04980994103545,0.0
1283,1.105132567661741,3.0453381798038057,69.08587780258482,0.0
1284,0.7156729727805274,2.64150740230503,69.12796434698932,0.0
1285,0.26996047995707284,2.1972364506244304,69.17591000449558,0.0
1286,-0.21686568769083228,1.7266219056421515,69.22955727115172,0.0
1287,-0.7225501601146592,1.2472961948466812,69.28875043364602,0.0
1288,-1.2204281289249441,0.7790418678882229,69.35333530336604,0.0
1289,-1.6833523765264178,0.3417267174608001,69.42315895912661,0.0
1290,-2.087893348432484,-0.04702813388393856,69.4980694980695,0.0
1291,-2.417821292734809,-0.3739745720446276,69.57791579428894,0.0
1292,-2.6661133312218843,-0.6317361932029547,69.66254726478584,0.0
1293,-2.835147361564913,-0.8194009344017045,69.75181364240069,0.0
1294,-2.9352050786880257,-0.9421267064261618,69.84556475541865,0.0
1295,-2.9817744945937275,-1.009881408242026,69.94365031358441,0.0
1296,-2.992339829338575,-1.0355997602477722,70.04591970030421,0.0
1297,-2.9833596643347695,-1.0331271062767646,70.1522217708531,0.0
1298,-2.9679939270166487,-1.0153228205234748,70.2624046564434,0.0
1299,-2.954899300361477,-0.9926221282314149,70.37631557404764,0.0
1300,-2.948133749651527,-0.9722301565721403,70.49380064190608,0.0
1301,-2.9479614344485907,-0.9579793348249342,70.61470470068299,0.0
1302,-2.9521883086419476,-0.9507537156414393,70.73887114027211,0.0
1303,-2.957616480492748,-0.949296055786482,70.86614173228347,0.0
1304,-2.9612723466076734,-0.9511775032291433,70.99635646827865,0.0
1305,-2.961199472660874,-0.9537238991172537,71.12935340385233,0.0
1306,-2.9567627260204126,-0.9547445505775625,71.26496850869053,0.0
1307,-2.9485430505812396,-0.9529803813713468,71.40303552276643,0.0
1308,-2.937983439331257,-0.9482596150330997,71.54338581886567,0.0
1309,-2.9269627180292885,-0.9414056549277187,71.68584827166156,0.0
1310,-2.917431265194172,-0.9339754055522244,71.83024913359053,0.0
1311,-2.911168630815357,-0.9279158765193937,71.97641191780572,0.0
1312,-2.9096535496389446,-0.925217086983108,72.12415728851396,0.0
1313,-2.9139996447129,-0.9276176195637423,72.27330295902759,0.0
1314,-2.9249112072713968,-0.9363935712434872,72.42366359788807,0.0
1315,-2.942639015193693,-0.9522384074128895,72.57505074344189,0.0
1316,-2.966945026501103,-0.9752241449623941,72.72727272727273,0.0
1317,-2.997100695429475,-1.0048247784844409,72.88013460691427,0.0
1318,-3.031940644803269,-1.0399805886679618,73.03343810828879,0.0
1319,-3.0699752826641045,-1.0791855931502599,73.18698157833373,0.0
1320,-3.1095431602404773,-1.1205880475754324,73.34055994829477,0.0
1321,-3.1489688444728126,-1.1621033379741679,73.49396470817807,0.0
1322,-3.18669285070306,-1.2015472073533058,73.64698389286492,0.0
1323,-3.2213558126711104,-1.2368021242980085,73.79940208040189,0.0
1324,-3.2518410075136255,-1.2660279339770986,73.9510004029849,0.0
1325,-3.277297994596046,-1.28791780046644,74.10155657115875,0.0
1326,-3.297180193361042,-1.3019817425559759,74.25084491175366,0.0
1327,-3.3113289650073905,-1.3088153394621176,74.39863642007592,0.0
1328,-3.320123441218369,-1.3102860167118333,74.54469882686256,0.0
1329,-3.324684326443145,-1.3095518335481502,74.68879668049793,0.0
1330,-3.3270706182118084,-1.3108270208791006,74.83069144497448,0.0
1331,-3.330351975506049,-1.3188323453919906,74.97014161405905,0.0
1332,-3.338401011891161,-1.3379199243396611,75.10690284210096,0.0
1333,-3.3552589408162503,-1.370937438398457,75.2407280918886,0.0
1334,-3.384006007844835,-1.417983286559571,75.37136779992453,0.0
1335,-3.4252153241301775,-1.4752819606875989,75.4985700594504,0.0
1336,-3.4752579320341077,-1.534453712099587,75.62208082150524,0.0
1337,-3.52490450710771,-1.5824425553329569,75.74164411425025,0.0
1338,-3.5587645725586796,-1.6022893680663342,75.85700228073574,0.0
1339,-3.5560504280370258,-1.574795580088383,75.96789623522271,0.0
1340,-3.492915086389034,-1.4809396281641312,76.07406573810368,0.0
1341,-3.3462158312413117,-1.3047213487412777,76.17524968939314,0.0
1342,-3.0980931299748953,-1.0359657304353274,76.27118644067797,0.0
1343,-2.740377371652176,-0.6725603793639557,76.36161412533454,0.0
1344,-2.27769610835497,-0.22165736819817683,76.44627100672814,0.0
1345,-1.728344589401406,0.30046035041677643,76.52489584401661,0.0
1346,-1.1224848306789574,0.8698955674847704,76.59722827508062,0.0
1347,-0.49791948136384345,1.4578045487368652,76.66300921600025,0.0
1348,0.10565979449039406,2.0337440205466963,76.72198127639099,0.0
1349,0.652629181385085,2.56908580590139,76.77388918980309,0.0
1350,1.116221590613159,3.0398849954101768,76.81848025827607,0.0
1351,1.4811085988694837,3.4287247571517194,76.85550481002818,0.0
1352,1.7433541807215207,3.725304245538628,76.8847166691455,0.0
1353,1.908024495226027,3.9258246063899342,76.90587363602243,0.0
1354,1.98531440206023,4.031489848579781,76.91873797719241,0.0
1355,1.9863436523701743,4.0466106402739985,76.92307692307692,1.0
1356,1.9197411881110207,3.9768409206131508,76.92200556361524,0.0
1357,1.7898330048554874,3.827984770611668,76.91881559761079,0.0
1358,1.5967834324636223,3.6056136595320334,76.91354344725549,0.0
1359,1.3385204241650985,3.315486844945055,76.90622585707676,0.0
1360,1.0138068461879943,2.9645357994926185,76.89689987433762,0.0
1361,0.6255085577380284,2.562016061021387,76.88560282966993,0.0
1362,0.18304915217895004,2.1203845940217834,76.87237231795604,0.0
1363,-0.29673397933183304,1.6555351764476338,76.85724617947334,0.0
1364,-0.7906641053231338,1.186195040083769,76.84026248131592,0.0
1365,-1.2720195816935222,0.7325058247944061,76.82145949910641,0.0
1366,-1.714375047076808,0.3140232314875777,76.80087569901058,0.0
1367,-2.0955651612538397,-0.052480075109745616,76.7785497200666,0.0
1368,-2.4008601466892623,-0.35496915917306404,76.75452035684015,0.0
1369,-2.6246894512781953,-0.5874694621947135,76.72882654241562,0.0
1370,-2.770640041269682,-0.750503847313004,76.70150733173358,0.0
1371,-2.849874194353092,-0.8505760155173662,76.6726018852832,0.0
1372,-2.8784499696644392,-0.8988215807913491,76.64214945315825,0.0
1373,-2.8742081075054937,-0.9090989725103014,76.61018935948456,0.0
1374,-2.8538828692879394,-0.8958758563984566,76.5767609872258,0.0
1375,-2.830929387508243,-0.8722725207400966,76.5419037633742,0.0
1376,-2.814311100957907,-0.8485596814982136,76.50565714453218,0.0
1377,-2.80824651805817,-0.8312962562371523,76.4680606028898,0.0
1378,-2.81273940570318,-0.8231613231139417,76.42915361260312,0.0
1379,-2.824631169955248,-0.8234114328131099,76.38897563657704,0.0
1380,-2.8389038048930697,-0.8288009165037235,76.34756611365657,0.0
1381,-2.8499983691933006,-0.8347506061287266,76.30496444622901,0.0
1382,-2.852972220714173,-0.8365415324260989,76.26120998824001,0.0
1383,-2.844379066272248,-0.8303388886788429,76.21634203362476,0.0
1384,-2.822806639502374,-0.8139070054114409,76.1703998051561,0.0
1385,-2.7890449056926823,-0.7869453216483011,76.12342244371041,0.0
1386,-2.7458915986022756,-0.7510456824792945,76.07544899795164,0.0
1387,-2.6976428322528707,-0.7093319608664196,76.02651841443326,0.0
1388,-2.649365385604126,-0.6658860809816717,75.97666952811824,0.0
1389,-2.60608974134508,-0.625085488259995,75.9259410533156,0.0
1390,-2.5720788109600212,-0.5909750630583657,75.87437157503261,0.0
1391,-2.550305298411119,-0.5667740475471216,75.82199954074109,0.0
1392,-2.5422163576587686,-0.5545814401212751,75.76886325255555,0.0
1393,-2.547795266154782,-0.5552992793812362,75.71500085982116,0.0
1394,-2.56586585664689,-0.5687507602384085,75.66045035210875,0.0
1395,-2.5945408321810723,-0.5939368201580966,75.60524955261404,0.0
1396,-2.6316974531891466,-0.6293561037285292,75.54943611195779,0.0
1397,-2.67537454698495,-0.6733113406253641,75.4930475023836,0.0
1398,-2.7240178293186936,-0.724139088122907,75.43612101234945,0.0
1399,-2.7765452622490994,-0.780325521193746,75.37869374150918,0.0
1400,-2.8322484983485126,-0.8405025895664326,75.32080259607997,0.0
1401,-2.8905814132335323,-0.9033497880021034,75.26248428459108,0.0
1402,-2.950907504241131,-0.9674509093807332,75.20377531400975,0.0
1403,-3.012282193309239,-1.0311678762716263,75.14471198623957,0.0
1404,-3.0733333146630124,-1.092592592198486,75.08533039498634,0.0
1405,-3.13227644440053,-1.1496225650228498,75.02566642298683,0.0
1406,-3.187069210215163,-1.2001789058161019,74.96575573959521,0.0
1407,-3.235680367781197,-1.242550196634161,74.90563379872212,0.0
1408,-3.2764319560069795,-1.2758081847009253,74.84533583712143,0.0
1409,-3.3083659106350907,-1.30020793731881,74.78489687301905,0.0
1410,-3.3315836762929867,-1.3174631860266106,74.72435170507912,0.0
1411,-3.347500544457468,-1.3307840713669468,74.66373491170154,0.0
1412,-3.3589412730850814,-1.3445848901038693,74.60308085064638,0.0
1413,-3.369983814962777,-1.3638161555590695,74.54242365897902,0.0
1414,-3.3854483975996614,-1.3929457743185556,74.48179725333142,0.0
1415,-3.4099535049091414,-1.4346995004990646,74.42123533047376,0.0
1416,-3.446541365566204,-1.488755512357812,74.36077136819145,0.0
1417,-3.4950183702448894,-1.5506515230844564,74.30043862646212,0.0
1418,-3.550332561620895,-1.611183942762314,74.2402701489277,0.0
1419,-3.601459112110584,-1.656540821683271,74.18029876465621,0.0
1420,-3.631308077161251,-1.669308369150051,74.12055709018843,0.0
1421,-3.618045956796698,-1.6303353100260067,74.06107753186451,0.0
1422,-3.537922575773971,-1.5212574880038452,74.00189228842568,0.0
1423,-3.3692751250354154,-1.327316810396006,73.94303335388629,0.0
1424,-3.0969629601118402,-1.0399973259243087,73.88453252067174,0.0
1425,-2.7162201209612427,-0.6589822052923943,73.82642138301749,0.0
1426,-2.2349199963438373,-0.1930244768113054,73.76873134062537,0.0
1427,-1.6735648597533552,0.3404889887874549,73.71149360257233,0.0
1428,-1.0628646555818577,0.9172532783312208,73.65473919146817,0.0
1429,-0.4393848410559982,1.5087607381942405,73.5984989478578,0.0
1430,0.1597730619650639,2.085535807336275,73.54280353486492,0.0
1431,0.7020863592058529,2.620311629671596,73.48768344307287,0.0
1432,1.1634599881198535,3.0905989312469297,73.43316899564005,0.0
1433,1.53011501618184,3.4802453440124244,73.37929035364584,0.0
1434,1.7983197043865986,3.7798149719172134,73.32607752166494,0.0
1435,1.9722562632882155,3.9858781565357493,73.27356035356645,0.0
1436,2.0606969485998343,4.099528822538845,73.2217685585359,0.0
1437,2.073375691506356,4.12458922220377,73.17073170731707,1.0
1438,2.0179599122874556,4.065988490305983,73.11920465651342,0.0
1439,1.8983483270077104,3.9287096427277954,73.06596428428591,0.0
1440,1.7146728320724463,3.717515456880873,73.01107302578214,0.0
1441,1.4649379146556665,3.4374348913824924,72.95459320384109,0.0
1442,1.1477965363529308,3.094776264407199,72.89658700278054,0.0
1443,0.7656481360595038,2.698285112175981,72.83711644328369,0.0
1444,0.3271344779996184,2.260019881462658,72.77624335838694,0.0
1445,-0.15176243276309975,1.79558731952312,72.71402937056916,0.0
1446,-0.6484683634241366,1.3235426837021624,72.65053586994102,0.0
1447,-1.1363687349893739,0.8639748529317848,72.58582399353136,0.0
1448,-1.5886187639925244,0.4365075327552894,72.51995460566629,0.0
1449,-1.9823000739082712,0.05810136203568306,72.45298827943513,0.0
1450,-2.301904221378137,-0.25889981550353525,72.38498527923615,0.0
1451,-2.541314381652613,-0.5080840755398174,72.31600554439353,0.0
1452,-2.7038829872063848,-0.6893937900726924,72.24610867383642,0.0
1453,-2.800720974008236,-0.808594561638676,72.17535391182906,0.0
1454,-2.8477546673897822,-0.875927166104378,72.10380013474098,0.0
1455,-2.862342807880636,-0.9042329791443549,72.03150583884421,0.0
1456,-2.8602376841155372,-0.9069220691502939,71.95852912912477,0.0
1457,-2.8534648116545642,-0.89614588978445,71.88492770909406,0.0
1458,-2.8493793002293457,-0.8814545918200613,71.81075887158565,0.0
1459,-2.8508364007281894,-0.8690901041857196,71.73607949052214,0.0
1460,-2.857171106684208,-0.8619252964258025,71.66094601363608,0.0
1461,-2.865565813864428,-0.8599392579636146,71.58541445612903,0.0
1462,-2.8724037353824228,-0.8610414777374613,71.50954039525182,0.0
1463,-2.874325568804285,-0.8620321254035401,71.43337896578907,0.0
1464,-2.8688671898148064,-0.8595069984176525,71.35698485643086,0.0
1465,-2.854696656016384,-0.8505696819513255,71.28041230701383,0.0
1466,-2.8315546974607897,-0.8332815614140858,71.20371510661465,0.0
1467,-2.8000307991661257,-0.806845117152437,71.1269465924774,0.0
1468,-2.7612926592918927,-0.7715648869477045,71.05015964975814,0.0
1469,-2.7168494003512267,-0.7286576327629183,70.9734067120682,0.0
1470,-2.6683845766431062,-0.6799888601173181,70.8967397627991,0.0
1471,-2.6176575528823722,-0.6278017052671493,70.82021033721159,0.0
1472,-2.5664514943858134,-0.574483352365442,70.74386952527148,0.0
1473,-2.516544837619539,-0.5223906751258935,70.66776797521513,0.0
1474,-2.4696923357171254,-0.4737363719877803,70.59195589782824,0.0
1475,-2.4276094284572434,-0.4305229472404465,70.51648307142108,0.0
1476,-2.391953534383638,-0.39450569936421276,70.44139884748422,0.0
1477,-2.3642913437093367,-0.367166751643738,70.36675215700915,0.0
1478,-2.346040286164287,-0.349688127452681,70.29259151745822,0.0
1479,-2.3383797217416675,-0.34292025688914785,70.2189650403696,0.0
1480,-2.342141094133382,-0.347350309056967,70.14592043958214,0.0
1481,-2.3577000081597848,-0.36308001361439945,70.07350504006708,0.0
1482,-2.3849003687208246,-0.3898237050436129,70.00176578735284,0.0
1483,-2.4230373549228577,-0.42693394263675577,69.93074925753047,0.0
1484,-2.470912315636919,-0.4734552524911974,69.8605016678274,0.0
1485,-2.5269535183963328,-0.5281983732250997,69.79106888773852,0.0
1486,-2.589379559546937,-0.5898204763672155,69.72249645070298,0.0
1487,-2.6563730214924113,-0.6568936619698346,69.65482956631766,0.0
1488,-2.7262316586065656,-0.7279462776930672,69.58811313307689,0.0
1489,-2.797470172434158,-0.8014696018416642,69.5223917516304,0.0
1490,-2.8688548356542984,-0.8758948642331313,69.45770973855123,0.0
1491,-2.939365805410001,-0.949559582512527,69.39411114060661,0.0
1492,-3.0080988947844345,-1.0206937634986957,69.33163974952522,0.0
1493,-3.07413835918674,-1.0874613219364744,69.27033911725553,0.0
1494,-3.136449579610493,-1.1480865041074093,69.21025257171021,0.0
1495,-3.1938480990713813,-1.2010774896993421,69.15142323299291,0.0
1496,-3.2450931619486623,-1.245530931000361,69.09389403010425,0.0
1497,-3.2891269543312984,-1.2814666768103335,69.03770771812498,0.0
1498,-3.325436894205097,-1.3101092122887308,68.982906895875,0.0
1499,-3.354464744187482,-1.3340112840613414,68.9295340240481,0.0
1500,-3.3779358945627935,-1.3569154625657927,68.87763144382272,0.0
1501,-3.3989516026274633,-1.3832778238623664,68.82724139595095,0.0
1502,-3.4216924348541817,-1.4174357175318595,68.77840604032774,0.0
1503,-3.4506332443200236,-1.462482405125427,68.73116747604438,0.0
1504,-3.4892703193240395,-1.5190009762995444,68.6855677619309,0.0
1505,-3.538500377679007,-1.5838879597593198,68.64164893759293,0.0
1506,-3.5949457646672283,-1.6495407545825782,68.59945304495022,0.0
1507,-3.649651263680292,-1.703673047661912,68.5590221502843,0.0
1508,-3.6876325610982437,-1.7299487952985155,68.52039836680503,0.0
1509,-3.688682784779401,-1.7094924695051987,68.48362387774573,0.0
1510,-3.6296166333734488,-1.6231616449640875,68.44874095999906,0.0
1511,-3.487778912630513,-1.4542919980064148,68.41579200830577,0.0
1512,-3.2452539107633407,-1.1914857208339527,68.38481956001104,0.0
1513,-2.892911598812302,-0.830950369369134,68.35586632040331,0.0
1514,-2.433336069606475,-0.37793046663645247,68.32897518865283,0.0
1515,-1.8818595185531681,0.1530891474073346,68.30418928436778,0.0
1516,-1.2653367982970898,0.7395140263437145,68.28155197478786,0.0
1517,-0.6188234926116949,1.3529607335575236,68.26110690263666,0.0
1518,0.01918865997331253,1.9623932053451907,68.24289801465513,0.0
1519,0.6120039329297922,2.5375428985419806,68.22696959084134,0.0
1520,1.129371124123498,3.0520318012479635,68.21336627442182,0.0
1521,1.5506725920886943,3.4856890595434735,68.20213310258318,0.0
1522,1.8661464153048481,3.8257282562578947,68.19331553799304,0.0
1523,2.0760884990573514,4.06669337600106,68.18695950114255,0.0
1524,2.1884012876362515,4.20933305447924,68.18311140354386,0.0
1525,2.2151532142436308,4.258769137750686,68.18181818181819,1.0
1526,2.168956234868553,4.222442296665681,68.18660520251338,0.0
1527,2.059964282645615,4.108320858996739,68.20080076364215,0.0
1528,1.8941515686872996,3.923751565985757,68.2241621438706,0.0
1529,1.6732461975538566,3.6751404096731717,68.25645346407224,0.0
1530,1.3962936165337423,3.368424912991876,68.29744504840826,0.0
1531,1.0623851955519064,3.0100913511398133,68.34691281342691,0.0
1532,0.673738844441217,2.608351901759876,68.40463768284567,0.0
1533,0.2381859787439115,2.1740607799248357,68.47040502588811,0.0
1534,-0.2297383312184769,1.7210225108655868,68.54400411723717,0.0
1535,-0.7095219879802483,1.265509117308685,68.62522761684332,0.0
1536,-1.1771287087593847,0.8250128846823658,68.71387106798987,0.0
1537,-1.60859976711264,0.41646287991691966,68.80973241216952,0.0
1538,-1.9839058255171216,0.05427506920864056,68.91261151946958,0.0
1539,-2.290085026378711,-0.2513469851091147,69.02230973329621,0.0
1540,-2.5229099899328964,-0.4955003626772192,69.13862942839545,0.0
1541,-2.6867385310497047,-0.6788415090391293,69.26137358124755,0.0
1542,-2.7926933390738626,-0.8069852563451231,69.39034535202588,0.0
1543,-2.8557353689611773,-0.8891994247482093,69.52534767742023,0.0
1544,-2.8914232484117606,-0.9366878707686274,69.66618287373004,0.0
1545,-2.9131358906662244,-0.9608150010229569,69.81265224973367,0.0
1546,-2.930311224670507,-0.9716000298449203,69.96455572893876,0.0
1547,-2.9479158431695867,-0.9767141671408482,70.12169148091479,0.0
1548,-2.967021186719249,-0.9810789785114306,70.28385556150211,0.0
1549,-2.986112160287782,-0.9870261330016517,70.45084156178528,0.0
1550,-3.002643393284105,-0.9948704554389346,70.62244026580801,0.0
1551,-3.01439363207285,-1.00369059920672,70.798439317098,0.0
1552,-3.0203186562681075,-1.0121101893869124,70.97862289415878,0.0
1553,-3.020806788078274,-1.018917788855846,71.16277139517351,0.0
1554,-3.0174272909161624,-1.0234373570806596,71.35066113225442,0.0
1555,-3.0123767127287255,-1.025639346225835,71.54206403565803,0.0
1556,-3.0078549648199653,-1.02604634393618,71.7367473684738,0.0
1557,-3.005560580397624,-1.025523597099414,71.93447345237928,0.0
1558,-3.0064172132055225,-1.0250502313034426,72.13499940514129,0.0
1559,-3.010560330191331,-1.0255461441860942,72.33807689062631,0.0
1560,-3.0175426974935893,-1.027792633222874,72.54345188216757,0.0
1561,-3.0266706287861904,-1.032444240542093,72.75086444021751,0.0
1562,-3.03736537604911,-1.040096409005771,72.9600485052954,0.0
1563,-3.049453345017748,-1.0513562159923024,73.17073170731707,0.0
1564,-3.063316055654466,-1.0668648345286604,73.38263519246915,0.0
1565,-3.079865850981415,-1.087238812259835,73.59547346886222,0.0
1566,-3.1003502669977636,-1.112927144663667,73.80895427226444,0.0
1567,-3.126024082917655,-1.144014327468975,74.02277845328115,0.0
1568,-3.1577596844070768,-1.18002721063255,74.23663988740218,0.0
1569,-3.1956869327661472,-1.2198176430760765,74.45022540939122,0.0
1570,-3.23895686362359,-1.2615882674518182,74.66321477353414,0.0
1571,-3.2857069314662524,-1.3031038487729023,74.87528064129948,0.0
1572,-3.3332713963831617,-1.34208808771611,75.08608859799025,0.0
1573,-3.378633372840063,-1.3767532721551041,75.29529719998244,0.0
1574,-3.4190607072382826,-1.4063582379625097,75.5025580541497,0.0
1575,-3.4528139040560073,-1.4316517763502614,75.70751593106594,0.0
1576,-3.4797708447422995,-1.4550462820754437,75.9098089135554,0.0
1577,-3.5017904048466293,-1.4803893238755115,76.10906858212323,0.0
1578,-3.5226433651922573,-1.5122621339791733,76.30492023874721,0.0
1579,-3.547380280669641,-1.5548286597026904,76.49698317044064,0.0
1580,-3.5810883581374675,-1.6103724406196573,76.68487095390945,0.0
1581,-3.6271174158708495,-1.6777685592395806,76.8681918025193,0.0
1582,-3.685022141058454,-1.7512167929984848,77.04654895666133,0.0
1583,-3.7486445813443106,-1.8195832438832629,77.21954111845808,0.0
1584,-3.80489126868221,-1.8666425310953756,77.3867629315826,0.0
1585,-3.8337744266581653,-1.8723775383599408,77.54780550677229,0.0
1586,-3.8101301613813807,-1.8152948818116028,77.70225699340847,0.0
1587,-3.707084915982298,-1.6754878112034115,77.84970319729717,0.0
1588,-3.5008666377719693,-1.4379746096739767,77.98972824453232,0.0
1589,-3.176070905195521,-1.0957133603501337,78.12191529104466,0.0
1590,-2.730162146089932,-0.6516856873686672,78.24584727714519,0.0
1591,-2.1759721937610013,-0.11957037123446768,78.36110772605412,0.0
1592,-1.541324638490449,0.47722320167334287,78.46728158507571,0.0
1593,-0.8655991341509381,1.1080709444794836,78.56395610773004,0.0
1594,-0.19385831897147437,1.738787957215794,78.65072177479172,0.0
1595,0.4301692759456908,2.3357660565166807,78.72717325181448,0.0
1596,0.9706459559414621,2.8698370019776207,78.79291038033988,0.0
1597,1.4042607018501398,3.3191680062871525,78.84753919960762,0.0
1598,1.722018504331956,3.6707158324356643,78.89067299519873,0.0
1599,1.92799884025323,3.920088675355007,78.92193337066497,0.0
1600,2.035625681493145,4.070013355483729,78.94095133782557,0.0
1601,2.0625277829435484,4.127895688358494,78.94736842105263,1.0
1602,2.0253182995146917,4.1031263002185305,78.94549395739206,0.0
1603,1.935561379650261,4.004786934883398,78.93991788549475,0.0
1604,1.7978454776348887,3.8402582086619295,78.93071193511568,0.0
1605,1.6103233115409081,3.6149620099254505,78.91794878460267,0.0
1606,1.3674344295170995,3.333160391646857,78.90170199532255,0.0
1607,1.0639595907696695,2.9994568312087937,78.88204594684366,0.0
1608,0.6992152492155692,2.6204730240946823,78.85905577296096,0.0
1609,0.2801705413743676,2.206144888501775,78.83280729864576,0.0
1610,-0.17743496075404863,1.7701976800961488,78.80337697799756,0.0
1611,-0.6503513824211018,1.329587335924023,78.77084183327099,0.0
1612,-1.111185126516841,0.9029713658720304,78.73527939504672,0.0
1613,-1.5330208169249357,0.508525346082917,78.69676764361009,0.0
1614,-1.8941072738306626,0.1615867419249144,78.65538495159743,0.0
1615,-2.1814201317060347,-0.1273519759091981,78.61121002796492,0.0
1616,-2.3922594849752965,-0.3538682921794366,78.56432186333103,0.0
1617,-2.53361291768856,-0.5198095324343719,78.51479967673879,0.0
1618,-2.6196230932997673,-0.6324609978327377,78.46272286387986,0.0
1619,-2.667953375212217,-0.7028980226042809,78.40817094681867,0.0
1620,-2.6960232633038426,-0.7438934799959801,78.35122352524986,0.0
1621,-2.7179738475719954,-0.767810889118528,78.291960229319,0.0
1622,-2.742903174946692,-0.7848712646724014,78.23046067403229,0.0
1623,-2.7745103969937643,-0.802060774506519,78.16680441527699,0.0
1624,-2.811928403935326,-0.8227839598436137,78.10107090747105,0.0
1625,-2.8512920659157213,-0.8472060171814134,78.03333946285619,0.0
1626,-2.8875190145879377,-0.8731029817313516,77.9636892124458,0.0
1627,-2.915859344075429,-0.8969717518900074,77.89219906863549,0.0
1628,-2.932946130515669,-0.9151469282811698,77.81894768948074,0.0
1629,-2.9372756767767916,-0.9247178198861478,77.74401344464347,0.0
1630,-2.9291994126811907,-0.9241168596977982,77.66747438300607,0.0
1631,-2.910587015580079,-0.913337645748503,77.58940820194886,0.0
1632,-2.884328650515754,-0.8938176069384067,77.50989221828443,0.0
1633,-2.8538099777140102,-0.868074304686929,77.42900334083973,0.0
1634,-2.8224442886877257,-0.8392107082974968,77.34681804467427,0.0
1635,-2.793301348728981,-0.8104050712185227,77.26341234692137,0.0
1636,-2.7688437910072863,-0.7844812204633514,77.1788617842365,0.0
1637,-2.7507724947451537,-0.763622903703742,77.09324139183535,0.0
1638,-2.739985266468926,-0.7492589359631701,77.00662568410281,0.0
1639,-2.7366540093985736,-0.7421106094986888,76.91908863675174,0.0
1640,-2.7404131559263654,-0.742363904350844,76.83070367050985,0.0
1641,-2.750627683525794,-0.7499096345898792,76.74154363631095,0.0
1642,-2.766684937883707,-0.7645865842799063,76.65168080196636,0.0
1643,-2.788243546014942,-0.786366433923711,76.56118684029052,0.0
1644,-2.8153792154040653,-0.8154340226935882,76.47013281865472,0.0
1645,-2.84858774692371,-0.8521400013366334,76.37858918994165,0.0
1646,-2.888635101729801,-0.8968316224363406,76.2866257848725,0.0
1647,-2.936278657429889,-0.9495966299892683,76.19431180567906,0.0
1648,-2.9919167918992193,-1.0099797407551052,76.10171582109108,0.0
1649,-3.055246529569285,-1.0767460332281589,76.00890576261052,0.0
1650,-3.1250134864611643,-1.1477666807489888,75.91594892204289,0.0
1651,-3.1989239242317518,-1.2200877232288079,75.82291195025672,0.0
1652,-3.273761170816624,-1.290212285384245,75.72986085714123,0.0
1653,-3.3457150893644148,-1.3545839854186466,75.63686101273348,0.0
1654,-3.4108980071924053,-1.410210273529206,75.54397714948527,0.0
1655,-3.4659857229399673,-1.4553175986590805,75.45127336564146,0.0
1656,-3.508890254827924,-1.4898956922253002,75.35881312970086,0.0
1657,-3.5393446505429873,-1.5159760459367304,75.26665928593145,0.0
1658,-3.559261649082835,-1.5375081134802784,75.17487406091293,0.0
1659,-3.57272054181592,-1.5597499019867667,75.08351907107874,0.0
1660,-3.58544922353547,-1.588174932902663,74.99265533123179,0.0
1661,-3.603717942990813,-1.6270044506635173,74.90234326400775,0.0
1662,-3.6326652733147253,-1.6775835030842723,74.8126427102611,0.0
1663,-3.674238121187377,-1.736907363788753,74.72361294034968,0.0
1664,-3.725119030693273,-1.796644562680077,74.6353126662944,0.0
1665,-3.775175870127908,-1.8429735469372863,74.5478000547917,0.0
1666,-3.8070244416649586,-1.8574430126680392,74.46113274105733,0.0
1667,-3.7971792747224526,-1.8188903675449175,74.37536784348069,0.0
1668,-3.718962131135424,-1.7062372999021398,74.29056197907069,0.0
1669,-3.5468888323516103,-1.501770575761167,74.20677127967438,0.0
1670,-3.261778594701741,-1.1943611246025416,74.1240514089513,0.0
1671,-2.8554830880007436,-0.782020061519003,74.04245758008723,0.0
1672,-2.334058952423137,-0.2732618432057139,73.96204457423266,0.0
1673,-1.7184748913943781,0.3130613666470461,73.88286675965209,0.0
1674,-1.0425018162386785,0.9495085913465071,73.80497811157156,0.0
1675,-0.34812160309673856,1.6031269891824924,73.72843223271356,0.0
1676,0.3206014692806038,2.2393338095578987,73.65328237450916,0.0
1677,0.9238866667687664,2.82591741898967,73.57958145897882,0.0
1678,1.431518106445604,3.336453291321542,73.50738210127484,0.0
1679,1.8260098589344131,3.752563292253261,73.43673663287964,0.0
1680,2.10313318233913,4.064699743876062,73.36769712545535,0.0
1681,2.2698877350228868,4.271451209293631,73.300315415342,0.0
1682,2.340562536108406,4.377672025842161,73.2346431287029,0.0
1683,2.3319317897877663,4.391963068148064,73.17073170731707,1.0
1684,2.2587719079694177,4.324127731018509,73.10713874658242,0.0
1685,2.1307384489804977,4.183176805578403,73.04242205894384,0.0
1686,1.9512533216018964,3.976275991753162,72.97663311734007,0.0
1687,1.7185313356292058,3.7087676712579984,72.90982315412747,0.0
1688,1.4283471664663958,3.3851198182343394,72.84204314753063,0.0
1689,1.0777215728641159,3.0104270250133784,72.77334380885762,0.0
1690,0.6684789860257029,2.591964579494568,72.7037755704733,0.0
1691,0.20965939064139055,2.140302326192141,72.6333885745238,0.0
1692,-0.28193112438495765,1.669613915502523,72.56223266240407,0.0
1693,-0.7832383175545475,1.1970320793183933,72.4903573649605,0.0
1694,-1.2681803048953648,0.7411449114633505,72.41781189341961,0.0
1695,-1.7117446434817363,0.31994014217552,72.34464513103308,0.0
1696,-2.093931438941986,-0.0513663767403818,72.27090562542978,0.0
1697,-2.4026120626276146,-0.36216221439167695,72.19664158166397,0.0
1698,-2.6347203665129504,-0.6075621785174292,72.12190085594936,0.0
1699,-2.7956571649014164,-0.7886236630224746,72.04673095006791,0.0
1700,-2.897223865027916,-0.9116532015435187,71.97117900644191,0.0
1701,-2.954698349310935,-0.986788188003034,71.89529180385814,0.0
1702,-2.9837750636850036,-1.0261651648073604,71.81911575383204,0.0
1703,-2.99801526874676,-1.0420339652143837,71.74269689760015,0.0
1704,-3.007235650478192,-1.0451441129701753,71.66608090372864,0.0
1705,-3.0169746243681876,-1.0436341062974992,71.58931306632589,0.0
1706,-3.02890014352619,-1.0425255839775893,71.51243830384695,0.0
1707,-3.0418350942568444,-1.043796032285457,71.4355011584773,0.0
1708,-3.053013837482932,-1.0469033682384559,71.3585457960841,0.0
1709,-3.0592353436165522,-1.0495799098206486,71.28161600672242,0.0
1710,-3.057700008225223,-1.0487051460189656,71.20475520568448,0.0
1711,-3.0464571647186496,-1.0410980134046506,71.12800643507964,0.0
1712,-3.024509186667877,-1.0241244601261166,71.05141236593344,0.0
1713,-2.9916924207592372,-0.9960773223456936,70.97501530079369,0.0
1714,-2.948475411464683,-0.9563380482299706,70.89885717683208,0.0
1715,-2.8957862354419706,-0.9053644102504711,70.82297956942995,0.0
1716,-2.8349236612765787,-0.844562518710155,70.74742369623686,0.0
1717,-2.767548791762788,-0.7760982974744146,70.672230421691,0.0
1718,-2.695715716400265,-0.7026896254649562,70.59744026199083,0.0
1719,-2.6218877554177706,-0.6274029322784027,70.52309339050755,0.0
1720,-2.548895133040044,-0.5534631853450741,70.44922964362799,0.0
1721,-2.47981237444274,-0.4840773616408184,70.37588852701829,0.0
1722,-2.417761969038763,-0.4222692815583363,70.30310922229899,0.0
1723,-2.3656764455847443,-0.37072648460985946,70.23093059412213,0.0
1724,-2.326064528635457,-0.33166484824230136,70.15939119764172,0.0
1725,-2.3008232569590517,-0.30672101355372594,70.08852928636915,0.0
1726,-2.291120826444153,-0.29688426666619416,70.01838282040558,0.0
1727,-2.2973553585559525,-0.3024773886994717,69.94898947504359,0.0
1728,-2.319181978717024,-0.32319036944839286,69.88038664973104,0.0
1729,-2.3555958743255268,-0.3581629407236636,69.81261147739036,0.0
1730,-2.405058045614933,-0.40610334880874377,69.74570083408678,0.0
1731,-2.4656496326668607,-0.4654235931974514,69.67969134903996,0.0
1732,-2.5352398079129648,-0.5343673670965886,69.61461941497342,0.0
1733,-2.611651811784779,-0.6111076292161907,69.55052119879686,0.0
1734,-2.692810494842515,-0.6937969269203661,69.48743265261703,0.0
1735,-2.7768515769698037,-0.7805650931612838,69.42538952507327,0.0
1736,-2.862170576320943,-0.8694742900425568,69.36442737299413,0.0
1737,-2.9473945820473233,-0.9584577005672585,69.30458157337225,0.0
1738,-3.031277643450208,-1.045281388247943,69.24588733565528,0.0
1739,-3.1125482552154535,-1.1275742775633275,69.18837971435087,0.0
1740,-3.189765664020755,-1.2029646975932538,69.13209362194429,0.0
1741,-3.2612584062632286,-1.269341237663986,69.0770638421284,0.0
1742,-3.325213891292652,-1.3252218288183872,69.0233250433454,0.0
1743,-3.3799570685581726,-1.3701731596502311,68.97091179264096,0.0
1744,-3.424400772363105,-1.4051819526273104,68.91985856983187,0.0
1745,-3.4585801019289475,-1.4328521397153586,68.87019978198863,0.0
1746,-3.484116304284588,-1.457299583414534,68.82196977823531,0.0
1747,-3.5044140198854836,-1.4836474557671928,68.77520286486968,0.0
1748,-3.524398541473322,-1.5170928201342067,68.72993332080694,0.0
1749,-3.5496587407624123,-1.5616112962101796,68.68619541335138,0.0
1750,-3.584979354465402,-1.6184750725750563,68.64402341430072,0.0
1751,-3.6324145950533064,-1.6848552823909595,68.60345161638872,0.0
1752,-3.689247268924608,-1.7528350852690058,68.5645143500724,0.0
1753,-3.7463449748654214,-1.8091506531279018,68.52724600067052,0.0
1754,-3.787500937953911,-1.8358908878901183,68.49168102586151,0.0
1755,-3.7902670393343496,-1.8122278180268312,68.45785397354888,0.0
1756,-3.7285189564428722,-1.7170429496157689,68.42579950010358,0.0
1757,-3.576567975014757,-1.5321023512997956,68.39555238899334,0.0
1758,-3.3141527446385735,-1.245265744449531,68.36714756980982,0.0
1759,-2.931260287984195,-0.8531394572098234,68.34062013770537,0.0
1760,-2.4315924002326623,-0.3626296652648553,68.316005373252,0.0
1761,-1.8336991986314495,0.20897685991976633,68.29333876273597,0.0
1762,-1.1693195808380537,0.8355112268288991,68.27265601890264,0.0
1763,-0.4791550966784269,1.4848007669288208,68.25399310216694,0.0
1764,0.19305137161149405,2.1224503662286502,68.2373862423058,0.0
1765,0.8068550461628304,2.71586571223496,68.22287196065018,0.0
1766,1.3305345272748306,3.2378106980481554,68.21048709279523,0.0
1767,1.7445557002588086,3.6688942131875018,68.20026881184812,0.0
1768,2.042536036157517,3.9986113143253688,68.1922546522346,0.0
1769,2.2297403571591596,4.224868221088182,68.18648253408632,0.0
1770,2.3196300231695073,4.352231255207805,68.18299078823215,0.0
1771,2.329326371513493,4.389388061869973,68.18181818181819,1.0
1772,2.27501443303913,4.346441906538541,68.18609350677089,0.0
1773,2.168294598860937,4.232650173278669,68.19877327765356,0.0
1774,2.0142744345876897,4.055072408908572,68.21964260422399,0.0
1775,1.8117906497175302,3.81834800525186,68.24849206401412,0.0
1776,1.5556326907831783,3.525537683147871,68.28511719648705,0.0
1777,1.2401325876226375,3.1797037223165994,68.32931801842838,0.0
1778,0.8631307599828036,2.785731610672645,68.38089855891495,0.0
1779,0.42922390843188035,2.3518492769404045,68.4396664123497,0.0
1780,-0.04862063596182448,1.890387423859613,68.50543230818283,0.0
1781,-0.5495803928399123,1.4175212926902885,68.5780096960644,0.0
1782,-1.0475616068251545,0.9519898857079285,68.65721434528773,0.0
1783,-1.5152406116706176,0.5130394662867368,68.74286395749182,0.0
1784,-1.9285666816038682,0.11802332136208138,68.83477779169117,0.0
1785,-2.2706255490075153,-0.2198331065649881,68.93277630079756,0.0
1786,-2.533968385807526,-0.4930375233218961,69.03668077888817,0.0
1787,-2.7209548243647887,-0.7004925439809969,69.14631301855987,0.0
1788,-2.842191107454518,-0.8471139011423715,69.26149497779203,0.0
1789,-2.9135982409779686,-0.942528549931168,69.3820484558177,0.0
1790,-2.9528996407851986,-0.9991566630512081,69.50779477757857,0.0
1791,-2.9763372317304713,-1.0300814499384718,69.63855448641223,0.0
1792,-2.996250923266693,-1.0471149362409389,69.77414704469005,0.0
1793,-3.019870681648664,-1.0593850205561033,69.91439054219323,0.0
1794,-3.049357695394412,-1.07262708895539,70.0591014120812,0.0
1795,-3.0828608565511018,-1.0892002862482009,70.2080941543722,0.0
1796,-3.116177184002365,-1.1087024168870907,70.36118106692052,0.0
1797,-3.1445462304402314,-1.1289578833372997,70.51817198393775,0.0
1798,-3.16416442470372,-1.1471152751850324,70.67887402216886,0.0
1799,-3.1731421980476715,-1.1606145877254057,70.84309133489461,0.0
1800,-3.1717977570545783,-1.167854462012359,71.01062487399376,0.0
1801,-3.162344751104062,-1.1684847532284044,71.18127216035838,0.0
1802,-3.148157738313011,-1.163344433322302,71.3548270630155,0.0
1803,-3.1328696663941535,-1.1541383040812874,71.53107958736733,0.0
1804,-3.1195577869199176,-1.1429851590514792,71.70981567301996,0.0
1805,-3.1102109404711533,-1.1319715993045307,71.89081700172872,0.0
1806,-3.1055646669979233,-1.1228155515894618,72.07386081604288,0.0
1807,-3.1052781132152902,-1.1166940291631247,72.25871974928909,0.0
1808,-3.1083426043889153,-1.114235877230443,72.44516166758453,0.0
1809,-3.113573325310864,-1.1156360122687985,72.632949524624,0.0
1810,-3.1200416089099083,-1.1208226011689963,72.82184123003283,0.0
1811,-3.1273443984495373,-1.1296064681188518,73.0115895321263,0.0
1812,-3.1356650305672673,-1.1417605781397695,73.20194191595907,0.0
1813,-3.145639778047195,-1.1570098584930664,73.39264051758997,0.0
1814,-3.158091666508894,-1.174948365408058,73.583422055524,0.0
1815,-3.173716112245295,-1.1949319729062782,73.77401778032693,0.0
1816,-3.192801778501977,-1.2160120573256827,73.9641534434359,0.0
1817,-3.2150539859043725,-1.2369738730145092,74.15354928621201,0.0
1818,-3.2395673013657063,-1.2565212174378608,74.34192005029807,0.0
1819,-3.264972306639799,-1.2736095826082252,74.52897501035548,0.0
1820,-3.2897563163600965,-1.2878803566345527,74.71441803025625,0.0
1821,-3.312725358829011,-1.3000991852228263,74.89794764380268,0.0
1822,-3.3335347515049385,-1.312464745956225,75.07925716103337,0.0
1823,-3.353171833708909,-1.3286423175562025,75.25803480115182,0.0
1824,-3.3742350364363665,-1.3533993181755655,75.43396385308223,0.0
1825,-3.4008329302758518,-1.3917813936125203,75.60672286461363,0.0
1826,-3.437945661051246,-1.4478631997206963,75.77598586104054,0.0
1827,-3.490168991161138,-1.5232234123778299,75.94142259414225,0.0
1828,-3.5599050561828904,-1.6154052150586309,76.10269882226598,0.0
1829,-3.645257669100316,-1.716702400739996,76.25947662218825,0.0
1830,-3.738090569959694,-1.8136287296643891,76.41141473332655,0.0
1831,-3.82284980546132,-1.8873643926844945,76.55816893475624,0.0
1832,-3.876763432675273,-1.9153249232453553,76.69939245535818,0.0
1833,-3.871854015136603,-1.8737829169293412,76.83473641727934,0.0
1834,-3.7788176746406514,-1.741231396577826,76.96385031273189,0.0
1835,-3.5722972915299693,-1.5019647931435152,77.08638251398598,0.0
1836,-3.2365478562653607,-1.149227228737948,77.20198081622948,0.0
1837,-2.770149769560899,-0.6872828463976156,77.31029301277235,0.0
1838,-2.1884403481616057,-0.13191603290567278,77.41096750186753,0.0
