,time,sample_rate,Red,Green,Blue
0,0.0,74.97637109058313,2.4396361223035323,0.2866894176069237,0.4848774884034996
1,0.0132930274477946,74.97637109058313,2.4433540343603215,0.2871526113858278,0.4857756843761514
2,0.0265860548955893,74.97637109058313,2.446527092034276,0.2875565135189127,0.48657314550119074
3,0.0398790823433839,74.97637109058313,2.448753481006232,0.28785610271126255,0.4871908733583094
4,0.0531721097911786,74.97637109058313,2.449859563551962,0.28803143545119303,0.48758981062249934
5,0.0664651372389732,74.97637109058313,2.4499106553408376,0.28808873530738593,0.487773169875749
6,0.0797581646867679,74.97637109058313,2.4491719970442882,0.2880559703668114,0.48778010824326423
7,0.0930511921345625,74.97637109058313,2.4480403755597537,0.2879752598691134,0.4876742927990915
8,0.1063442195823572,74.97637109058313,2.446957372228477,0.2878933289482117,0.48752919839467673
9,0.1196372470301518,74.97637109058313,2.446315259609692,0.28785117218531386,0.4874119022403582
10,0.1329302744779465,74.97637109058313,2.446375735771276,0.2878751624195846,0.48736885328916046
11,0.1462233019257411,74.97637109058313,2.447228109139348,0.2879727056651093,0.4874185347497065
12,0.1595163293735358,74.97637109058313,2.4487996849776676,0.2881339351259918,0.48755346412765793
13,0.1728093568213305,74.97637109058313,2.4509037309982764,0.28833762112444566,0.4877487493029559
14,0.1861023842691251,74.97637109058313,2.4532978123394735,0.28855801316309987,0.4879721440129596
15,0.1993954117169198,74.97637109058313,2.455733926766866,0.2887704652086499,0.48819236163887675
16,0.2126884391647144,74.97637109058313,2.457994240272779,0.2889551882411322,0.48838469260515255
17,0.2259814666125091,74.97637109058313,2.459912540374353,0.2890992012106217,0.4885340069397801
18,0.2392744940603037,74.97637109058313,2.461383783871168,0.28919681774213996,0.4886355706859021
19,0.2525675215080984,74.97637109058313,2.4623647584923014,0.28924908727063264,0.4886942005158269
20,0.265860548955893,74.97637109058313,2.4628687595886003,0.28926259388704967,0.48872225624017024
21,0.2791535764036877,74.97637109058313,2.4629567270874833,0.28924795185246316,0.4887369073333247
22,0.2924466038514823,74.97637109058313,2.4627266964910013,0.2892182475882867,0.48875704448471086
23,0.305739631299277,74.97637109058313,2.462302810855504,0.2891875829616755,0.4888001582315158
24,0.3190326587470717,74.97637109058313,2.4618245940370684,0.28916978906776636,0.48887947565351375
25,0.3323256861948663,74.97637109058313,2.4614367499351055,0.28917731574616,0.48900162439244077
26,0.345618713642661,74.97637109058313,2.4612794611400894,0.28922026735715767,0.48916506725404796
27,0.3589117410904556,74.97637109058313,2.4614790307136625,0.2893055503500276,0.4893595067089948
28,0.3722047685382503,74.97637109058313,2.462138743263165,0.28943611895899685,0.4895663870180187
29,0.3854977959860449,74.97637109058313,2.463329996873118,0.2896103465921403,0.4897605192253836
30,0.3987908234338396,74.97637109058313,2.465084034994317,0.28982159838667515,0.48991272545337056
31,0.4120838508816343,74.97637109058313,2.4673849252803906,0.2900581144084574,0.48999325663779375
32,0.4253768783294289,74.97637109058313,2.4701647128490407,0.2903033203986045,0.48997560271226376
33,0.4386699057772236,74.97637109058313,2.473301835570345,0.29053666091829555,0.48984021252207616
34,0.4519629332250182,74.97637109058313,2.4766238524506705,0.29073499940229025,0.4895775996061578
35,0.4652559606728129,74.97637109058313,2.479915255763216,0.2908745546641965,0.4891903504843642
36,0.4785489881206075,74.97637109058313,2.4829305735920473,0.290933249532684,0.4886936813230596
37,0.4918420155684022,74.97637109058313,2.4854121930220536,0.29089325072566213,0.48811439432576165
38,0.5051350430161968,74.97637109058313,2.487111769164743,0.29074340526272485,0.4874883342230197
39,0.5184280704639915,74.97637109058313,2.4878138119042603,0.29048124447563073,0.48685669163924117
40,0.5317210979117861,74.97637109058313,2.487359301011558,0.2901142386738734,0.48626169435797695
41,0.5450141253595808,74.97637109058313,2.4856661336247674,0.2896600486874954,0.4857423375372784
42,0.5583071528073754,74.97637109058313,2.482743181626149,0.2891456329492853,0.48533080480819923
43,0.5716001802551701,74.97637109058313,2.4786957800149034,0.2886052170340878,0.4850500575625274
44,0.5848932077029647,74.97637109058313,2.473721616482559,0.2880772946058681,0.48491275705358655
45,0.5981862351507594,74.97637109058313,2.468097067100403,0.2876009793441278,0.4849214697163262
46,0.6114792625985541,74.97637109058313,2.462155176783738,0.2872121411440854,0.48507002993587117
47,0.6247722900463487,74.97637109058313,2.4562575516574614,0.2869398302446888,0.4853457726790109
48,0.6380653174941434,74.97637109058313,2.450763209510488,0.28680350110223196,0.4857321299946189
49,0.651358344941938,74.97637109058313,2.4459978054969813,0.28681137276133306,0.4862110279172838
50,0.6646513723897327,74.97637109058313,2.4422265620412498,0.2869599385188003,0.48676463731032815
51,0.6779443998375273,74.97637109058313,2.439633718352823,0.2872345302227117,0.48737623257631946
52,0.691237427285322,74.97637109058313,2.4383104721001385,0.2876109661703116,0.4880301495267931
53,0.7045304547331166,74.97637109058313,2.4382524286401828,0.2880582230967423,0.4887110614141585
54,0.7178234821809113,74.97637109058313,2.4393666146755404,0.2885417808901756,0.48940295608686507
55,0.731116509628706,74.97637109058313,2.4414866345131006,0.28902714929267015,0.49008825872276024
56,0.7444095370765006,74.97637109058313,2.4443927858567536,0.2894831234647426,0.4907474905958311
57,0.7577025645242953,74.97637109058313,2.447833862454585,0.2898844018146702,0.49135970178286753
58,0.7709955919720899,74.97637109058313,2.45154891124894,0.29021331343542345,0.4919037059768159
59,0.7842886194198846,74.97637109058313,2.455287787215017,0.2904605390592678,0.4923599321604389
60,0.7975816468676792,74.97637109058313,2.4588288188134704,0.2906248478842685,0.4927125419709215
61,0.8108746743154739,74.97637109058313,2.4619920339754016,0.2907119938837616,0.4929513797815863
62,0.8241677017632686,74.97637109058313,2.464647206445512,0.2907330035804901,0.49307334002511066
63,0.8374607292110632,74.97637109058313,2.4667167011458875,0.2907021342364852,0.4930828449662643
64,0.8507537566588579,74.97637109058313,2.4681736163138934,0.290634786301688,0.49299129906614586
65,0.8640467841066525,74.97637109058313,2.4690360864256093,0.290545622765647,0.4928155769034005
66,0.8773398115544472,74.97637109058313,2.469358824609739,0.2904470907620152,0.49257577138120523
67,0.8906328390022418,74.97637109058313,2.4692230669888793,0.2903484684708406,0.492292602654728
68,0.9039258664500364,74.97637109058313,2.4687260527238513,0.29025548307985627,0.491985029272249
69,0.9172188938978312,74.97637109058313,2.467971050000084,0.2901704714049727,0.4916685263771551
70,0.9305119213456258,74.97637109058313,2.4670587361023233,0.29009299020324464,0.491354220258099
71,0.9438049487934204,74.97637109058313,2.4660804788900568,0.290020733507269,0.49104886631724376
72,0.9570979762412152,74.97637109058313,2.4651137748697054,0.28995058450801303,0.49075557381848395
73,0.9703910036890098,74.97637109058313,2.4642198114826748,0.28987962562767844,0.4904750768003377
74,0.9836840311368044,74.97637109058313,2.4634428780681272,0.2898059535511754,0.4902072451225195
75,0.9969770585845992,74.97637109058313,2.462811186939845,0.289729187780564,0.489952500597429
76,1.0102700860323937,74.97637109058313,2.462338605529308,0.28965061577400036,0.48971285207431026
77,1.0235631134801884,74.97637109058313,2.462026844854535,0.2895729837353021,0.48949236566183285
78,1.036856140927983,74.97637109058313,2.461867778779984,0.28950000811737187,0.48929701534110526
79,1.0501491683757775,74.97637109058313,2.4618457440239463,0.2894357312554249,0.48913398555452275
80,1.0634421958235722,74.97637109058313,2.4619398433400743,0.2893838662435573,0.4890105956649706
81,1.076735223271367,74.97637109058313,2.4621263944685547,0.2893472692972105,0.4889330693280519
82,1.0900282507191617,74.97637109058313,2.462381697263084,0.2893276436912083,0.4889053736733682
83,1.1033212781669564,74.97637109058313,2.4626852135554214,0.289325523975361,0.48892830933076586
84,1.1166143056147508,74.97637109058313,2.463023078243959,0.28934052303843427,0.48899895850977526
85,1.1299073330625455,74.97637109058313,2.4633916227398784,0.28937176073886045,0.4891105165169147
86,1.1432003605103402,74.97637109058313,2.46380035247506,0.28941834465077265,0.4892524647002869
87,1.156493387958135,74.97637109058313,2.464273648917822,0.2894797522547038,0.48941100645214897
88,1.1697864154059294,74.97637109058313,2.464850429292289,0.2895559763206946,0.4895696884746791
89,1.183079442853724,74.97637109058313,2.465581138765778,0.2896473415061366,0.4897101603998249
90,1.1963724703015188,74.97637109058313,2.4665217801901638,0.28975397330556346,0.4898130700145523
91,1.2096654977493135,74.97637109058313,2.4677251731580734,0.28987498695276337,0.48985912686200106
92,1.2229585251971082,74.97637109058313,2.469230203798776,0.29000754604734136,0.4898303743578414
93,1.2362515526449027,74.97637109058313,2.4710503751929402,0.2901460002655128,0.4897116794177058
94,1.2495445800926974,74.97637109058313,2.4731633789675196,0.2902813334636745,0.4894923817682858
95,1.262837607540492,74.97637109058313,2.475503570389228,0.29040112935815965,0.48916795866938645
96,1.2761306349882868,74.97637109058313,2.4779590675380407,0.2904901920543922,0.48874147989651506
97,1.2894236624360813,74.97637109058313,2.4803746347149493,0.2905318524072058,0.488224579777003
98,1.302716689883876,74.97637109058313,2.4825606299126144,0.2905098656726282,0.487637679179706
99,1.3160097173316707,74.97637109058313,2.4843076987960737,0.29041068321241875,0.4870092596707296
100,1.3293027447794654,74.97637109058313,2.4854066520883613,0.2902257842565232,0.48637411818588944
101,1.34259577222726,74.97637109058313,2.4856718560015154,0.28995370289901284,0.48577069385937655
102,1.3558887996750546,74.97637109058313,2.484964704571378,0.28960139355863046,0.48523772917261526
103,1.3691818271228493,74.97637109058313,2.483213338139113,0.2891846481548438,0.4848106833493187
104,1.382474854570644,74.97637109058313,2.4804258180002594,0.2887274022336989,0.4845184202820507
105,1.3957678820184387,74.97637109058313,2.476695043678676,0.28825992705614806,0.4843806248248046
106,1.4090609094662332,74.97637109058313,2.4721946153946637,0.2878160747467295,0.4844061706488482
107,1.422353936914028,74.97637109058313,2.467165936465036,0.2874298963555853,0.4845925619421232
108,1.4356469643618226,74.97637109058313,2.4618979699514063,0.28713206234605104,0.4849266142712338
109,1.4489399918096173,74.97637109058313,2.4567019824477656,0.2869465706779402,0.48538637621282665
110,1.462233019257412,74.97637109058313,2.4518841908410764,0.2868882160603368,0.48594395461293033
111,1.4755260467052065,74.97637109058313,2.447719397958907,0.2869611474639147,0.4865687138753744
112,1.4888190741530012,74.97637109058313,2.4444284567294225,0.2871585874079547,0.48723031639945447
113,1.502112101600796,74.97637109058313,2.442161800799788,0.2874636503084303,0.4879011613919571
114,1.5154051290485906,74.97637109058313,2.4409904386402883,0.28785119963292466,0.4885579383395463
115,1.528698156496385,74.97637109058313,2.440904869720341,0.288290578119404,0.48918221410547724
116,1.5419911839441798,74.97637109058313,2.4418215405508765,0.28874884533415046,0.48976017265220345
117,1.5552842113919745,74.97637109058313,2.4435958039033467,0.28919407312556183,0.4902817804884357
118,1.5685772388397692,74.97637109058313,2.4460394898247384,0.2895982939653387,0.49073972844000335
119,1.581870266287564,74.97637109058313,2.4489402546420402,0.28993978802855197,0.4911284909407227
120,1.5951632937353584,74.97637109058313,2.4520801372314796,0.2902045100593585,0.4914437581976984
121,1.608456321183153,74.97637109058313,2.455252124284001,0.2903865841735904,0.49168236071634
122,1.6217493486309478,74.97637109058313,2.4582741499487755,0.29048791408814595,0.4918426542714667
123,1.6350423760787425,74.97637109058313,2.460999708453754,0.290517052488583,0.49192520096726616
124,1.6483354035265372,74.97637109058313,2.4633243825069973,0.29048753658699533,0.49193349644036455
125,1.6616284309743317,74.97637109058313,2.465188118762608,0.29041592485074996,0.49187447136502754
126,1.6749214584221264,74.97637109058313,2.4665735215404254,0.2903197663176892,0.49175854048076845
127,1.688214485869921,74.97637109058313,2.467500746125435,0.2902157071061491,0.4915990734999933
128,1.7015075133177158,74.97637109058313,2.46801980447082,0.2901178983125005,0.49141129612972123
129,1.7148005407655105,74.97637109058313,2.4682012486730023,0.2900368236951036,0.49121076488919874
130,1.728093568213305,74.97637109058313,2.468126269210827,0.28997861944373,0.4910116636640533
131,1.7413865956610997,74.97637109058313,2.4678772267468307,0.2899449135901333,0.4908252185933042
132,1.7546796231088944,74.97637109058313,2.467529523021931,0.2899331687110674,0.49065851646828024
133,1.767972650556689,74.97637109058313,2.467145512405485,0.28993746756498445,0.4905139445470614
134,1.7812656780044835,74.97637109058313,2.466770879016296,0.2899496381732289,0.49038934772273235
135,1.7945587054522782,74.97637109058313,2.4664335862733133,0.2899605733445627,0.490278851406978
136,1.807851732900073,74.97637109058313,2.4661451866232675,0.28996156775635135,0.49017417995080487
137,1.821144760347868,74.97637109058313,2.4659040018586476,0.2899455075753446,0.49006623407851957
138,1.834437787795662,74.97637109058313,2.465699486806574,0.28990780328758664,0.4899466694807854
139,1.8477308152434568,74.97637109058313,2.465516997562971,0.289846979849876,0.4898092408697181
140,1.8610238426912515,74.97637109058313,2.4653422097823743,0.28976482814009097,0.48965073769069206
141,1.8743168701390465,74.97637109058313,2.4651645642891418,0.28966607474878375,0.48947142289808077
142,1.887609897586841,74.97637109058313,2.4649793308174477,0.28955763529964607,0.4892749749766888
143,1.900902925034636,74.97637109058313,2.4647881379425978,0.2894475918218713,0.4890680086020578
144,1.91419595248243,74.97637109058313,2.464598074913821,0.2893440634809694,0.488859298882795
145,1.9274889799302248,74.97637109058313,2.4644196886833414,0.28925414419607764,0.4886588528906957
146,1.9407820073780195,74.97637109058313,2.4642643464555287,0.2891830611293269,0.4884769621907078
147,1.954075034825814,74.97637109058313,2.4641414944784983,0.28913366513375194,0.48832333919384646
148,1.9673680622736087,74.97637109058313,2.46405631697468,0.2891063054809513,0.4882063995177318
149,1.980661089721404,74.97637109058313,2.464008197909094,0.28909907675863467,0.48813271352460735
150,1.993954117169198,74.97637109058313,2.463990234958154,0.28910836716868704,0.4881066216421011
151,2.0072471446169926,74.97637109058313,2.463989876399312,0.28912959468588406,0.48812999440289073
152,2.020540172064788,74.97637109058313,2.4639905746944692,0.2891579973533501,0.4882021188702025
153,2.033833199512582,74.97637109058313,2.4639741989881156,0.28918934829942416,0.4883197035207081
154,2.0471262269603767,74.97637109058313,2.46392384063567,0.2892204918129388,0.4884770064932264
155,2.0604192544081714,74.97637109058313,2.4638265923190774,0.28924963705849455,0.48866609991354315
156,2.073712281855966,74.97637109058313,2.463675886045093,0.2892763918135005,0.4888772804127787
157,2.087005309303761,74.97637109058313,2.4634730351087555,0.28930156120462336,0.4890996214971947
158,2.100298336751555,74.97637109058313,2.463227730640249,0.28932676910507005,0.48932164018468977
159,2.11359136419935,74.97637109058313,2.4629573806356793,0.2893539788813556,0.48953202514688826
160,2.1268843916471445,74.97637109058313,2.462685331274611,0.28938499455387584,0.4897203549402034
161,2.140177419094939,74.97637109058313,2.4624381583016985,0.28942101533565745,0.4898777299199027
162,2.153470446542734,74.97637109058313,2.4622423421528317,0.2894623009276798,0.48999725329578636
163,2.1667634739905286,74.97637109058313,2.462120728571303,0.2895079858271836,0.4900743234020181
164,2.180056501438324,74.97637109058313,2.4620892153429104,0.28955605978419774,0.4901067337968276
165,2.193349528886118,74.97637109058313,2.4621540904034123,0.28960351084609887,0.4900946110407119
166,2.2066425563339127,74.97637109058313,2.4623103792985566,0.28964660927581165,0.49004024332248874
167,2.219935583781707,74.97637109058313,2.4625414505865466,0.28968129631456174,0.48994786108380517
168,2.2332286112295017,74.97637109058313,2.462819991922274,0.2897036378175341,0.4898234222561748
169,2.2465216386772964,74.97637109058313,2.4631103257966314,0.2897103080826714,0.48967443223932533
170,2.259814666125091,74.97637109058313,2.463371899823593,0.28969906478412544,0.48950979726400135
171,2.273107693572886,74.97637109058313,2.463563675097677,0.2896691619345912,0.4893396753988162
172,2.2864007210206805,74.97637109058313,2.4636490536845863,0.28962164909640037,0.48917525895103914
173,2.299693748468475,74.97637109058313,2.463600932138609,0.28955952149012887,0.48902840284631977
174,2.31298677591627,74.97637109058313,2.463406437019949,0.2894876979968592,0.488911013596439
175,2.3262798033640646,74.97637109058313,2.4630708852458074,0.28941281136197444,0.48883413937601555
176,2.339572830811859,74.97637109058313,2.462620514937844,0.2893428046873895,0.4888067563023822
177,2.3528658582596536,74.97637109058313,2.4621035555853408,0.2892863419615993,0.4888343250412285
178,2.3661588857074483,74.97637109058313,2.4615892602362734,0.2892520576053048,0.4889172824733406
179,2.379451913155243,74.97637109058313,2.461164620689064,0.2892476900886931,0.489049714936217
180,2.3927449406030377,74.97637109058313,2.4609286415021714,0.28927916548682553,0.489218508809942
181,2.4060379680508324,74.97637109058313,2.46098426572845,0.2893497152330173,0.4894032703888441
182,2.419330995498627,74.97637109058313,2.4614283192165747,0.2894591247091948,0.4895772390894708
183,2.4326240229464218,74.97637109058313,2.462340151483753,0.28960321239923115,0.4897092889935134
184,2.4459170503942165,74.97637109058313,2.463769964395659,0.2897736307920355,0.4897669410080232
185,2.4592100778420107,74.97637109058313,2.4657280858442614,0.28995805906897976,0.48972012058985803
186,2.472503105289805,74.97637109058313,2.4681766053883702,0.29014082444148137,0.48954522881535445
187,2.4857961327376,74.97637109058313,2.471024783768765,0.29030394614760013,0.48922898115536634
188,2.499089160185395,74.97637109058313,2.4741294288005555,0.2904285476632974,0.4887714344731415
189,2.512382187633189,74.97637109058313,2.477300978568242,0.2904965342506024,0.48818768159177395
190,2.525675215080984,74.97637109058313,2.4803153213503175,0.2904923910305636,0.4875078418626562
191,2.538968242528779,74.97637109058313,2.4829305134430095,0.29040492761754716,0.48677519715860657
192,2.5522612699765737,74.97637109058313,2.4849071111308203,0.29022878388154866,0.4860425843690278
193,2.5655542974243684,74.97637109058313,2.4860308581413024,0.2899655202051518,0.4853674171739441
194,2.5788473248721626,74.97637109058313,2.4861357673245728,0.2896241446018917,0.4848059375143299
195,2.5921403523199573,74.97637109058313,2.485124343086991,0.2892209758092997,0.4844074480087267
196,2.605433379767752,74.97637109058313,2.482981658242302,0.28877880177881426,0.4842092470959635
197,2.6187264072155467,74.97637109058313,2.4797812650229285,0.2883253616476931,0.4842327864071865
198,2.632019434663341,74.97637109058313,2.4756821084199614,0.2878912504573836,0.48448143012300504
199,2.645312462111136,74.97637109058313,2.4709165393161028,0.2875074136070148,0.4849401419461268
200,2.658605489558931,74.97637109058313,2.4657705343251073,0.2872024555910249,0.4855771955833925
201,2.671898517006725,74.97637109058313,2.4605582030691915,0.28700003204321517,0.4863476354805286
202,2.68519154445452,74.97637109058313,2.45559340444928,0.2869166159964462,0.48719796501796897
203,2.6984845719023145,74.97637109058313,2.451161681789289,0.28695988523309135,0.48807144689863086
204,2.711777599350109,74.97637109058313,2.44749568894231,0.2871278718787492,0.48891339276647755
205,2.725070626797904,74.97637109058313,2.4447568118400964,0.28740895644151776,0.48967588161957365
206,2.7383636542456986,74.97637109058313,2.443024859221036,0.2877827800337993,0.4903214675569172
207,2.7516566816934933,74.97637109058313,2.4422966355580034,0.288222057438407,0.4908255914562796
208,2.764949709141288,74.97637109058313,2.44249308783244,0.2886951111970154,0.49117757476042107
209,2.7782427365890827,74.97637109058313,2.443473761150832,0.2891688343730684,0.4913802277446668
210,2.7915357640368774,74.97637109058313,2.4450566219265712,0.2896117462112204,0.4914482369578631
211,2.804828791484672,74.97637109058313,2.44704054945923,0.28999680050984433,0.49140559936226064
212,2.8181218189324664,74.97637109058313,2.4492270649448216,0.2903036404293496,0.491282439184057
213,2.831414846380261,74.97637109058313,2.4514384048781817,0.2905200656378556,0.49111157428279045
214,2.844707873828056,74.97637109058313,2.453530726857523,0.29064257848023584,0.49092519056100814
215,2.8580009012758505,74.97637109058313,2.4554022033615377,0.2906759917100413,0.49075193757768193
216,2.871293928723645,74.97637109058313,2.4569958466602655,0.2906321951686572,0.4906146826677722
217,2.88458695617144,74.97637109058313,2.4582972796131632,0.29052827667043757,0.4905290653875899
218,2.8978799836192346,74.97637109058313,2.4593283136170463,0.29038425981920524,0.490502892428661
219,2.9111730110670293,74.97637109058313,2.460137608953062,0.2902207499180795,0.49053631872437675
220,2.924466038514824,74.97637109058313,2.460789831770711,0.29005676633810856,0.4906226846178553
221,2.9377590659626183,74.97637109058313,2.4613546623516225,0.2899079903558152,0.49074982937098394
222,2.951052093410413,74.97637109058313,2.461896803542974,0.2897855821311977,0.490901681866223
223,2.964345120858208,74.97637109058313,2.46246785260494,0.28969563336536147,0.4910599378474674
224,2.9776381483060024,74.97637109058313,2.4631005925031277,0.28963923799386826,0.49120566598314613
225,2.990931175753797,74.97637109058313,2.4638059733588293,0.28961309430484694,0.49132075106536516
226,3.004224203201592,74.97637109058313,2.4645728137692022,0.2896105056926358,0.49138916552493794
227,3.0175172306493865,74.97637109058313,2.4653700575415596,0.2896226258848489,0.49139809510190663
228,3.030810258097181,74.97637109058313,2.4661512632143108,0.28963979486421443,0.49133892022471387
229,3.044103285544976,74.97637109058313,2.4668608671137364,0.2896528275933236,0.49120803399057783
230,3.05739631299277,74.97637109058313,2.467441636777841,0.28965414080238705,0.49100746533971634
231,3.070689340440565,74.97637109058313,2.4678426225985,0.28963862801046397,0.49074523450005275
232,3.08398236788836,74.97637109058313,2.4680268349267895,0.2896042249823705,0.49043531413855485
233,3.0972753953361543,74.97637109058313,2.4679778416849656,0.2895521444872325,0.490097044404617
234,3.110568422783949,74.97637109058313,2.4677045173228613,0.28948677636077813,0.48975387282491506
235,3.123861450231744,74.97637109058313,2.4672432902336596,0.2894152494049699,0.48943136697493556
236,3.1371544776795384,74.97637109058313,2.4666574336459344,0.2893466717783347,0.48915457297100773
237,3.150447505127333,74.97637109058313,2.466033213171303,0.2892911072433822,0.48894494525121196
238,3.163740532575128,74.97637109058313,2.4654730201047603,0.2892583789862864,0.48881722075749084
239,3.177033560022922,74.97637109058313,2.465085952440392,0.28925681585325297,0.4887767165034156
240,3.1903265874707167,74.97637109058313,2.4649766197604794,0.2892920736605165,0.4888175600536325
241,3.2036196149185114,74.97637109058313,2.4652332070976724,0.2893661724066244,0.4889222958491053
242,3.216912642366306,74.97637109058313,2.4659160031717673,0.2894768745485913,0.4890631431533328
243,3.230205669814101,74.97637109058313,2.467047654132128,0.28961749000776393,0.48920493203980725
244,3.2434986972618955,74.97637109058313,2.4686063301169376,0.2897771586767777,0.489309451615253
245,3.2567917247096902,74.97637109058313,2.470522786742208,0.28994163078650836,0.4893406640967489
246,3.270084752157485,74.97637109058313,2.4726819770242123,0.2900945082149284,0.48927002875690023
247,3.28337777960528,74.97637109058313,2.474929443954252,0.29021885193110447,0.4890810918885488
248,3.2966708070530744,74.97637109058313,2.477082216794516,0.29029903263106377,0.4887725618601722
249,3.3099638345008686,74.97637109058313,2.4789433978145334,0.29032265171289484,0.4883593002920354
250,3.323256861948664,74.97637109058313,2.480319259428406,0.2902822854424403,0.48787098717303545
251,3.336549889396458,74.97637109058313,2.4810375055167584,0.2901767913292821,0.48734859955647397
252,3.3498429168442527,74.97637109058313,2.4809650276190958,0.29001197004168733,0.4868392083916371
253,3.3631359442920474,74.97637109058313,2.4800230709994833,0.2898004429422116,0.4863898789192219
254,3.376428971739842,74.97637109058313,2.47819781569479,0.2895606813008397,0.48604160738959756
255,3.389721999187637,74.97637109058313,2.475544990800545,0.2893152247096291,0.4858242260871023
256,3.4030150266354315,74.97637109058313,2.4721878300809426,0.2890882432441829,0.4857530602187311
257,3.4163080540832262,74.97637109058313,2.4683083541532316,0.2889027105069734,0.485827779527948
258,3.4296010815310205,74.97637109058313,2.464132690146812,0.2887775415892648,0.48603341807502143
259,3.442894108978815,74.97637109058313,2.4599118280112924,0.2887250908020123,0.48634321148607385
260,3.45618713642661,74.97637109058313,2.4558997571841945,0.2887493847190432,0.48672277775524103
261,3.4694801638744046,74.97637109058313,2.4523312567972084,0.28884538300502893,0.48713500897314593
262,3.4827731913222,74.97637109058313,2.4494016817495208,0.2889994214041716,0.4875448736992825
263,3.496066218769994,74.97637109058313,2.4472508825042696,0.28919081837686034,0.48792337112693823
264,3.5093592462177887,74.97637109058313,2.445952937950828,0.28939444744079396,0.48825011601088886
265,3.5226522736655834,74.97637109058313,2.445512717816318,0.2895839223243611,0.48851433952399287
266,3.535945301113378,74.97637109058313,2.4458695180121213,0.289734939506232,0.4887143946589758
267,3.5492383285611724,74.97637109058313,2.4469072188805265,0.2898282920895145,0.48885610115885353
268,3.562531356008967,74.97637109058313,2.448469566623151,0.2898521174489374,0.48895041040587334
269,3.575824383456762,74.97637109058313,2.4503784025982753,0.289803061990605,0.48901090001271413
270,3.5891174109045565,74.97637109058313,2.4524524541808486,0.2896862199888867,0.48905153368374465
271,3.602410438352351,74.97637109058313,2.4545246756170753,0.28951390048876086,0.4890849778062648
272,3.615703465800146,74.97637109058313,2.45645650868315,0.28930346285283415,0.48912159463034405
273,3.6289964932479406,74.97637109058313,2.45814774154824,0.28907460535183976,0.4891690726165498
274,3.6422895206957353,74.97637109058313,2.4595411949291126,0.2888465671501089,0.4892325369650202
275,3.65558254814353,74.97637109058313,2.460622177985307,0.28863569919475635,0.4893149232929526
276,3.668875575591324,74.97637109058313,2.4614132940910602,0.2884537753196039,0.48941739740663626
277,3.682168603039119,74.97637109058313,2.46196566328511,0.2883072708984484,0.4895396552737664
278,3.6954616304869137,74.97637109058313,2.4623479433215003,0.28819765883233356,0.48968002199980054
279,3.708754657934709,74.97637109058313,2.462634661315131,0.28812256602238395,0.4898353636191004
280,3.722047685382503,74.97637109058313,2.462895316796401,0.2880774388281732,0.4900009063751291
281,3.735340712830298,74.97637109058313,2.463185500108726,0.28805729862190416,0.49017010463124533
282,3.748633740278093,74.97637109058313,2.463540917086345,0.2880582403087938,0.49033469982878236
283,3.761926767725887,74.97637109058313,2.463974767361836,0.28807841686970387,0.4904850707581416
284,3.775219795173682,74.97637109058313,2.464478449940624,0.28811833987337276,0.49061090357408066
285,3.788512822621476,74.97637109058313,2.465025134185942,0.2881804655274237,0.49070212937608537
286,3.801805850069271,74.97637109058313,2.4655754007692554,0.2882681980313449,0.49075000938317614
287,3.8150988775170656,74.97637109058313,2.4660839702534116,0.28838456377181776,0.4907482051430054
288,3.82839190496486,74.97637109058313,2.466506512117683,0.28853086756066154,0.4906936612206583
289,3.841684932412655,74.97637109058313,2.466805647541499,0.2887056318725749,0.490587173966064
290,3.8549779598604497,74.97637109058313,2.466955483300748,0.28890404924633833,0.49043360640547046
291,3.868270987308245,74.97637109058313,2.4669442883588877,0.2891180656836722,0.4902417450724584
292,3.881564014756039,74.97637109058313,2.4667751996006815,0.2893370841465155,0.49002377340307035
293,3.8948570422038338,74.97637109058313,2.4664650841231817,0.28954915807239057,0.4897943619318205
294,3.908150069651628,74.97637109058313,2.46604187659555,0.28974245706914836,0.4895694512327302
295,3.921443097099423,74.97637109058313,2.4655408497542406,0.28990674498417557,0.4893648524997497
296,3.9347361245472174,74.97637109058313,2.4650003678846972,0.2900346194461556,0.48919480792626757
297,3.948029151995012,74.97637109058313,2.464457717835357,0.29012231728174975,0.4890706631106869
298,3.961322179442807,74.97637109058313,2.4639456033372307,0.2901699790257415,0.488999802300974
299,3.9746152068906015,74.97637109058313,2.4634898150209934,0.29018136917749576,0.4889849754699573
300,3.987908234338396,74.97637109058313,2.4631084417337075,0.29016314559296513,0.48902410212890013
301,4.001201261786191,74.97637109058313,2.4628127703868303,0.2901238420392851,0.48911057468575414
302,4.014494289233985,74.97637109058313,2.4626097495967523,0.29007275925519865,0.4892340145996855
303,4.02778731668178,74.97637109058313,2.462505601277308,0.2900189478814134,0.4893813714608174
304,4.041080344129575,74.97637109058313,2.4625099001497466,0.2899704175135047,0.4895382115324582
305,4.05437337157737,74.97637109058313,2.4626392532122816,0.28993363447902076,0.48969002659025346
306,4.067666399025164,74.97637109058313,2.4629196433095313,0.2899132958940328,0.48982340742740477
307,4.080959426472958,74.97637109058313,2.4633865835830266,0.2899123078758933,0.489926963645866
308,4.094252453920753,74.97637109058313,2.464082474405025,0.2899318652791578,0.48999192224808436
309,4.107545481368548,74.97637109058313,2.4650509501112046,0.2899715346721387,0.4900123908790854
310,4.120838508816343,74.97637109058313,2.466328512228876,0.2900292781411016,0.48998531809638507
311,4.134131536264137,74.97637109058313,2.4679343049452007,0.290101410984483,0.48991021710294347
312,4.147424563711932,74.97637109058313,2.4698594073895404,0.2901825452727169,0.4897887387795673
313,4.160717591159727,74.97637109058313,2.4720573927142704,0.2902656210486561,0.48962418467384383
314,4.174010618607522,74.97637109058313,2.4744380130729806,0.29034215159525845,0.48942104198036
315,4.187303646055316,74.97637109058313,2.4768656519011767,0.29040278519955154,0.489184602352545
316,4.20059667350311,74.97637109058313,2.479163818840756,0.29043821458753083,0.48892069780610586
317,4.213889700950905,74.97637109058313,2.48112645327547,0.2904403780584974,0.4886355551965471
318,4.2271827283987,74.97637109058313,2.4825356880054934,0.29040381263602616,0.488335742703266
319,4.240475755846495,74.97637109058313,2.483184190172823,0.2903269468121647,0.4880281643702421
320,4.253768783294289,74.97637109058313,2.4828992138843704,0.29021307855853784,0.48772005636292337
321,4.267061810742084,74.97637109058313,2.481565265624783,0.29007079213779663,0.48741895071569097
322,4.280354838189878,74.97637109058313,2.479142352205098,0.2899136279480138,0.48713259328274433
323,4.2936478656376735,74.97637109058313,2.4756771568970946,0.28975892385102187,0.4868688233688994
324,4.306940893085468,74.97637109058313,2.4713053221655517,0.2896258765197784,0.48663543459327885
325,4.320233920533262,74.97637109058313,2.466244182142448,0.28953300523995984,0.4864400351273994
326,4.333526947981057,74.97637109058313,2.4607765670266843,0.28949531683095014,0.4862899147808065
327,4.346819975428852,74.97637109058313,2.4552274827613423,0.2895215514932641,0.48619191160335024
328,4.360113002876647,74.97637109058313,2.4499363626711723,0.2896119235470158,0.4861522346931877
329,4.373406030324441,74.97637109058313,2.445228062938344,0.2897567515393489,0.4861761571500883
330,4.386699057772236,74.97637109058313,2.44138577932523,0.2899362968759141,0.48626752538138746
331,4.39999208522003,74.97637109058313,2.4386286416447502,0.2901220013074936,0.48642813391954015
332,4.413285112667825,74.97637109058313,2.43709600843056,0.290279139551427,0.4866570751852499
333,4.42657814011562,74.97637109058313,2.4368396988183756,0.290370700328512,0.4869501748821926
334,4.439871167563414,74.97637109058313,2.4378246698728336,0.29036210251334843,0.48729962798396903
335,4.453164195011209,74.97637109058313,2.439937206059427,0.29022617575115306,0.4876939516576631
336,4.466457222459003,74.97637109058313,2.4429977799419196,0.28994772198711577,0.4881183395997789
337,4.479750249906799,74.97637109058313,2.4467759502411344,0.28952695575728227,0.4885554412514517
338,4.493043277354593,74.97637109058313,2.4510068578115534,0.28898121324695325,0.48898651579814045
339,4.506336304802388,74.97637109058313,2.4554094870915533,0.28834452023272056,0.48939284196104443
340,4.519629332250182,74.97637109058313,2.459705695940473,0.2876648937122268,0.489757216348519
341,4.532922359697977,74.97637109058313,2.4636385541733348,0.2869995805614478,0.49006535557982583
342,4.546215387145772,74.97637109058313,2.46698887441968,0.2864087599809648,0.4903070325856673
343,4.559508414593566,74.97637109058313,2.4695890423022373,0.2859485033983396,0.49047681985482455
344,4.572801442041361,74.97637109058313,2.4713333209197934,0.2856639735764621,0.49057437120279734
345,4.586094469489155,74.97637109058313,2.4721838735474067,0.2855839102893687,0.4906042364094105
346,4.59938749693695,74.97637109058313,2.472171881522635,0.28571718395856543,0.49057525866851753
347,4.612680524384745,74.97637109058313,2.47139338552229,0.2860516478497968,0.4904996453655224
348,4.62597355183254,74.97637109058313,2.4699998624361372,0.28655527534794584,0.4903918244124422
349,4.639266579280334,74.97637109058313,2.4681840432971662,0.2871796633995412,0.49026720129244367
350,4.652559606728129,74.97637109058313,2.4661620198132264,0.2878657151662031,0.4901409195688339
351,4.665852634175923,74.97637109058313,2.4641531920677973,0.28855072326702685,0.4900267060435254
352,4.679145661623718,74.97637109058313,2.4623599836712393,0.2891757634436272,0.48993585866725026
353,4.692438689071513,74.97637109058313,2.4609494104620335,0.2896923377878372,0.48987641807219534
354,4.705731716519307,74.97637109058313,2.4600384824595505,0.2900673794590383,0.4898525569624641
355,4.719024743967102,74.97637109058313,2.4596850373839505,0.2902860094359825,0.4898642255945359
356,4.7323177714148965,74.97637109058313,2.4598849873195157,0.29035179630848,0.48990710059240666
357,4.745610798862692,74.97637109058313,2.4605761909819392,0.2902846519057501,0.48997288853456783
358,4.758903826310486,74.97637109058313,2.461648354578723,0.29011683556905576,0.49005002310490425
359,4.772196853758281,74.97637109058313,2.4629576349469318,0.28988778202965215,0.4901247585917717
360,4.785489881206075,74.97637109058313,2.464344076421103,0.2896385764834395,0.4901826143751557
361,4.79878290865387,74.97637109058313,2.465649732410515,0.2894068670913033,0.49021007147208795
362,4.812075936101665,74.97637109058313,2.46673533531048,0.28922284911812285,0.4901963474730521
363,4.825368963549459,74.97637109058313,2.4674936703120696,0.28910671727694653,0.4901350005000729
364,4.838661990997254,74.97637109058313,2.4678583273299055,0.2890677154580061,0.4900250961735803
365,4.851955018445048,74.97637109058313,2.4678071709734533,0.28910466630967746,0.48987172426834563
366,4.865248045892844,74.97637109058313,2.4673605876123608,0.28920767561905086,0.48968574048594327
367,4.878541073340638,74.97637109058313,2.466575245250032,0.28936059875119347,0.4894827190098328
368,4.891834100788433,74.97637109058313,2.4655346474692887,0.2895438305883784,0.48928122372273203
369,4.905127128236227,74.97637109058313,2.464338103988658,0.28973702354455305,0.4891006168742572
370,4.9184201556840215,74.97637109058313,2.463089828234229,0.28992142840778273,0.4889587007292356
371,4.931713183131817,74.97637109058313,2.4618896906669834,0.2900816652368532,0.48886951589941324
372,4.945006210579611,74.97637109058313,2.46082672965588,0.29020684360927645,0.48884159509878655
373,4.958299238027406,74.97637109058313,2.4599759161831867,0.29029104571105874,0.488876898693407
374,4.9715922654752,74.97637109058313,2.459397987484768,0.29033325151734857,0.4889705527900772
375,4.984885292922995,74.97637109058313,2.459141531340555,0.2903368195797785,0.48911139119713454
376,4.99817832037079,74.97637109058313,2.459246038995,0.2903086437060196,0.48928319037514184
377,5.011471347818585,74.97637109058313,2.4597444468809773,0.29025809451760604,0.48946640001202885
378,5.024764375266379,74.97637109058313,2.460663805948946,0.29019583753580613,0.489640123692721
379,5.038057402714173,74.97637109058313,2.462023145082224,0.2901326070999455,0.489784098606836
380,5.0513504301619685,74.97637109058313,2.4638282647880985,0.2900780146273582,0.48988045597179347
381,5.064643457609763,74.97637109058313,2.466063991338519,0.29003948036922006,0.48991510349527323
382,5.077936485057558,74.97637109058313,2.468685189788569,0.2900213929895816,0.4898786428581641
383,5.091229512505352,74.97637109058313,2.4716084195432484,0.29002460946584424,0.48976680438109405
384,5.104522539953147,74.97637109058313,2.474706383634576,0.290046396483335,0.48958043689625097
385,5.117815567400942,74.97637109058313,2.477807181811578,0.2900808752586589,0.48932512776816744
386,5.131108594848737,74.97637109058313,2.4806998177374764,0.29011996545108193,0.4890105454852005
387,5.144401622296531,74.97637109058313,2.483146552191355,0.2901547385220113,0.4886495985797296
388,5.157694649744325,74.97637109058313,2.4849016661683345,0.2901769981860506,0.48825749524132483
389,5.17098767719212,74.97637109058313,2.4857350358649155,0.2901808277829629,0.4878507738095493
390,5.184280704639915,74.97637109058313,2.485457834553582,0.29016381065189184,0.4874463605333164
391,5.19757373208771,74.97637109058313,2.4839470512939554,0.29012765554003095,0.4870607008519683
392,5.210866759535504,74.97637109058313,2.481165475575111,0.29007804338369275,0.4867090045488684
393,5.224159786983299,74.97637109058313,2.4771742203581053,0.29002364428389354,0.4864046414207696
394,5.2374528144310935,74.97637109058313,2.4721356787917617,0.2899744133788998,0.48615871830829527
395,5.250745841878889,74.97637109058313,2.46630595790952,0.2899394304918766,0.4859798599163092
396,5.264038869326683,74.97637109058313,2.4600171358265674,0.28992466745767925,0.4858742007364846
397,5.277331896774477,74.97637109058313,2.4536509554023023,0.28993112083191075,0.4858455421307691
398,5.290624924222272,74.97637109058313,2.4476066285853344,0.289953719517392,0.4858955510246401
399,5.3039179516700665,74.97637109058313,2.4422661507418315,0.2899813053723478,0.4860238813096427
400,5.317210979117862,74.97637109058313,2.4379608355417512,0.2899978053647875,0.4862281905839604
401,5.330504006565656,74.97637109058313,2.4349426515689276,0.289984496361273,0.4865040729599394
402,5.343797034013451,74.97637109058313,2.433363440798551,0.2899230482035919,0.48684492312382094
403,5.357090061461245,74.97637109058313,2.4332642743211865,0.28979885999607247,0.4872417706042177
404,5.3703830889090405,74.97637109058313,2.4345757766538396,0.2896041150449833,0.4876831668081003
405,5.383676116356835,74.97637109058313,2.437128443057789,0.28933999367547153,0.488155224813662
406,5.396969143804629,74.97637109058313,2.440671045847965,0.28901760186353165,0.4886418972474455
407,5.410262171252424,74.97637109058313,2.4448952819484515,0.2886573773240631,0.4891255398006053
408,5.423555198700218,74.97637109058313,2.4494644536488734,0.2882869859766393,0.48958775819027556
409,5.4368482261480136,74.97637109058313,2.4540432052793406,0.2879379742835548,0.490010487265679
410,5.450141253595808,74.97637109058313,2.4583252447256796,0.28764165201079284,0.49037721183554567
411,5.463434281043603,74.97637109058313,2.462056556352467,0.2874248121933022,0.49067421400232547
412,5.476727308491397,74.97637109058313,2.4650523626393084,0.28730593273867855,0.4908917212509432
413,5.490020335939192,74.97637109058313,2.467206875997788,0.2872924561652432,0.491024831112946
414,5.503313363386987,74.97637109058313,2.4684956443329926,0.2873796178535884,0.4910741001334279
415,5.516606390834781,74.97637109058313,2.4689709605378187,0.2875510237492821,0.4910457067912732
416,5.529899418282576,74.97637109058313,2.468751334020718,0.28778081055203947,0.49095113045400024
417,5.54319244573037,74.97637109058313,2.468006389331342,0.28803703528869845,0.4908063309803298
418,5.556485473178165,74.97637109058313,2.46693876078583,0.2882859574857157,0.4906304635638658
419,5.56977850062596,74.97637109058313,2.465764606161738,0.28849677996554596,0.4904442154520478
420,5.583071528073755,74.97637109058313,2.4646942930011857,0.2886462113354729,0.49026789916742297
421,5.596364555521549,74.97637109058313,2.4639146517583637,0.28872216098627895,0.49011947782090337
422,5.609657582969344,74.97637109058313,2.4635739758113218,0.28872599019980566,0.4900127268329013
423,5.6229506104171385,74.97637109058313,2.463770706390471,0.28867292362799984,0.4899557409726596
424,5.636243637864933,74.97637109058313,2.464546483471195,0.2885904533905963,0.4899499734351297
425,5.649536665312728,74.97637109058313,2.4658839689297567,0.2885148326849685,0.4899899534674086
426,5.662829692760522,74.97637109058313,2.4677095442180375,0.28848602987737204,0.4900637695044183
427,5.676122720208317,74.97637109058313,2.4699006429291255,0.28854176386674213,0.4901543191800706
428,5.689415747656112,74.97637109058313,2.472297105867672,0.2887114278098246,0.4902412230309476
429,5.702708775103907,74.97637109058313,2.4747155698246703,0.2890107927259923,0.49030319285834356
430,5.716001802551701,74.97637109058313,2.4769655702752127,0.289438336136504,0.49032055894171844
431,5.729294829999496,74.97637109058313,2.4788657876545424,0.28997385364787936,0.49027761353634075
432,5.74258785744729,74.97637109058313,2.480258766389732,0.29057969886258694,0.49016443749881705
433,5.755880884895085,74.97637109058313,2.481022740574126,0.29120460190699604,0.489977947712453
434,5.76917391234288,74.97637109058313,2.4810798705657895,0.2917896028663096,0.4897220264867887
435,5.782466939790674,74.97637109058313,2.4804005682920724,0.29227527709162554,0.48940674838109893
436,5.795759967238469,74.97637109058313,2.4790036132916016,0.29260918692796,0.48904687456559803
437,5.809052994686264,74.97637109058313,2.476952192127971,0.292752420496783,0.48865990801466036
438,5.822346022134059,74.97637109058313,2.4743467555075753,0.2926842429008656,0.4882640684463055
439,5.835639049581853,74.97637109058313,2.4713159811848637,0.29240426146930787,0.4878765395023357
440,5.848932077029648,74.97637109058313,2.468007082448895,0.2919318956315307,0.48751226260937386
441,5.862225104477442,74.97637109058313,2.4645764502398246,0.2913032754395411,0.4871834179874078
442,5.8755181319252365,74.97637109058313,2.461181244128835,0.29056609047818754,0.48689957186055166
443,5.888811159373032,74.97637109058313,2.4579721320178045,0.2897733007596067,0.4866683163115713
444,5.902104186820826,74.97637109058313,2.455087033852368,0.2889767978202232,0.4864961203056381
445,5.915397214268621,74.97637109058313,2.452645542957489,0.2882220336362201,0.4863890775397586
446,5.928690241716415,74.97637109058313,2.450743726947975,0.28754438349147654,0.4863532873112507
447,5.9419832691642105,74.97637109058313,2.449449233249505,0.2869676306196435,0.4863946980937889
448,5.955276296612005,74.97637109058313,2.4487969664153937,0.28650452850710517,0.48651835610789396
449,5.9685693240598,74.97637109058313,2.4487859484789483,0.2861590019445067,0.48672717710722246
450,5.981862351507594,74.97637109058313,2.4493781947588524,0.28592927870296436,0.48702055456129445
451,5.995155378955388,74.97637109058313,2.4505004357505156,0.2858111507676531,0.48739318475417576
452,6.008448406403184,74.97637109058313,2.452049235132787,0.2858006034567792,0.48783441441794134
453,6.021741433850978,74.97637109058313,2.4538995277680082,0.28589520207971864,0.48832829368429426
454,6.035034461298773,74.97637109058313,2.4559159678884335,0.28609398479217385,0.48885437796185355
455,6.048327488746567,74.97637109058313,2.4579658767695407,0.2863960900993913,0.4893891719922965
456,6.061620516194362,74.97637109058313,2.459932107245329,0.28679865200895677,0.48990798133259994
457,6.074913543642157,74.97637109058313,2.461723922227638,0.28729456532641556,0.49038686214920185
458,6.088206571089952,74.97637109058313,2.463284125896706,0.2878706966301422,0.49080435469104194
459,6.101499598537746,74.97637109058313,2.464591192868336,0.28850701372209825,0.49114274873078595
460,6.11479262598554,74.97637109058313,2.465655928756656,0.28917690687365005,0.49138874541953875
461,6.128085653433336,74.97637109058313,2.4665131345975984,0.2898487257700646,0.4915335142905692
462,6.14137868088113,74.97637109058313,2.4672096691560097,0.2904883163634103,0.49157226641485374
463,6.154671708328925,74.97637109058313,2.4677910249661856,0.29106215769277305,0.49150360860609865
464,6.167964735776719,74.97637109058313,2.4682888959574076,0.29154060138161264,0.49132907040072116
465,6.181257763224514,74.97637109058313,2.4687121157255674,0.29190071759496744,0.49105310219472864
466,6.1945507906723085,74.97637109058313,2.469042768932566,0.2921283419692304,0.4906835470625183
467,6.207843818120104,74.97637109058313,2.469238315823863,0.2922190725964673,0.49023238550725357
468,6.221136845567898,74.97637109058313,2.4692394425582718,0.2921781434450776,0.48971649437664283
469,6.234429873015692,74.97637109058313,2.468982281980649,0.29201926481934876,0.4891581039929621
470,6.247722900463487,74.97637109058313,2.468412753649509,0.2917626815364777,0.48858460623946054
471,6.261015927911282,74.97637109058313,2.4675002346080817,0.29143283061112474,0.48802744410941534
472,6.274308955359077,74.97637109058313,2.4662478484649406,0.29105596722979593,0.48751999142621855
473,6.287601982806871,74.97637109058313,2.4646973350999395,0.29065798648521585,0.4870945641293132
474,6.300895010254666,74.97637109058313,2.4629274942123134,0.2902625735595276,0.486778937155017
475,6.31418803770246,74.97637109058313,2.461046377236904,0.2898897922834191,0.48659292016673694
476,6.327481065150256,74.97637109058313,2.4591785437623113,0.28955517535005093,0.4865456232919385
477,6.34077409259805,74.97637109058313,2.457449583893322,0.28926931198249367,0.4866339607139113
478,6.354067120045844,74.97637109058313,2.4559705675216934,0.28903788331290897,0.4868427065825375
479,6.367360147493639,74.97637109058313,2.4548250515131484,0.288862071533002,0.4871461690853172
480,6.3806531749414335,74.97637109058313,2.454060770238699,0.288739255705784,0.48751133306986744
481,6.393946202389229,74.97637109058313,2.453687143149049,0.2886638998624453,0.48790205974433454
482,6.407239229837023,74.97637109058313,2.453678462781208,0.28862853500703967,0.4882836777275308
483,6.420532257284818,74.97637109058313,2.453981650212562,0.2886247366536178,0.4886271981653485
484,6.433825284732612,74.97637109058313,2.4545269704848245,0.288644006058753,0.48891246168754204
485,6.447118312180407,74.97637109058313,2.4552397449516774,0.28867847887273634,0.48912972882563016
486,6.460411339628202,74.97637109058313,2.456050930536913,0.2887214101990609,0.4892795175421388
487,6.473704367075996,74.97637109058313,2.4569047835432505,0.2887674179645307,0.4893708179278087
488,6.486997394523791,74.97637109058313,2.4577625947617463,0.28881250235594996,0.48941810905611144
489,6.500290421971585,74.97637109058313,2.458602374287214,0.2888538915401237,0.489437806983158
490,6.5135834494193805,74.97637109058313,2.459415181792172,0.28888978665930404,0.4894448457112395
491,6.526876476867175,74.97637109058313,2.4601993923159267,0.2889190874921407,0.4894500231605808
492,6.54016950431497,74.97637109058313,2.460954455993191,0.28894117332890557,0.48945855159479534
493,6.553462531762764,74.97637109058313,2.4616756296968525,0.28895579278885836,0.4894699824220876
494,6.566755559210559,74.97637109058313,2.4623507843480597,0.2889630786240358,0.4894793894827374
495,6.580048586658354,74.97637109058313,2.4629598387245824,0.288963657598986,0.4894794536764982
496,6.593341614106149,74.97637109058313,2.4634767812141263,0.2889588012586684,0.48946294197873197
497,6.606634641553943,74.97637109058313,2.4638737473163608,0.2889505662677272,0.48942503915140106
498,6.619927669001737,74.97637109058313,2.4641263131955093,0.28894187589364395,0.48936506452438
499,6.633220696449532,74.97637109058313,2.4642190748126946,0.28893649595048665,0.48928726369902154
500,6.646513723897327,74.97637109058313,2.4641506786529805,0.28893887742958385,0.48920058945663414
501,6.659806751345122,74.97637109058313,2.4639376806202837,0.2889538689101648,0.489117625077139
502,6.673099778792916,74.97637109058313,2.463616844573231,0.2889863291769037,0.4890529406472194
503,6.686392806240711,74.97637109058313,2.4632456745321885,0.2890406872002675,0.4890211849369633
504,6.6996858336885055,74.97637109058313,2.462901064672951,0.2891204999472693,0.4890351974904861
505,6.712978861136301,74.97637109058313,2.4626759563625678,0.2892280487355359,0.48910439422769814
506,6.726271888584095,74.97637109058313,2.4626738628314397,0.28936399663072904,0.4892335896909337
507,6.739564916031889,74.97637109058313,2.4630011364488045,0.28952711035875206,0.48942230071186726
508,6.752857943479684,74.97637109058313,2.463756986452568,0.289714038823229,0.48966448735924345
509,6.766150970927479,74.97637109058313,2.4650215515016023,0.28991914291367976,0.4899486476823811
510,6.779443998375274,74.97637109058313,2.4668427835130124,0.2901343893167726,0.49025819131186954
511,6.792737025823068,74.97637109058313,2.4692234361253322,0.29034934969371246,0.49057205894859646
512,6.806030053270863,74.97637109058313,2.4721099476179904,0.29055137498306016,0.49086560588995964
513,6.819323080718657,74.97637109058313,2.475385309738181,0.2907260294877946,0.49111180273885197
514,6.8326161081664525,74.97637109058313,2.478867977563916,0.29085786197235636,0.4912828066892608
515,6.845909135614247,74.97637109058313,2.482318400074333,0.2909315542895654,0.49135191546950635
516,6.859202163062041,74.97637109058313,2.4854538422301395,0.29093341541277357,0.49129583953433553
517,6.872495190509836,74.97637109058313,2.4879710342399814,0.2908530929434347,0.4910971338822158
518,6.88578821795763,74.97637109058313,2.4895749976401222,0.2906852878986786,0.4907465427856602
519,6.8990812454054256,74.97637109058313,2.4900111145004153,0.2904312047629728,0.4902449530811539
520,6.91237427285322,74.97637109058313,2.489096388979326,0.2900994573051312,0.4896046433364087
521,6.925667300301015,74.97637109058313,2.4867455038272617,0.2897061914419168,0.48884956586981293
522,6.938960327748809,74.97637109058313,2.4829878081648955,0.2892742813155055,0.48801450223300913
523,6.952253355196604,74.97637109058313,2.4779724661959044,0.2888315902416908,0.4871430741634309
524,6.965546382644399,74.97637109058313,2.4719604857475654,0.28840844063262217,0.48628474635588753
525,6.978839410092193,74.97637109058313,2.465304098256705,0.28803457840975305,0.48549109702608684
526,6.992132437539988,74.97637109058313,2.458415699964457,0.2877360206660567,0.4848117341528106
527,7.005425464987782,74.97637109058313,2.451729995841429,0.28753222007119117,0.48429028474363844
528,7.018718492435577,74.97637109058313,2.4456638871700247,0.2874339552424014,0.48396088929849324
529,7.032011519883372,74.97637109058313,2.440578876527685,0.2874422714702947,0.4838455932961632
530,7.045304547331167,74.97637109058313,2.43675030927827,0.28754866080829644,0.48395285188513837
531,7.058597574778961,74.97637109058313,2.4343467300187704,0.28773644894052397,0.48427708813411846
532,7.071890602226756,74.97637109058313,2.4334211974711746,0.2879830894297722,0.4847991773658126
533,7.085183629674551,74.97637109058313,2.43391491841953,0.28826295338640184,0.48548787440294966
534,7.098476657122345,74.97637109058313,2.4356722320185096,0.2885502636836556,0.4863021693235656
535,7.11176968457014,74.97637109058313,2.438464154390026,0.2888218415681674,0.4871943458265318
536,7.125062712017934,74.97637109058313,2.4420156830162907,0.28905930382600503,0.4881134163040306
537,7.138355739465729,74.97637109058313,2.4460323598268814,0.28925042471834583,0.4890086333948892
538,7.151648766913524,74.97637109058313,2.4502240718670922,0.2893895441696957,0.48983281853713545
539,7.164941794361319,74.97637109058313,2.454325262993988,0.28947707215253504,0.4905452891948199
540,7.178234821809113,74.97637109058313,2.4581103718718382,0.28951827622461024,0.4911142132058719
541,7.191527849256908,74.97637109058313,2.4614036474106,0.2895216298740024,0.491518267196563
542,7.204820876704702,74.97637109058313,2.4640835032224975,0.2894970327749018,0.4917475252359206
543,7.218113904152497,74.97637109058313,2.466082272319516,0.28945419127437294,0.4918035531401158
544,7.231406931600292,74.97637109058313,2.4673825109829446,0.2894013791609987,0.4916987323878437
545,7.244699959048086,74.97637109058313,2.468011001895475,0.28934470285331093,0.4914548836302739
546,7.257992986495881,74.97637109058313,2.468031402913299,0.289287892201287,0.49110130081284203
547,7.2712860139436755,74.97637109058313,2.467536192023961,0.2892325472258373,0.4906723376311802
548,7.284579041391471,74.97637109058313,2.4666382745472473,0.28917870650780086,0.4902047084027143
549,7.297872068839265,74.97637109058313,2.465462425481052,0.2891255718985415,0.48973470051991785
550,7.31116509628706,74.97637109058313,2.464136678903903,0.2890722269302566,0.489295540566009
551,7.324458123734854,74.97637109058313,2.462783845075053,0.2890182169079473,0.4889151397645858
552,7.337751151182648,74.97637109058313,2.461513494229912,0.288963907362286,0.48861436756037463
553,7.351044178630444,74.97637109058313,2.4604149300918103,0.2889105929916303,0.4884059474242919
554,7.364337206078238,74.97637109058313,2.4595518154512632,0.28886038078301424,0.48829404177106295
555,7.377630233526033,74.97637109058313,2.458959146623999,0.28881591040488575,0.4882745661256734
556,7.390923260973827,74.97637109058313,2.4586431654778935,0.2887799972048025,0.48833624191688896
557,7.4042162884216225,74.97637109058313,2.4585845383989047,0.28875528664578254,0.48846233007575207
558,7.417509315869417,74.97637109058313,2.4587447428480025,0.28874399523824823,0.4886328888773293
559,7.430802343317212,74.97637109058313,2.4590751333460665,0.28874778580538557,0.488827318394256
560,7.444095370765006,74.97637109058313,2.4595276802733066,0.28876778973089107,0.48902690345560085
561,7.4573883982128,74.97637109058313,2.4600659689884044,0.28880475208196416,0.48921704274857275
562,7.470681425660596,74.97637109058313,2.4606747952607555,0.28885924380301914,0.4893888633532865
563,7.48397445310839,74.97637109058313,2.461366663456142,0.288931864613377,0.48953997539067273
564,7.497267480556185,74.97637109058313,2.4621837263121615,0.2890233554803486,0.4896742198219348
565,7.510560508003979,74.97637109058313,2.4631942015718753,0.2891345529557828,0.48980039690763766
566,7.523853535451774,74.97637109058313,2.4644830205109556,0.28926614861865635,0.4899301152548745
567,7.537146562899569,74.97637109058313,2.4661373247482716,0.2894182613033362,0.4900750413058802
568,7.550439590347364,74.97637109058313,2.4682283161010443,0.2895898803598072,0.4902439331361988
569,7.563732617795158,74.97637109058313,2.470791745908829,0.2897782849999468,0.49043990092565104
570,7.577025645242952,74.97637109058313,2.4738098698146316,0.28997857687522405,0.49065833697284994
571,7.5903186726907474,74.97637109058313,2.4771978748195616,0.2901834704800498,0.4908858899311
572,7.603611700138542,74.97637109058313,2.4807975281429915,0.290383462341372,0.49110072784380865
573,7.616904727586337,74.97637109058313,2.4843800829043783,0.29056744457282574,0.4912741618361877
574,7.630197755034131,74.97637109058313,2.487659329306153,0.2907237477272142,0.491373510654107
575,7.643490782481926,74.97637109058313,2.490314246900625,0.2908415055271749,0.4913659024985495
576,7.65678380992972,74.97637109058313,2.492019434529884,0.2909121482135501,0.4912225618152767
577,7.670076837377516,74.97637109058313,2.4924805502611846,0.29093077200908185,0.49092303772864476
578,7.68336986482531,74.97637109058313,2.491470900525754,0.2908971192557696,0.4904588126923652
579,7.696662892273104,74.97637109058313,2.4888642753654415,0.29081594548509765,0.48983578909498393
580,7.709955919720899,74.97637109058313,2.484659193363578,0.29069663558626513,0.4890752806861167
581,7.723248947168694,74.97637109058313,2.4789909205556895,0.2905520491967176,0.4882133166613081
582,7.736541974616489,74.97637109058313,2.472129162709627,0.2903967161838592,0.4872982731655392
583,7.749835002064283,74.97637109058313,2.464460979794324,0.29024464044718873,0.486387050831934
584,7.763128029512078,74.97637109058313,2.4564602572419054,0.29010706867003494,0.48554019065947435
585,7.776421056959872,74.97637109058313,2.4486467603656554,0.289990617609997,0.48481644412385405
586,7.7897140844076675,74.97637109058313,2.4415391374936126,0.2898961194680205,0.48426737534814
587,7.803007111855462,74.97637109058313,2.435607041412094,0.2898184398386038,0.48393258090260916
588,7.816300139303256,74.97637109058313,2.431227705630279,0.2897473603621348,0.48383606539110385
589,7.829593166751051,74.97637109058313,2.428651825810461,0.2896694258165926,0.4839841293803883
590,7.842886194198845,74.97637109058313,2.4279826256161376,0.2895704696370507,0.4843648396695346
591,7.856179221646641,74.97637109058313,2.4291706238484934,0.2894383915089795,0.4849490268033924
592,7.869472249094435,74.97637109058313,2.4320242205312526,0.2892656975156116,0.4856927985846776
593,7.88276527654223,74.97637109058313,2.4362331712980554,0.28905134361974794,0.48654144457899556
594,7.896058303990024,74.97637109058313,2.4414009540582664,0.28880154288277954,0.48743434205040354
595,7.909351331437819,74.97637109058313,2.4470830537598958,0.28852938175293336,0.48831032263115143
596,7.922644358885614,74.97637109058313,2.452828132861367,0.28825330315048897,0.4891129457467442
597,7.935937386333408,74.97637109058313,2.4582178488851567,0.28799471169638036,0.4897951627512689
598,7.949230413781203,74.97637109058313,2.462901049628516,0.28777510227756464,0.4903229348880143
599,7.962523441228997,74.97637109058313,2.4666192269875906,0.2876131825712718,0.49067748847024634
600,7.975816468676792,74.97637109058313,2.469221414770476,0.2875224445013841,0.49085603773658526
601,7.989109496124587,74.97637109058313,2.4706679536891363,0.2875095457636466,0.49087096399776853
602,8.002402523572382,74.97637109058313,2.4710236849781086,0.28757371357452716,0.4907475929325161
603,8.015695551020176,74.97637109058313,2.470442086500392,0.28770720654561216,0.4905208461794463
604,8.02898857846797,74.97637109058313,2.46914258499975,0.2878966754083929,0.49023114707104726
605,8.042281605915765,74.97637109058313,2.4673837345176866,0.2881250866236912,0.48992002433922954
606,8.05557463336356,74.97637109058313,2.465435129938299,0.2883738124831565,0.48962587559771814
607,8.068867660811355,74.97637109058313,2.4635508267353012,0.288624556514104,0.48938032178983687
608,8.08216068825915,74.97637109058313,2.4619466823235725,0.28886087022672774,0.48920550682404335
609,8.095453715706943,74.97637109058313,2.4607834626844567,0.2890691039545664,0.4891125811200736
610,8.10874674315474,74.97637109058313,2.46015683544045,0.2892387625516676,0.4891014669484305
611,8.122039770602534,74.97637109058313,2.460094581157237,0.2893623765102953,0.48916185448010896
612,8.135332798050328,74.97637109058313,2.4605605902413585,0.28943509552568003,0.48927523923590077
613,8.148625825498122,74.97637109058313,2.461464560023888,0.28945424478262716,0.48941770180154276
614,8.161918852945917,74.97637109058313,2.4626758343920216,0.2894190534978167,0.48956306252175263
615,8.175211880393713,74.97637109058313,2.464039578921215,0.2893306812386294,0.48968602467924965
616,8.188504907841507,74.97637109058313,2.4653934691819233,0.28919255243919845,0.4897649451790845
617,8.201797935289301,74.97637109058313,2.4665832690223204,0.28901089160979365,0.48978393753105015
618,8.215090962737095,74.97637109058313,2.4674760417544883,0.28879525962246844,0.48973414332852944
619,8.228383990184891,74.97637109058313,2.46797020167684,0.288558848192919,0.48961418215636676
620,8.241677017632686,74.97637109058313,2.4680020962072846,0.28831830776855305,0.48942988080588834
621,8.25497004508048,74.97637109058313,2.467549231557239,0.2880929624289424,0.489193378669303
622,8.268263072528274,74.97637109058313,2.466630554818264,0.2879033892239634,0.48892174256233406
623,8.281556099976068,74.97637109058313,2.4653043486789215,0.28776948267662644,0.4886352999184384
624,8.294849127423864,74.97637109058313,2.4636642833126783,0.28770825645582915,0.4883559094469594
625,8.308142154871659,74.97637109058313,2.461834038568529,0.28773172346385484,0.4881053356246432
626,8.321435182319453,74.97637109058313,2.4599607174445124,0.28784522114508676,0.4879038294373857
627,8.334728209767247,74.97637109058313,2.458207086715757,0.2880465023397104,0.4877689624370342
628,8.348021237215043,74.97637109058313,2.45674256418196,0.2883258000403684,0.48771472014840367
629,8.361314264662838,74.97637109058313,2.455732868749252,0.28866691664542804,0.4877508142198695
630,8.374607292110632,74.97637109058313,2.4553283806172783,0.28904921313278026,0.4878821268725502
631,8.387900319558426,74.97637109058313,2.4556515195110546,0.28945021252405995,0.48810822965474837
632,8.40119334700622,74.97637109058313,2.4567838076299817,0.28984841431319514,0.48842301246280423
633,8.414486374454016,74.97637109058313,2.45875368242424,0.2902258646596186,0.48881450608296584
634,8.42777940190181,74.97637109058313,2.461526480276417,0.2905700533233758,0.48926497061249197
635,8.441072429349605,74.97637109058313,2.4649982288147463,0.2908748121121111,0.4897513200796423
636,8.4543654567974,74.97637109058313,2.468994867894982,0.29114005679127125,0.49024595721327946
637,8.467658484245195,74.97637109058313,2.4732781976896696,0.29137041794945784,0.4907180651866055
638,8.48095151169299,74.97637109058313,2.4775592007898073,0.2915730096057437,0.49113534479133264
639,8.494244539140784,74.97637109058313,2.4815184483475314,0.2917547483762981,0.4914661387586216
640,8.507537566588578,74.97637109058313,2.484832128458656,0.2919197219788162,0.4916818551523754
641,8.520830594036372,74.97637109058313,2.487201045389016,0.2920670963550088,0.4917595075785021
642,8.534123621484168,74.97637109058313,2.488379535593502,0.29218998996363016,0.4916840527026119
643,8.547416648931963,74.97637109058313,2.4882017140636794,0.2922756395725041,0.4914501742348082
644,8.560709676379757,74.97637109058313,2.4866022446894003,0.29230693370198424,0.4910632493090045
645,8.574002703827551,74.97637109058313,2.483628015959403,0.2922650428834053,0.49053933989252435
646,8.587295731275347,74.97637109058313,2.479437933319302,0.2921326524028595,0.48990416242985185
647,8.600588758723141,74.97637109058313,2.474290408599221,0.2918972445309543,0.48919111994556674
648,8.613881786170936,74.97637109058313,2.468520123329568,0.29155387658818077,0.4884386111842413
649,8.62717481361873,74.97637109058313,2.4625069139763456,0.2911069591492305,0.48768693277753367
650,8.640467841066524,74.97637109058313,2.4566405489991094,0.2905706926784547,0.4869751426370087
651,8.65376086851432,74.97637109058313,2.451285618578069,0.28996804706215773,0.4863382444092492
652,8.667053895962114,74.97637109058313,2.446750599689214,0.2893284211525852,0.48580498525377
653,8.680346923409909,74.97637109058313,2.443264424525933,0.28868435174730467,0.48539644759836
654,8.693639950857703,74.97637109058313,2.4409626968804288,0.28806780903261514,0.48512548452762067
655,8.706932978305499,74.97637109058313,2.439884280001013,0.28750668615031577,0.48499693663337157
656,8.720226005753293,74.97637109058313,2.4399775663405383,0.2870220502950795,0.48500849428782694
657,8.733519033201087,74.97637109058313,2.441114602479329,0.28662657903381616,0.4851519577376371
658,8.746812060648882,74.97637109058313,2.4431105442953673,0.2863243856258748,0.4854145171994184
659,8.760105088096676,74.97637109058313,2.445745468307306,0.2861121827316189,0.48577977336406025
660,8.773398115544472,74.97637109058313,2.4487854001690503,0.2859814935889652,0.4862285186907792
661,8.786691142992266,74.97637109058313,2.4520002179013773,0.28592143920238905,0.4867394298347578
662,8.79998417044006,74.97637109058313,2.455177629395518,0.2859215480008987,0.48728975108785266
663,8.813277197887855,74.97637109058313,2.4581334128954513,0.2859740641183026,0.4878560173351651
664,8.82657022533565,74.97637109058313,2.460718330325114,0.2860753266345892,0.48841488061704347
665,8.839863252783445,74.97637109058313,2.4628222549737413,0.2862259351228975,0.4889440779433625
666,8.85315628023124,74.97637109058313,2.464376129783968,0.2864296758219891,0.48942351551421576
667,8.866449307679034,74.97637109058313,2.4653521852068994,0.28669150566196777,0.48983637552578674
668,8.879742335126828,74.97637109058313,2.465762518155407,0.2870150825298447,0.4901700981689279
669,8.893035362574624,74.97637109058313,2.465655854737514,0.28740035499020605,0.49041707224726827
670,8.906328390022418,74.97637109058313,2.4651122140921675,0.2878416821942336,0.49057489251080444
671,8.919621417470212,74.97637109058313,2.464235317463615,0.28832685926325563,0.4906461079647039
672,8.932914444918007,74.97637109058313,2.463142921508719,0.2888372591541529,0.4906374787616225
673,8.946207472365803,74.97637109058313,2.4619557053825996,0.289349100404501,0.4905588570082707
674,8.959500499813597,74.97637109058313,2.4607857767601433,0.2898356535176123,0.4904218837068539
675,8.972793527261391,74.97637109058313,2.459726152653366,0.2902700420777055,0.4902387296430564
676,8.986086554709185,74.97637109058313,2.458842623493728,0.29062820447906496,0.4900210925633775
677,8.99937958215698,74.97637109058313,2.4581691909102688,0.29089157142655225,0.48977960027583556
678,9.012672609604776,74.97637109058313,2.4577078147106977,0.2910490807706995,0.489523675573087
679,9.02596563705257,74.97637109058313,2.457432600065527,0.29109827763245577,0.48926181782287964
680,9.039258664500364,74.97637109058313,2.457297916616422,0.29104540607714885,0.48900217186491957
681,9.05255169194816,74.97637109058313,2.4572493791623713,0.29090455630737777,0.4887532052523962
682,9.065844719395956,74.97637109058313,2.4572362187695176,0.29069605902516327,0.4885243067475933
683,9.079137746843749,74.97637109058313,2.457223376658385,0.29044439627345825,0.4883261476004407
684,9.092430774291543,74.97637109058313,2.457201664043176,0.2901759186568545,0.48817069929850865
685,9.105723801739336,74.97637109058313,2.4571945239892945,0.2899166282098251,0.4880708610493221
686,9.119016829187132,74.97637109058313,2.457260269094814,0.2896902200002887,0.4880397040020803
687,9.132309856634928,74.97637109058313,2.4574891158355348,0.2895164944821497,0.4880893806360067
688,9.145602884082722,74.97637109058313,2.4579948648353036,0.28941017708964534,0.4882297776699664
689,9.158895911530516,74.97637109058313,2.458901662741685,0.2893801274188605,0.48846701489480765
690,9.17218893897831,74.97637109058313,2.4603268971273975,0.2894288958232156,0.4888019165819328
691,9.185481966426106,74.97637109058313,2.462361875783807,0.2895525899139726,0.48922860905099974
692,9.1987749938739,74.97637109058313,2.4650524579762476,0.28974103892885933,0.48973342429342365
693,9.212068021321697,74.97637109058313,2.4683821499633445,0.2899782761290713,0.49029430640483124
694,9.22536104876949,74.97637109058313,2.4722602564946015,0.29024338247687786,0.4908809135291193
695,9.238654076217284,74.97637109058313,2.4765174162190826,0.2905117328687273,0.49145557028655235
696,9.25194710366508,74.97637109058313,2.4809102031159695,0.29075665287047847,0.4919751498635693
697,9.265240131112874,74.97637109058313,2.4851354716520357,0.29095145101845865,0.4923938735794289
698,9.278533158560668,74.97637109058313,2.488853838136947,0.29107174474745867,0.492666915303375
699,9.291826186008462,74.97637109058313,2.4917203002683084,0.2910979034181961,0.4927545481944802
700,9.305119213456258,74.97637109058313,2.4934188767200953,0.29101731233129197,0.4926263986819308
701,9.318412240904053,74.97637109058313,2.4936974960513885,0.2908261189579644,0.49226528446754186
702,9.331705268351849,74.97637109058313,2.4923989156318354,0.29053017375295676,0.4916701338800929
703,9.34499829579964,74.97637109058313,2.489483337887165,0.2901449680539925,0.4908575655519989
704,9.358291323247435,74.97637109058313,2.4850392405273785,0.28969448994576574,0.4898618423291089
705,9.371584350695231,74.97637109058313,2.479280646395993,0.2892090681072959,0.4887331023752663
706,9.384877378143026,74.97637109058313,2.472530945591215,0.2887224279598053,0.48753398302694717
707,9.39817040559082,74.97637109058313,2.465195131158976,0.28826831208788667,0.4863349508652704
708,9.411463433038614,74.97637109058313,2.457723789618717,0.2878770927543486,0.4852088037090842
709,9.42475646048641,74.97637109058313,2.4505731704092732,0.2875728128950643,0.48422489703089444
710,9.438049487934205,74.97637109058313,2.444165984837091,0.287371030800631,0.483443662990447
711,9.451342515382,74.97637109058313,2.438857234823402,0.28727772345374625,0.48291194061004694
712,9.464635542829791,74.97637109058313,2.4349084406398265,0.2872893452435685,0.48265953758704194
713,9.477928570277587,74.97637109058313,2.432472318061452,0.2873939728621672,0.482697311953359
714,9.491221597725383,74.97637109058313,2.431588492350401,0.28757332080992276,0.4830168778401426
715,9.504514625173178,74.97637109058313,2.4321895150015815,0.2878052845640739,0.4835918277726448
716,9.517807652620972,74.97637109058313,2.4341154532133062,0.288066582152454,0.484380239479037
717,9.531100680068766,74.97637109058313,2.43713444282223,0.28833509876376084,0.48532821013737787
718,9.544393707516562,74.97637109058313,2.4409659273425417,0.28859168353418013,0.4863741121775864
719,9.557686734964356,74.97637109058313,2.445303742160303,0.2888212838954564,0.48745319182260327
720,9.57097976241215,74.97637109058313,2.4498375787785376,0.289013401284794,0.4885021269175406
721,9.584272789859943,74.97637109058313,2.4542722089211284,0.28916195680974677,0.4894632183112952
722,9.59756581730774,74.97637109058313,2.4583439628565142,0.28926474710919603,0.49028796000367714
723,9.610858844755535,74.97637109058313,2.4618341672406254,0.28932270929619663,0.49093980337229093
724,9.62415187220333,74.97637109058313,2.4645795538625554,0.2893391967281419,0.49139599753675245
725,9.637444899651124,74.97637109058313,2.466479722379784,0.28931940815071994,0.4916484499232355
726,9.650737927098918,74.97637109058313,2.4675016204459665,0.2892700303245226,0.4917036093508232
727,9.664030954546714,74.97637109058313,2.467680826602455,0.2891990701969779,0.49158142802022947
728,9.677323981994508,74.97637109058313,2.467119279445929,0.28911578598327425,0.4913135054694912
729,9.690617009442304,74.97637109058313,2.4659790633550696,0.2890305900861744,0.4909405520102376
730,9.703910036890097,74.97637109058313,2.464471971770957,0.288954795855613,0.4905093279706384
731,9.717203064337893,74.97637109058313,2.462844827062302,0.28890011258101733,0.4900692195119691
732,9.730496091785689,74.97637109058313,2.461360920173082,0.2888778507187748,0.4896686089421282
733,9.74378911923348,74.97637109058313,2.460278405022089,0.28889787025250396,0.4893511982139901
734,9.757082146681276,74.97637109058313,2.459826989294608,0.2889673756777271,0.4891524587289929
735,9.77037517412907,74.97637109058313,2.460184738539492,0.28908971817944196,0.4890964125906397
736,9.783668201576866,74.97637109058313,2.4614571765562667,0.2892633981135421,0.4891929942516401
737,9.79696122902466,74.97637109058313,2.463661039883238,0.289481461680304,0.48943628139336376
738,9.810254256472454,74.97637109058313,2.4667149548176024,0.28973145238470127,0.48980389768725063
739,9.823547283920249,74.97637109058313,2.470438903578579,0.28999601368848715,0.4902578559263571
740,9.836840311368045,74.97637109058313,2.47456362394708,0.29025415199519355,0.4907470100902283
741,9.85013333881584,74.97637109058313,2.4787500758178966,0.2904830708815658,0.4912111193868874
742,9.863426366263631,74.97637109058313,2.482617897250205,0.2906603871271079,0.49158633826417375
743,9.876719393711427,74.97637109058313,2.4857803912648726,0.2907664547531371,0.4918117571052817
744,9.890012421159222,74.97637109058313,2.487882268623362,0.2907865182896313,0.4918363878298013
745,9.903305448607018,74.97637109058313,2.4886362636056782,0.2907124907319292,0.4916257617874857
746,9.916598476054812,74.97637109058313,2.487855834623121,0.2905441661920438,0.49116723070967006
747,9.929891503502606,74.97637109058313,2.48548087510313,0.2902896332469658,0.490473164088108
748,9.9431845309504,74.97637109058313,2.48159182044832,0.28996473591307087,0.48958144683555466
749,9.956477558398197,74.97637109058313,2.4764083696010517,0.2895916246247207,0.4885529806425863
750,9.96977058584599,74.97637109058313,2.4702721941486367,0.28919658993981445,0.4874662733311814
751,9.983063613293783,74.97637109058313,2.463615574489245,0.2888074511721433,0.48640961043185377
752,9.99635664074158,74.97637109058313,2.4569194616456236,0.2884508182589963,0.4854716748606805
753,10.009649668189374,74.97637109058313,2.4506657224565336,0.28814955429524475,0.4847317507343438
754,10.02294269563717,74.97637109058313,2.445289135219875,0.2879207327572648,0.4842507657713603
755,10.036235723084964,74.97637109058313,2.44113481512526,0.28777431360619127,0.4840643652541301
756,10.049528750532758,74.97637109058313,2.438426120931566,0.2877126705836002,0.48417896600033133
757,10.062821777980552,74.97637109058313,2.4372468082175085,0.28773099954847675,0.4845713424405338
758,10.076114805428348,74.97637109058313,2.4375394113483373,0.28781850475886445,0.4851918158866427
759,10.089407832876145,74.97637109058313,2.4391196249870752,0.2879601169109259,0.4859706247870465
760,10.102700860323935,74.97637109058313,2.4417041440926317,0.28813845299837837,0.48682661064007077
761,10.115993887771731,74.97637109058313,2.444947816498205,0.28833578828758355,0.4876770304535276
762,10.129286915219526,74.97637109058313,2.448485287144035,0.2885358441707576,0.4884471630563165
763,10.142579942667322,74.97637109058313,2.4519720128344393,0.2887251947148484,0.48907843528783496
764,10.155872970115116,74.97637109058313,2.4551196172954306,0.2888941464692121,0.48953404049351257
765,10.16916599756291,74.97637109058313,2.45772147046043,0.2890370422415437,0.4898014145949091
766,10.182459025010704,74.97637109058313,2.459665962423377,0.28915203007885454,0.48989141037261136
767,10.1957520524585,74.97637109058313,2.460936769863262,0.2892404081173862,0.4898344917396664
768,10.209045079906296,74.97637109058313,2.46160119818647,0.28930569951618335,0.4896746806464856
769,10.222338107354089,74.97637109058313,2.4617891955792457,0.2893526261977964,0.4894622674618961
770,10.235631134801883,74.97637109058313,2.4616666794338293,0.2893861377742902,0.4892464031436202
771,10.248924162249676,74.97637109058313,2.461407276302679,0.2894106187126435,0.48906862064845075
772,10.262217189697472,74.97637109058313,2.461166430365689,0.28942935083719534,0.4889581071259537
773,10.275510217145268,74.97637109058313,2.4610611513360734,0.28944425881937913,0.48892921605682776
774,10.288803244593062,74.97637109058313,2.4611575958386083,0.2894559218111412,0.4889813330077257
775,10.302096272040856,74.97637109058313,2.4614673993455236,0.28946380132218436,0.48910085528765046
776,10.31538929948865,74.97637109058313,2.4619524036819835,0.28946661743299235,0.4892647691475359
777,10.328682326936448,74.97637109058313,2.4625363398564524,0.28946280274804614,0.489445143239825
778,10.34197535438424,74.97637109058313,2.4631212589698843,0.2894509731603445,0.4896138151234193
779,10.355268381832037,74.97637109058313,2.4636061210319795,0.28943037104537084,0.48974661715041445
780,10.36856140927983,74.97637109058313,2.4639049512839692,0.2894012532711519,0.48982664052528546
781,10.381854436727624,74.97637109058313,2.4639622974893336,0.28936520727155834,0.48984623076436246
782,10.39514746417542,74.97637109058313,2.4637642717414465,0.2893253795346267,0.489807606668789
783,10.408440491623214,74.97637109058313,2.4633441217609655,0.2892865919834364,0.4897221908111781
784,10.421733519071008,74.97637109058313,2.4627819405196845,0.28925530677748157,0.4896089062057847
785,10.435026546518802,74.97637109058313,2.4621987065922246,0.289239386439745,0.48949175142352996
786,10.448319573966598,74.97637109058313,2.4617453075800375,0.28924759304127556,0.48939692338936985
787,10.461612601414393,74.97637109058313,2.46158753402356,0.28928878567755717,0.48934972802985066
788,10.474905628862189,74.97637109058313,2.461888272657229,0.2893708141504265,0.48937152632419934
789,10.48819865630998,74.97637109058313,2.462788319648742,0.28949916711650214,0.4894769524302013
790,10.501491683757775,74.97637109058313,2.4643874093033062,0.2896755064935821,0.48967161665464615
791,10.514784711205571,74.97637109058313,2.4667272130003752,0.28989629167333947,0.48995049436106797
792,10.528077738653366,74.97637109058313,2.4697781674352366,0.2901517485363547,0.49029719440504077
793,10.54137076610116,74.97637109058313,2.473431967252552,0.2904254483881589,0.4906842791513207
794,10.554663793548954,74.97637109058313,2.477501310031029,0.2906947188255855,0.4910747569625688
795,10.56795682099675,74.97637109058313,2.481727939146657,0.29093203188863126,0.49142477671374696
796,10.581249848444545,74.97637109058313,2.48579907628837,0.2911074075969007,0.49168742171467306
797,10.59454287589234,74.97637109058313,2.489371084344364,0.291191684563577,0.4918173390503525
798,10.607835903340131,74.97637109058313,2.4920986500811018,0.29116027624885354,0.49177577395529865
799,10.621128930787927,74.97637109058313,2.493667973036081,0.29099688018051945,0.49153544118855064
800,10.634421958235723,74.97637109058313,2.4938311990729756,0.2906965740910734,0.49108459334710747
801,10.647714985683518,74.97637109058313,2.4924369245558538,0.29026777283600635,0.4904296702917829
802,10.661008013131312,74.97637109058313,2.4894514420743468,0.2897326358542514,0.4895960486931711
803,10.674301040579106,74.97637109058313,2.4849675999806435,0.2891257179301682,0.48862664665200684
804,10.687594068026902,74.97637109058313,2.479200186645877,0.2884909157948443,0.48757844052050836
805,10.700887095474696,74.97637109058313,2.4724682700296725,0.2878770322840696,0.48651726519770927
806,10.71418012292249,74.97637109058313,2.4651665138275884,0.28733251005617694,0.4855115344133928
807,10.727473150370283,74.97637109058313,2.457728928066088,0.2869000371777687,0.4846256816666942
808,10.74076617781808,74.97637109058313,2.4505894569440696,0.2866117701401105,0.48391415653950326
809,10.754059205265875,74.97637109058313,2.4441441049554364,0.2864858598676093,0.48341671359285
810,10.76735223271367,74.97637109058313,2.4387189087579784,0.2865248075851005,0.4831555423600487
811,10.780645260161464,74.97637109058313,2.434547059786316,0.2867158424562342,0.48313454091304514
812,10.793938287609258,74.97637109058313,2.431757056524772,0.2870330627844542,0.4833406441197368
813,10.807231315057054,74.97637109058313,2.430372174054331,0.2874408661166468,0.4837466526627661
814,10.820524342504848,74.97637109058313,2.430320057789878,0.287898245752522,0.48431489558848884
815,10.833817369952644,74.97637109058313,2.4314501717633936,0.28836347507324367,0.48500130544950415
816,10.847110397400437,74.97637109058313,2.4335562875253562,0.28879854131679206,0.4857595642125192
817,10.860403424848233,74.97637109058313,2.4364007704907023,0.2891727205731631,0.48654486397545044
818,10.873696452296029,74.97637109058313,2.439737122828019,0.28946489735809405,0.48731688163852876
819,10.88698947974382,74.97637109058313,2.4433282295464163,0.28966447735608153,0.48804178040464674
820,10.900282507191616,74.97637109058313,2.4469597819828324,0.2897709689681657,0.4886932483050168
821,10.91357553463941,74.97637109058313,2.4504494374781514,0.2897924913895534,0.4892527242043411
822,10.926868562087206,74.97637109058313,2.453652218023834,0.2897435786668108,0.48970904033951496
823,10.940161589535,74.97637109058313,2.4564626805044796,0.2896426824918362,0.4900577222817337
824,10.953454616982794,74.97637109058313,2.4588145848875196,0.28950973862726415,0.4903001432975965
825,10.966747644430589,74.97637109058313,2.460678741654164,0.28936407263749575,0.49044265260243375
826,10.980040671878385,74.97637109058313,2.4620595083910337,0.2892228063918442,0.4904957145205619
827,10.99333369932618,74.97637109058313,2.46299019126134,0.2890998141364924,0.49047303465967623
828,11.006626726773971,74.97637109058313,2.463527476982851,0.2890051868938018,0.49039062653918536
829,11.019919754221768,74.97637109058313,2.4637450171055226,0.28894510861707257,0.4902657895925713
830,11.033212781669562,74.97637109058313,2.463726393407855,0.2889220288970132,0.49011601452780995
831,11.046505809117358,74.97637109058313,2.4635578544143604,0.2889350283710917,0.48995788311438243
832,11.059798836565152,74.97637109058313,2.4633213538806,0.2889803021082697,0.4898060645549827
833,11.073091864012946,74.97637109058313,2.4630884781465148,0.2890517193949249,0.48967251541861484
834,11.08638489146074,74.97637109058313,2.462915787746096,0.2891414439853004,0.489565962768107
835,11.099677918908537,74.97637109058313,2.4628419274716,0.2892406101819994,0.4894917006681059
836,11.11297094635633,74.97637109058313,2.4628866212311626,0.2893400459398813,0.4894516758890309
837,11.126263973804123,74.97637109058313,2.4630514250538793,0.28943101848645963,0.48944479677674263
838,11.13955700125192,74.97637109058313,2.4633219228246666,0.2895059580035498,0.4894673815940168
839,11.152850028699714,74.97637109058313,2.463670954216569,0.28955909898191406,0.48951367178031585
840,11.16614305614751,74.97637109058313,2.4640624726156974,0.28958697381276693,0.48957636523389664
841,11.179436083595304,74.97637109058313,2.4644557222869454,0.28958870259448816,0.48964716253721635
842,11.192729111043098,74.97637109058313,2.464809555547565,0.28956604627523896,0.48971735041723485
843,11.206022138490892,74.97637109058313,2.46508682870742,0.28952322218813736,0.4897784593259848
844,11.219315165938688,74.97637109058313,2.4652588699013123,0.2894665139067915,0.48982301565594494
845,11.232608193386485,74.97637109058313,2.4653099694006624,0.28940373256015733,0.4898453658407245
846,11.245901220834275,74.97637109058313,2.4652416975483606,0.2893435975292274,0.48984251556755565
847,11.259194248282071,74.97637109058313,2.465076633893857,0.28929509808899745,0.489814911177583
848,11.272487275729866,74.97637109058313,2.464860851567081,0.2892668765769027,0.48976702881758283
849,11.285780303177662,74.97637109058313,2.464664323392235,0.28926664548716696,0.48970754966812285
850,11.299073330625456,74.97637109058313,2.4645783852153302,0.2893006259278775,0.48964890882356005
851,11.31236635807325,74.97637109058313,2.464709574087213,0.28937298349187773,0.48960611846584523
852,11.325659385521044,74.97637109058313,2.4651695806198224,0.2894852466068929,0.48959489673437945
853,11.33895241296884,74.97637109058313,2.4660616854689734,0.2896357225375897,0.48962926073825636
854,11.352245440416636,74.97637109058313,2.4674647976113695,0.2898189699969573,0.48971886933925274
855,11.365538467864427,74.97637109058313,2.4694169348952566,0.2900254324657535,0.4898665020932491
856,11.378831495312223,74.97637109058313,2.4719005199247563,0.2902413742958616,0.49006610574973475
857,11.392124522760016,74.97637109058313,2.474832055121188,0.2904492761349929,0.4903018114488725
858,11.405417550207812,74.97637109058313,2.4780584915614785,0.2906288064230309,0.4905482200521366
859,11.418710577655608,74.97637109058313,2.481361899709695,0.290758391857978,0.49077208172473913
860,11.432003605103402,74.97637109058313,2.484472969804399,0.2908173006014251,0.49093528538537595
861,11.445296632551196,74.97637109058313,2.4870926071654478,0.29078804733984087,0.4909988605680703
862,11.458589659998992,74.97637109058313,2.4889196591021636,0.29065883254771724,0.49092751827273307
863,11.471882687446788,74.97637109058313,2.4896817733678818,0.2904256629917874,0.4906941527372342
864,11.48517571489458,74.97637109058313,2.4891657291816616,0.29009379346196335,0.4902837134902991
865,11.498468742342377,74.97637109058313,2.4872434968335098,0.28967818993141853,0.48969593845477405
866,11.51176176979017,74.97637109058313,2.4838907770075327,0.2892028359856083,0.4889465965565299
867,11.525054797237964,74.97637109058313,2.4791956893293925,0.2886988692220462,0.488067089482278
868,11.53834782468576,74.97637109058313,2.4733564629696936,0.288201714415947,0.4871024679867896
869,11.551640852133554,74.97637109058313,2.466668271600552,0.2877475435864526,0.4861080938612332
870,11.564933879581348,74.97637109058313,2.4595005752807206,0.2873695100298634,0.48514530252745197
871,11.578226907029144,74.97637109058313,2.452267335526042,0.28709425285544754,0.48427648762699904
872,11.591519934476938,74.97637109058313,2.445393158068648,0.28693914120800196,0.4835600466704038
873,11.604812961924733,74.97637109058313,2.4392787403539,0.28691063323509025,0.48304561120932155
874,11.618105989372529,74.97637109058313,2.434268952702968,0.28700397726936955,0.4827699566123901
875,11.63139901682032,74.97637109058313,2.430626496523556,0.28720425548166517,0.4827539492305068
876,11.644692044268115,74.97637109058313,2.42851342501206,0.28748850470674886,0.4830007866622082
877,11.657985071715911,74.97637109058313,2.427981966483441,0.28782852520867375,0.48349562390947237
878,11.671278099163706,74.97637109058313,2.4289751707291716,0.2881940248011993,0.484206604079538
879,11.6845711266115,74.97637109058313,2.4313369884070886,0.28855575184998106,0.48508732053296405
880,11.697864154059296,74.97637109058313,2.434830417958817,0.2888882387396917,0.48608062240867317
881,11.71115718150709,74.97637109058313,2.4391614133382045,0.2891718407945823,0.4871234465290781
882,11.724450208954885,74.97637109058313,2.4440058435389918,0.28939389987214065,0.4881521914588444
883,11.73774323640268,74.97637109058313,2.4490369546858686,0.28954900777292514,0.48910807543471513
884,11.751036263850471,74.97637109058313,2.4539509145852025,0.28963846581252567,0.48994190275907823
885,11.764329291298267,74.97637109058313,2.458488102224562,0.2896691236616799,0.490617711814309
886,11.777622318746063,74.97637109058313,2.4624482640494376,0.2896518259836398,0.4911149008588458
887,11.790915346193858,74.97637109058313,2.465698467359565,0.28959970108801053,0.4914286156088943
888,11.804208373641652,74.97637109058313,2.468173693126355,0.2895264993029319,0.4915684130879799
889,11.817501401089448,74.97637109058313,2.469870804485019,0.2894451415010991,0.4915554553823165
890,11.830794428537242,74.97637109058313,2.470837397963069,0.2893665827016042,0.49141869428228896
891,11.844087455985036,74.97637109058313,2.471157576223152,0.2892990427658177,0.49119064383459726
892,11.85738048343283,74.97637109058313,2.470936888735176,0.2892476130582105,0.49090337339240114
893,11.870673510880623,74.97637109058313,2.4702885356621076,0.2892142171107636,0.4905852783956802
894,11.88396653832842,74.97637109058313,2.4693224511301994,0.289197883321063,0.49025901282551815
895,11.897259565776215,74.97637109058313,2.4681381706972485,0.28919527470752454,0.4899407311523716
896,11.91055259322401,74.97637109058313,2.466821588323878,0.28920141079721,0.48964053826251075
897,11.923845620671804,74.97637109058313,2.4654449823382167,0.2892105075933892,0.48936383546985207
898,11.9371386481196,74.97637109058313,2.4640691800971495,0.289216853501531,0.4891131212065642
899,11.950431675567394,74.97637109058313,2.4627465262507062,0.28921563435863723,0.4888897778748275
900,11.963724703015188,74.97637109058313,2.4615234347478143,0.2892036223283873,0.4886954490205214
901,11.977017730462984,74.97637109058313,2.4604416801067,0.2891796536942899,0.4885327596586567
902,11.990310757910777,74.97637109058313,2.459538103103987,0.289144840103453,0.4884053189698844
903,12.003603785358573,74.97637109058313,2.4588429307848094,0.28910248525733867,0.4883171207412668
904,12.016896812806367,74.97637109058313,2.4583773148388435,0.2890577115744902,0.4882715721034173
905,12.03018984025416,74.97637109058313,2.4581508933353637,0.28901683528888866,0.48827042023550676
906,12.043482867701956,74.97637109058313,2.458160154324921,0.28898655986267685,0.4883128448198247
907,12.056775895149752,74.97637109058313,2.45838815841931,0.28897308263869836,0.4883949480485607
908,12.070068922597546,74.97637109058313,2.458805835091029,0.2889812248107086,0.488509772827616
909,12.08336195004534,74.97637109058313,2.4593746967045345,0.2890136971627345,0.48864784084270607
910,12.096654977493134,74.97637109058313,2.4600505033314533,0.28907060191142653,0.48879809027371723
911,12.109948004940929,74.97637109058313,2.4607872255335206,0.289149244485811,0.48894902888041253
912,12.123241032388725,74.97637109058313,2.4615406233111594,0.28924429063784785,0.4890898965086313
913,12.13653405983652,74.97637109058313,2.462270882925938,0.2893482587363142,0.4892116497602286
914,12.149827087284311,74.97637109058313,2.4629439932619857,0.28945229115065396,0.4893076303381007
915,12.163120114732108,74.97637109058313,2.4635318420667516,0.28954710968559,0.48937384441048115
916,12.176413142179904,74.97637109058313,2.464011303657033,0.28962403471091924,0.489408870262206
917,12.189706169627698,74.97637109058313,2.4643628128556747,0.28967594031648103,0.4894135068917283
918,12.202999197075492,74.97637109058313,2.464569031790138,0.2896980296857627,0.4893903018768508
919,12.216292224523286,74.97637109058313,2.4646141983711463,0.2896883432405968,0.4893430514856108
920,12.22958525197108,74.97637109058313,2.4644846060384933,0.2896479519600058,0.489276341468673
921,12.242878279418877,74.97637109058313,2.464170434519199,0.2895808360159491,0.4891952023511841
922,12.256171306866673,74.97637109058313,2.4636688755678504,0.2894934962259744,0.48910493148821627
923,12.269464334314463,74.97637109058313,2.4629882235036393,0.28939437596837453,0.4890110891983979
924,12.28275736176226,74.97637109058313,2.4621523678730397,0.28929317912663993,0.48891963624528106
925,12.296050389210055,74.97637109058313,2.46120496051978,0.28920016585148667,0.48883714854160076
926,12.30934341665785,74.97637109058313,2.4602124422288254,0.2891254930720433,0.48877102011652807
927,12.322636444105644,74.97637109058313,2.459265105306633,0.2890786349618104,0.48872954794959533
928,12.335929471553438,74.97637109058313,2.4584754373699584,0.28906787728827427,0.4887217851336837
929,12.349222499001232,74.97637109058313,2.4579731452851785,0.2890998433027494,0.48875705784799195
930,12.362515526449029,74.97637109058313,2.4578965140251685,0.28917898993471247,0.4888440739808254
931,12.375808553896825,74.97637109058313,2.458380133962538,0.2893070211315098,0.4889896121347362
932,12.389101581344615,74.97637109058313,2.4595395395624076,0.28948220430728483,0.4891968681862902
933,12.402394608792411,74.97637109058313,2.461453916853725,0.289698641211614,0.4894636421603816
934,12.415687636240207,74.97637109058313,2.464148681916817,0.2899456215998694,0.4897806506477597
935,12.428980663688002,74.97637109058313,2.4675802831285334,0.2902072549203456,0.49013032250834987
936,12.442273691135796,74.97637109058313,2.4716258805982263,0.290462607635705,0.4904864513109896
937,12.45556671858359,74.97637109058313,2.4760804506138148,0.29068655230472823,0.4908150179243697
938,12.468859746031384,74.97637109058313,2.480663252219515,0.29085145103685894,0.49107635666210325
939,12.48215277347918,74.97637109058313,2.485034388674971,0.2909296576944698,0.4912286323936151
940,12.495445800926976,74.97637109058313,2.4888205668210657,0.29089665308873824,0.4912323554845028
941,12.508738828374767,74.97637109058313,2.4916481017866414,0.290734459625904,0.4910554301867343
942,12.522031855822563,74.97637109058313,2.493180890362932,0.29043485463924884,0.4906780582960059
943,12.53532488327036,74.97637109058313,2.493159608266299,0.29000184840263354,0.4900967460654687
944,12.548617910718152,74.97637109058313,2.491436092681671,0.28945293411668876,0.4893267156076707
945,12.561910938165948,74.97637109058313,2.4879968556098357,0.28881875530696083,0.4884022062159385
946,12.575203965613742,74.97637109058313,2.4829720032189226,0.2881410536643962,0.48737444327444723
947,12.588496993061536,74.97637109058313,2.476628185569393,0.2874690229640965,0.4863074053895148
948,12.601790020509332,74.97637109058313,2.4693461657395175,0.28685445704985624,0.48527187078076395
949,12.615083047957128,74.97637109058313,2.461585611105008,0.28634629471700046,0.4843385073357169
950,12.62837607540492,74.97637109058313,2.4538414699915574,0.28598529075922796,0.483570933522552
951,12.641669102852717,74.97637109058313,2.446597414035738,0.2857995588911969,0.4830197067979807
952,12.654962130300513,74.97637109058313,2.440282105976934,0.2858016295863528,0.4827180815812217
953,12.668255157748304,74.97637109058313,2.4352334462080307,0.2859874171355238,0.4826799947678678
954,12.6815481851961,74.97637109058313,2.4316745803774573,0.28633713985498593,0.482900162497888
955,12.694841212643894,74.97637109058313,2.4297035802199325,0.2868179577411597,0.48335590638234105
956,12.708134240091688,74.97637109058313,2.4292966918036085,0.2873879337827116,0.48401041814045886
957,12.721427267539484,74.97637109058313,2.4303232964223844,0.28800076997979274,0.48481707302546084
958,12.734720294987278,74.97637109058313,2.4325695209184417,0.288610641375465,0.485724123534838
959,12.748013322435073,74.97637109058313,2.4357664824728134,0.28917647658569534,0.48667907609563277
960,12.761306349882869,74.97637109058313,2.4396185639264627,0.2896651986484118,0.4876322708728169
961,12.774599377330665,74.97637109058313,2.443828066830141,0.29005366358646956,0.488539444361148
962,12.787892404778455,74.97637109058313,2.4481148042431795,0.2903292660156342,0.4893632897224359
963,12.801185432226251,74.97637109058313,2.4522306189596157,0.290489382011303,0.4900742089499409
964,12.814478459674046,74.97637109058313,2.4559691387646376,0.2905399567775923,0.4906505420516628
965,12.82777148712184,74.97637109058313,2.4591714211439104,0.2904936031079286,0.49107855408764745
966,12.841064514569636,74.97637109058313,2.461728497140719,0.2903675583463463,0.4913523761311593
967,12.85435754201743,74.97637109058313,2.463581769001118,0.29018176984882915,0.4914739648670346
968,12.867650569465225,74.97637109058313,2.4647218434412332,0.2899572687551541,0.49145301037905426
969,12.88094359691302,74.97637109058313,2.465185918856176,0.28971487911270544,0.49130662320069407
970,12.894236624360817,74.97637109058313,2.465053465592765,0.28947422023058467,0.4910585980345859
971,12.90752965180861,74.97637109058313,2.4644397758479544,0.28925291172028217,0.49073809219634473
972,12.920822679256403,74.97637109058313,2.4634870681954313,0.2890658880513577,0.4903776614933342
973,12.934115706704198,74.97637109058313,2.4623531847476974,0.2889247654530922,0.49001073841629034
974,12.947408734151992,74.97637109058313,2.461198421367622,0.2888372620037304,0.4896687816937801
975,12.960701761599788,74.97637109058313,2.4601715472557757,0.2888067306414903,0.48937843663954067
976,12.973994789047582,74.97637109058313,2.459396458576078,0.28883190482269194,0.48915909451132383
977,12.987287816495376,74.97637109058313,2.458961060330954,0.28890696436485275,0.4890212126434932
978,13.00058084394317,74.97637109058313,2.458909826550768,0.2890220009821015,0.48896565871012243
979,13.013873871390969,74.97637109058313,2.4592410643183493,0.2891639054183147,0.4889841912565169
980,13.02716689883876,74.97637109058313,2.4599092786946026,0.289317624793584,0.489061014755614
981,13.040459926286555,74.97637109058313,2.4608323229410165,0.28946766721372463,0.489175184785637
982,13.05375295373435,74.97637109058313,2.461902355412855,0.2895996772875743,0.48930351684937695
983,13.067045981182146,74.97637109058313,2.4629991292055777,0.2897018825559556,0.4894235901610289
984,13.08033900862994,74.97637109058313,2.4640038922610477,0.2897662218687073,0.48951643720836724
985,13.093632036077734,74.97637109058313,2.4648122029016286,0.2897890086146429,0.48956856772368124
986,13.106925063525528,74.97637109058313,2.465344247311803,0.28977104735558185,0.4895731167056136
987,13.120218090973324,74.97637109058313,2.465551719075627,0.28971721487979957,0.4895301031281309
988,13.13351111842112,74.97637109058313,2.465420896847058,0.2896356192301862,0.4894459047548878
989,13.146804145868913,74.97637109058313,2.464972132158793,0.2895365063026323,0.4893320772818101
990,13.160097173316707,74.97637109058313,2.4642564349533322,0.28943108287703834,0.48920370698027477
991,13.1733902007645,74.97637109058313,2.4633501369480193,0.28933041817735095,0.48907757572936944
992,13.186683228212296,74.97637109058313,2.462348673028339,0.2892445734522202,0.4889704196648424
993,13.199976255660092,74.97637109058313,2.4613603454888806,0.28918205406716196,0.4888974785024204
994,13.213269283107886,74.97637109058313,2.46050057420165,0.2891495917317897,0.4888714215275416
995,13.22656231055568,74.97637109058313,2.4598866829008315,0.2891521791759599,0.4889016285115954
996,13.239855338003474,74.97637109058313,2.4596328502403493,0.28919321643644536,0.48899372299913946
997,13.25314836545127,74.97637109058313,2.4598445857317945,0.2892746015479873,0.4891492218319866
998,13.266441392899065,74.97637109058313,2.4606120655524455,0.2893966177092222,0.4893651848883109
999,13.27973442034686,74.97637109058313,2.4620019166265696,0.2895575325955143,0.48963381449720994
1000,13.293027447794652,74.97637109058313,2.4640475373032937,0.2897529217499106,0.48994204459575413
1001,13.30632047524245,74.97637109058313,2.466738693423592,0.289974836668545,0.4902712496213707
1002,13.319613502690244,74.97637109058313,2.4700117864968143,0.29021103433217904,0.49059726778297286
1003,13.332906530138038,74.97637109058313,2.4737426931561375,0.2904445437161647,0.4908909544612223
1004,13.346199557585832,74.97637109058313,2.4777442695580074,0.2906538468140604,0.49111944972697374
1005,13.359492585033626,74.97637109058313,2.4817703951515915,0.2908138875476122,0.49124825955170714
1006,13.372785612481422,74.97637109058313,2.4855277400710984,0.29089799547488615,0.491244122528986
1007,13.386078639929217,74.97637109058313,2.488695351294187,0.2908806404821915,0.49107848043656377
1008,13.399371667377013,74.97637109058313,2.4909510323789945,0.2907407497976448,0.4907312163739754
1009,13.412664694824803,74.97637109058313,2.4920025161501713,0.29046515682009033,0.49019419776564005
1010,13.4259577222726,74.97637109058313,2.491620222891378,0.29005164904843966,0.4894740928928392
1011,13.439250749720395,74.97637109058313,2.4896672101263784,0.28951106770506047,0.48859394284366425
1012,13.45254377716819,74.97637109058313,2.4861217690682813,0.28886799663246915,0.48759307746443337
1013,13.465836804615984,74.97637109058313,2.481089089355096,0.28815975535797156,0.4865251577976811
1014,13.479129832063778,74.97637109058313,2.474799813303621,0.28743365469859145,0.4854543829503569
1015,13.492422859511574,74.97637109058313,2.4675949187223845,0.2867427427001508,0.48445017481010155
1016,13.505715886959369,74.97637109058313,2.459898168348657,0.286140519212668,0.48358090300910017
1017,13.519008914407165,74.97637109058313,2.452179066302451,0.2856752861182149,0.482907391175964
1018,13.532301941854955,74.97637109058313,2.44491056993426,0.285384911244353,0.4824770485053207
1019,13.545594969302751,74.97637109058313,2.4385265144366475,0.285292790636839,0.4823194713752568
1020,13.558887996750547,74.97637109058313,2.433383712613394,0.28540554929678885,0.4824440409259716
1021,13.572181024198342,74.97637109058313,2.4297330099853167,0.28571257077715834,0.48283946789343074
1022,13.585474051646136,74.97637109058313,2.4277023278235776,0.2861872437630146,0.48347507317988847
1023,13.59876707909393,74.97637109058313,2.4272931794143946,0.28678988864147326,0.4843038583398031
1024,13.612060106541726,74.97637109058313,2.4283905169571285,0.2874721544695738,0.4852672872877845
1025,13.62535313398952,74.97637109058313,2.4307837870662614,0.2881822807374,0.4863011790616385
1026,13.638646161437316,74.97637109058313,2.4341950607795337,0.28887044076110224,0.4873418570948091
1027,13.651939188885107,74.97637109058313,2.438309708158704,0.28949345623553063,0.4883317627869339
1028,13.665232216332903,74.97637109058313,2.4428063131918663,0.29001833363172785,0.48922389059815236
1029,13.6785252437807,74.97637109058313,2.4473832848609303,0.2904242842320795,0.4899846047367089
1030,13.691818271228492,74.97637109058313,2.4517797318304932,0.2907031298060182,0.4905946485462876
1031,13.705111298676288,74.97637109058313,2.4557889394007923,0.2908582263910342,0.4910484193960933
1032,13.718404326124082,74.97637109058313,2.4592641062540674,0.2909022267369154,0.49135181679382933
1033,13.731697353571878,74.97637109058313,2.4621171474902295,0.2908541241680547,0.4915191454315361
1034,13.744990381019672,74.97637109058313,2.464312176738007,0.29073606638398375,0.49156964474626813
1035,13.758283408467468,74.97637109058313,2.465855728705431,0.2905703990903104,0.49152421308213634
1036,13.77157643591526,74.97637109058313,2.466785862792001,0.29037730876900053,0.49140280324440144
1037,13.784869463363057,74.97637109058313,2.4671620424306586,0.29017330087591714,0.49122280595097034
1038,13.798162490810853,74.97637109058313,2.4670571906920373,0.28997059731213476,0.4909985371466641
1039,13.811455518258644,74.97637109058313,2.4665526791215524,0.2897773882534287,0.49074173757520817
1040,13.82474854570644,74.97637109058313,2.4657363180349803,0.2895987485308662,0.49046281155767923
1041,13.838041573154234,74.97637109058313,2.464702779758025,0.2894379427414044,0.4901723970710853
1042,13.85133460060203,74.97637109058313,2.463555382938833,0.2892978044933473,0.48988279290947573
1043,13.864627628049824,74.97637109058313,2.4624078571861863,0.28918188540884626,0.48960883964098156
1044,13.877920655497618,74.97637109058313,2.461384632075054,0.2890951253215434,0.4893680416047812
1045,13.891213682945413,74.97637109058313,2.4606183694228325,0.2890438872062098,0.4891798333556621
1046,13.904506710393209,74.97637109058313,2.4602438743526123,0.28903531348921574,0.4890639186438776
1047,13.917799737841005,74.97637109058313,2.4603881424567144,0.2890760801460552,0.48903775941577987
1048,13.931092765288795,74.97637109058313,2.4611570589568514,0.28917073951260935,0.48911354750262054
1049,13.944385792736592,74.97637109058313,2.462620060448567,0.2893199375359797,0.4892951535045228
1050,13.957678820184386,74.97637109058313,2.4647947738948877,0.28951884774666437,0.4895755877642871
1051,13.970971847632182,74.97637109058313,2.4676341235119663,0.28975615870383375,0.48993547938058624
1052,13.984264875079976,74.97637109058313,2.4710185186709714,0.2900138794037687,0.4903429817690486
1053,13.99755790252777,74.97637109058313,2.4747554200311157,0.2902681248296452,0.49075534623344325
1054,14.010850929975565,74.97637109058313,2.478587799652211,0.2904909364991154,0.4911221849098649
1055,14.02414395742336,74.97637109058313,2.482211824686769,0.29065305129120056,0.4913901978181318
1056,14.037436984871157,74.97637109058313,2.4853025560820092,0.2907273375344571,0.491508900295255
1057,14.05073001231895,74.97637109058313,2.487544840328681,0.29069243447878984,0.4914366941182958
1058,14.064023039766743,74.97637109058313,2.488665993510242,0.2905360480699201,0.4911465120734261
1059,14.077316067214538,74.97637109058313,2.4884674234621658,0.2902573814570231,0.4906302560971874
1060,14.090609094662334,74.97637109058313,2.4868517808129584,0.2898682763300661,0.48990135361749504
1061,14.103902122110128,74.97637109058313,2.4838407275548895,0.2893928023686161,0.48899496820509913
1062,14.117195149557922,74.97637109058313,2.479579191469112,0.2888652497359407,0.4879656939339144
1063,14.130488177005716,74.97637109058313,2.4743249504177838,0.28832671999875403,0.48688289709833255
1064,14.143781204453513,74.97637109058313,2.4684249036733568,0.2878207313229395,0.4858241936171546
1065,14.157074231901309,74.97637109058313,2.4622809923785596,0.28738841497954026,0.4848678141167382
1066,14.1703672593491,74.97637109058313,2.456310000592188,0.2870639525354027,0.48408477085167984
1067,14.183660286796895,74.97637109058313,2.4509022398060814,0.28687087293549407,0.48353177759769445
1068,14.19695331424469,74.97637109058313,2.4463841779829676,0.2868197019569072,0.4832458027320611
1069,14.210246341692486,74.97637109058313,2.4429894180890583,0.28690725475479556,0.4832409634636984
1070,14.22353936914028,74.97637109058313,2.440841172006606,0.28711761046567125,0.4835080552285948
1071,14.236832396588074,74.97637109058313,2.439947726139361,0.28742454922938754,0.48401642689237134
1072,14.250125424035868,74.97637109058313,2.440210623778708,0.2877950349981843,0.4847176915788254
1073,14.263418451483664,74.97637109058313,2.4414436730259026,0.2881932229741187,0.48555092815830986
1074,14.27671147893146,74.97637109058313,2.443399688556176,0.2885844378663878,0.48644894551894374
1075,14.290004506379251,74.97637109058313,2.4458012367934576,0.2889386087966787,0.4873448540664439
1076,14.303297533827047,74.97637109058313,2.448371429602611,0.28923277166068956,0.48817810876611123
1077,14.31659056127484,74.97637109058313,2.4508609836644375,0.28945243311935565,0.48889937173341497
1078,14.329883588722636,74.97637109058313,2.4530687572879257,0.28959178584630046,0.4894737852689527
1079,14.343176616170432,74.97637109058313,2.4548545735302083,0.2896529353874082,0.4898824951428686
1080,14.356469643618226,74.97637109058313,2.456144349471668,0.2896444175666019,0.49012249539361386
1081,14.36976267106602,74.97637109058313,2.4569281832957386,0.28957933646820216,0.490205045473081
1082,14.383055698513816,74.97637109058313,2.4572525675435437,0.28947343696799865,0.49015302033052827
1083,14.39634872596161,74.97637109058313,2.4572083036615404,0.2893433569865665,0.48999759255582687
1084,14.409641753409405,74.97637109058313,2.456915821736432,0.28920520695541946,0.4897746269553
1085,14.4229347808572,74.97637109058313,2.4565095219453212,0.2890735240351092,0.4895211141552931
1086,14.436227808304992,74.97637109058313,2.456122558247445,0.2889605690744605,0.48927190342036897
1087,14.44952083575279,74.97637109058313,2.4558732480180177,0.28887588891189564,0.48905693179099513
1088,14.462813863200584,74.97637109058313,2.4558540510355304,0.2888260581816922,0.4888990934316052
1089,14.476106890648378,74.97637109058313,2.456123821420444,0.28881453617298214,0.4888128478431177
1090,14.489399918096172,74.97637109058313,2.456703781136856,0.2888416119327084,0.4888036218538701
1091,14.502692945543968,74.97637109058313,2.45757737547088,0.2889044493066201,0.48886801176867417
1092,14.515985972991762,74.97637109058313,2.4586938452317906,0.28899727004733516,0.4889947364186491
1093,14.529279000439557,74.97637109058313,2.4599750059841936,0.2891117199398037,0.4891662323518621
1094,14.542572027887353,74.97637109058313,2.4613244027524805,0.2892374489501988,0.4893607269350445
1095,14.555865055335143,74.97637109058313,2.4626377639899735,0.289362906176333,0.48955458354292364
1096,14.56915808278294,74.97637109058313,2.4638135639655614,0.28947631202408663,0.48972469379328426
1097,14.582451110230735,74.97637109058313,2.464762552727919,0.28956673297166097,0.489850698758818
1098,14.59574413767853,74.97637109058313,2.465415331353957,0.2896251569403705,0.4899168527148111
1099,14.609037165126324,74.97637109058313,2.465727405247687,0.2896454554507694,0.4899133866545654
1100,14.62233019257412,74.97637109058313,2.465681575807214,0.289625124534767,0.4898372776386879
1101,14.635623220021914,74.97637109058313,2.46528794712122,0.2895657182546821,0.4896924245170628
1102,14.648916247469709,74.97637109058313,2.4645821440128004,0.2894729209831227,0.4894893523731706
1103,14.662209274917505,74.97637109058313,2.463622492832013,0.28935624130066123,0.48924456696298285
1104,14.675502302365295,74.97637109058313,2.462486873078005,0.2892283533642479,0.48897956180210406
1105,14.688795329813091,74.97637109058313,2.4612697162565733,0.289104153707051,0.4887194480712779
1106,14.702088357260887,74.97637109058313,2.4600792630695825,0.28899961480891884,0.488491245157426
1107,14.715381384708682,74.97637109058313,2.4590347815439952,0.288930502625694,0.4883219024033104
1108,14.728674412156476,74.97637109058313,2.4582631057634,0.2889110207589172,0.48823612020970025
1109,14.741967439604272,74.97637109058313,2.4578936814670866,0.288952454570161,0.4882540576207832
1110,14.755260467052066,74.97637109058313,2.45805137613091,0.2890618943550196,0.48838905659049614
1111,14.76855349449986,74.97637109058313,2.45884665351191,0.2892411200934481,0.488645566998943
1112,14.781846521947656,74.97637109058313,2.460363291860787,0.2894857400263377,0.4890175073483703
1113,14.795139549395447,74.97637109058313,2.462644546747602,0.2897846872549509,0.48948732569698444
1114,14.808432576843243,74.97637109058313,2.4656793823621923,0.2901201835609794,0.4900260159482703
1115,14.82172560429104,74.97637109058313,2.469390954644713,0.29046827106256345,0.49059428344920814
1116,14.835018631738834,74.97637109058313,2.473629770245669,0.29079999553192387,0.49114493870018405
1117,14.848311659186628,74.97637109058313,2.478173746478907,0.2910832922199066,0.49162643995545147
1118,14.861604686634424,74.97637109058313,2.4827367158691893,0.2912855378944181,0.4919873284056684
1119,14.874897714082218,74.97637109058313,2.4869857129286803,0.291376599903547,0.49218113538048025
1120,14.888190741530012,74.97637109058313,2.490565851594108,0.2913321007125085,0.49217122240089783
1121,14.901483768977808,74.97637109058313,2.493130793960348,0.29113654621425716,0.49193496823977734
1122,14.9147767964256,74.97637109058313,2.4943768371292485,0.2907859225751045,0.49146675660848793
1123,14.928069823873397,74.97637109058313,2.4940774335366283,0.29028936595211374,0.49077934308883003
1124,14.941362851321191,74.97637109058313,2.4921127671832206,0.28966957568508145,0.4899033751461756
1125,14.954655878768984,74.97637109058313,2.4884890658776837,0.2889617730591415,0.4888850765473294
1126,14.96794890621678,74.97637109058313,2.4833446733963846,0.2882111873551541,0.48778235049254703
1127,14.981241933664576,74.97637109058313,2.476942067635618,0.28746925243772037,0.48665976421411683
1128,14.99453496111237,74.97637109058313,2.4696466115124176,0.2867888885832151,0.48558301569529855
1129,15.007827988560164,74.97637109058313,2.4618944125224784,0.28621939535640084,0.4846135265660898
1130,15.021121016007958,74.97637109058313,2.4541530367048505,0.28580156698145337,0.4838037489198523
1131,15.034414043455753,74.97637109058313,2.446879673003949,0.2855636605623927,0.4831936331786874
1132,15.047707070903549,74.97637109058313,2.440481554585324,0.28551878776574335,0.4828085142142937
1133,15.061000098351345,74.97637109058313,2.435282995958036,0.2856640448813453,0.48265847295356806
1134,15.074293125799135,74.97637109058313,2.431502391045229,0.2859812890430345,0.4827390362339063
1135,15.087586153246932,74.97637109058313,2.4292411163770757,0.2864392987290248,0.483032918585927
1136,15.100879180694728,74.97637109058313,2.428484722520063,0.286997148823633,0.48351245825997485
1137,15.114172208142522,74.97637109058313,2.429115355892243,0.2876085314705519,0.4841424478995192
1138,15.127465235590316,74.97637109058313,2.4309332130485735,0.28822647568422205,0.48488310565318576
1139,15.14075826303811,74.97637109058313,2.4336837472834127,0.28880782730554555,0.48569295386066896
1140,15.154051290485905,74.97637109058313,2.437086458072759,0.2893169614381821,0.4865314163840671
1141,15.1673443179337,74.97637109058313,2.44086147555516,0.28972836403851204,0.4873610057098257
1142,15.180637345381497,74.97637109058313,2.4447516826425364,0.290027900439338,0.4881490205639751
1143,15.19393037282929,74.97637109058313,2.4485391715030307,0.2902127703174297,0.4888687129890475
1144,15.207223400277083,74.97637109058313,2.452055216043438,0.2902903052891245,0.48949991602047205
1145,15.22051642772488,74.97637109058313,2.4551836000736023,0.2902758800109995,0.4900291525420866
1146,15.233809455172674,74.97637109058313,2.457858018407555,0.29019027187705204,0.4904492751097194
1147,15.247102482620468,74.97637109058313,2.460054898078532,0.2900568189408155,0.49075871633433216
1148,15.260395510068262,74.97637109058313,2.4617833130877758,0.28989869854032,0.49096045885320116
1149,15.273688537516056,74.97637109058313,2.4630737449077014,0.2897365925355522,0.49106086000507837
1150,15.286981564963853,74.97637109058313,2.463967314326572,0.2895869323368885,0.4910684841178179
1151,15.300274592411649,74.97637109058313,2.46450683494602,0.28946083939668216,0.4909930985690819
1152,15.31356761985944,74.97637109058313,2.464730666791968,0.28936380225999364,0.49084497240944647
1153,15.326860647307235,74.97637109058313,2.464669923177612,0.2892960632482837,0.4906345744874994
1154,15.340153674755031,74.97637109058313,2.464349137134899,0.28925362692885875,0.49037270219385626
1155,15.353446702202826,74.97637109058313,2.463790050018539,0.2892297481406914,0.49007098853512737
1156,15.36673972965062,74.97637109058313,2.4630177680264436,0.2892167100014097,0.48974264683477403
1157,15.380032757098414,74.97637109058313,2.462068171693923,0.28920766510135487,0.48940323633982197
1158,15.393325784546208,74.97637109058313,2.4609951970659867,0.2891982919527894,0.48907118746304634
1159,15.406618811994004,74.97637109058313,2.4598764801858946,0.2891880213348537,0.4887678284145885
1160,15.4199118394418,74.97637109058313,2.458815912621856,0.28918062041955517,0.48851671361757565
1161,15.433204866889591,74.97637109058313,2.4579419254770816,0.28918398997900446,0.48834216463525004
1162,15.446497894337387,74.97637109058313,2.4574008063809445,0.2892091292095379,0.48826707951805787
1163,15.459790921785183,74.97637109058313,2.457345024982858,0.28926834435634674,0.4883102196981677
1164,15.473083949232976,74.97637109058313,2.457917324038023,0.28937290533841503,0.48848331434372816
1165,15.486376976680772,74.97637109058313,2.4592321182397323,0.28953046834354107,0.4887884037678183
1166,15.499670004128566,74.97637109058313,2.4613564062329667,0.2897426601561702,0.48921585933996864
1167,15.51296303157636,74.97637109058313,2.4642928201867296,0.2900032427498084,0.48974346242110756
1168,15.526256059024156,74.97637109058313,2.4679675141036683,0.2902972327204168,0.4903368064670566
1169,15.53954908647195,74.97637109058313,2.472225271315351,0.2906012343479423,0.49095111115468126
1170,15.552842113919745,74.97637109058313,2.476833493515048,0.29088507077597064,0.49153433269714525
1171,15.56613514136754,74.97637109058313,2.4814956685675265,0.2911146225809129,0.4920313315781362
1172,15.579428168815337,74.97637109058313,2.485873618499504,0.2912556319587509,0.4923888271203631
1173,15.59272119626313,74.97637109058313,2.4896163510317595,0.29127804042306216,0.49256070641618704
1174,15.606014223710924,74.97637109058313,2.492391954985559,0.29116023395536916,0.49251299065814064
1175,15.619307251158718,74.97637109058313,2.493918983324268,0.2908925295834454,0.4922277403297269
1176,15.632600278606512,74.97637109058313,2.4939951334092707,0.2904793640329801,0.4917054126270838
1177,15.645893306054308,74.97637109058313,2.492520798983723,0.28993983247205235,0.4909654158696766
1178,15.659186333502102,74.97637109058313,2.4895133170845853,0.2893064433780683,0.4900447995662967
1179,15.672479360949897,74.97637109058313,2.4851085004947358,0.2886222029147888,0.4889952311525509
1180,15.685772388397693,74.97637109058313,2.479549229056002,0.2879363794595994,0.487878612038799
1181,15.699065415845489,74.97637109058313,2.4731631776810836,0.28729948311710946,0.48676183480847585
1182,15.71235844329328,74.97637109058313,2.466332765246477,0.2867580974731147,0.4857112581973263
1183,15.725651470741075,74.97637109058313,2.4594610297641593,0.28635020843339504,0.48478746921995025
1184,15.73894449818887,74.97637109058313,2.45293735547636,0.28610159138289765,0.4840408212588465
1185,15.752237525636664,74.97637109058313,2.4471066772465626,0.2860236667706551,0.4835081046915379
1186,15.76553055308446,74.97637109058313,2.4422450501634105,0.2861130398248084,0.48321055043089123
1187,15.778823580532254,74.97637109058313,2.438543436858001,0.286352683107662,0.483153219752584
1188,15.792116607980049,74.97637109058313,2.436100414341047,0.28671444208281155,0.4833257139332577
1189,15.805409635427845,74.97637109058313,2.434923418926245,0.28716241619458016,0.4837040047626995
1190,15.81870266287564,74.97637109058313,2.4349372891942025,0.287656805056763,0.4842530539538496
1191,15.831995690323431,74.97637109058313,2.4359983321619363,0.288157820694653,0.4849298972339949
1192,15.845288717771227,74.97637109058313,2.4379120013861093,0.28862924220468894,0.4856870014158534
1193,15.858581745219022,74.97637109058313,2.440452465725356,0.2890412570261004,0.4864757467212395
1194,15.871874772666816,74.97637109058313,2.4433823473663967,0.2893723779307873,0.4872498261386389
1195,15.885167800114612,74.97637109058313,2.4464706689174696,0.28961036903983683,0.487968329788186
1196,15.898460827562406,74.97637109058313,2.4495076363839563,0.28975223233865816,0.48859830530629933
1197,15.9117538550102,74.97637109058313,2.4523161849587516,0.2898033908227378,0.48911660970458054
1198,15.925046882457996,74.97637109058313,2.454760602945997,0.2897762523108851,0.4895109001803397
1199,15.93833990990579,74.97637109058313,2.4567520136172196,0.28968835447806673,0.4897796653448629
1200,15.951632937353583,74.97637109058313,2.4582502697914914,0.28956028648863863,0.4899312778935654
1201,15.96492596480138,74.97637109058313,2.4592620387927897,0.28941356629167847,0.489982151286365
1202,15.978218992249174,74.97637109058313,2.459835151327643,0.2892686331932169,0.4899541944489415
1203,15.991512019696968,74.97637109058313,2.460049633003406,0.28914309644610586,0.4898718612800913
1204,16.004805047144764,74.97637109058313,2.46000623684513,0.28905036153601077,0.48975916413727194
1205,16.018098074592558,74.97637109058313,2.459813669583128,0.2889987327081202,0.48963704247072126
1206,16.031391102040352,74.97637109058313,2.459575959278592,0.28899105835676214,0.48952143657729624
1207,16.044684129488147,74.97637109058313,2.459381461380678,0.28902494218323316,0.4894223111967105
1208,16.05797715693594,74.97637109058313,2.459294800247283,0.2890934882643662,0.4893437179264643
1209,16.071270184383735,74.97637109058313,2.4593526075090155,0.2891864877558506,0.48928480602436175
1210,16.08456321183153,74.97637109058313,2.459563320491027,0.28929189827904317,0.48924152326163944
1211,16.097856239279327,74.97637109058313,2.459910658980794,0.28939742544900365,0.48920862773875606
1212,16.11114926672712,74.97637109058313,2.460359837412116,0.2894919998320654,0.48918158541655105
1213,16.124442294174916,74.97637109058313,2.4608652058963445,0.2895669582447179,0.48915796860628563
1214,16.13773532162271,74.97637109058313,2.461377918353245,0.2896167860229352,0.48913809092067234
1215,16.151028349070504,74.97637109058313,2.461852411661221,0.2896393502736241,0.4891247894531404
1216,16.1643213765183,74.97637109058313,2.462250898081957,0.2896356409272495,0.4891224579590264
1217,16.177614403966093,74.97637109058313,2.4625456262573246,0.28960912080082774,0.4891356040112448
1218,16.190907431413887,74.97637109058313,2.462719226901528,0.2895648513862695,0.4891673116078536
1219,16.20420045886168,74.97637109058313,2.462763898792309,0.28950859381603217,0.4892180140809913
1220,16.21749348630948,74.97637109058313,2.4626804053455693,0.28944607601942285,0.48928491306894883
1221,16.230786513757273,74.97637109058313,2.462477787846956,0.28938256687048325,0.48936223001140083
1222,16.244079541205068,74.97637109058313,2.462174367892459,0.28932281380151165,0.4894422719324546
1223,16.257372568652862,74.97637109058313,2.4618000828887703,0.28927129874333996,0.48951707837345526
1224,16.270665596100656,74.97637109058313,2.461399599289608,0.28923267571352546,0.48958028240565593
1225,16.28395862354845,74.97637109058313,2.461035127312338,0.28921219415046834,0.48962879799814213
1226,16.297251650996245,74.97637109058313,2.4607875576206397,0.28921588913799884,0.489663936836447
1227,16.31054467844404,74.97637109058313,2.4607545529597754,0.28925034300984975,0.48969156672272546
