,time,sample_rate,Red,Green,Blue
0,0.0,73.17824873692001,1.7871965446624596,0.019841174278099855,0.22088782166908624
1,0.0132872431115092,73.17824873692001,1.791523992001337,0.019876246373375796,0.221413391397335
2,0.0265744862230185,73.17824873692001,1.7952060289809464,0.019906554472800125,0.2218592070902608
3,0.0398617293345277,73.17824873692001,1.7977766493268146,0.01992846668602848,0.22216842781700874
4,0.053148972446037,73.17824873692001,1.7989643600813314,0.019940391718321612,0.22230871189520393
5,0.0664362155575463,73.17824873692001,1.798714874851686,0.019942859306951232,0.22227486710016126
6,0.0797234586690555,73.17824873692001,1.7971765077966664,0.01993815006387117,0.22208673136232365
7,0.0930107017805648,73.17824873692001,1.7946620822647195,0.01992966953659996,0.2217841382207905
8,0.106297944892074,73.17824873692001,1.7915929688701366,0.01992116947863873,0.2214197921299287
9,0.1195851880035833,73.17824873692001,1.788430201892737,0.019915913502868768,0.22105071826473058
10,0.1328724311150926,73.17824873692001,1.785605384535366,0.01991596826653666,0.22072980067303732
11,0.1461596742266018,73.17824873692001,1.7834714758932129,0.01992186803357443,0.22049977386704142
12,0.1594469173381111,73.17824873692001,1.7822845850085425,0.01993277125250992,0.22039099657646158
13,0.1727341604496203,73.17824873692001,1.7822072168279937,0.019946961986184134,0.22042189496887277
14,0.1860214035611296,73.17824873692001,1.783315313852004,0.019962429277206577,0.22059994786938036
15,0.1993086466726389,73.17824873692001,1.785600172061771,0.01997734499835047,0.2209220595339366
16,1.275575338704889,73.17824873692001,1.7889659854505062,0.019990377469933117,0.2213743155485531
17,1.288862581816398,73.17824873692001,1.7932277970636852,0.020000835310636136,0.2219316581088763
18,1.302149824927907,73.17824873692001,1.7981154959890815,0.020008661786354957,0.222558201224447
19,1.3154370680394167,73.17824873692001,1.8032880157957007,0.020014315395015445,0.2232087993078207
20,1.328724311150926,73.17824873692001,1.808358881592783,0.02001857968210912,0.22383215501388526
21,1.3420115542624351,73.17824873692001,1.812931344301539,0.020022346026645193,0.224375378098065
22,1.3552987973739443,73.17824873692001,1.8166391040481045,0.020026409040107385,0.2247895581011857
23,1.3685860404854535,73.17824873692001,1.8191871085321094,0.02003130656061936,0.2250356045635201
24,1.381873283596963,73.17824873692001,1.8203863449931625,0.020037225882077837,0.2250894046570906
25,1.3951605267084723,73.17824873692001,1.8201771646447733,0.02004398548020169,0.2249454265970799
26,1.4084477698199815,73.17824873692001,1.8186373807775906,0.020051088631059602,0.2246182515677776
27,1.4217350129314907,73.17824873692001,1.8159735827783061,0.02005783407726883,0.22414176288112597
28,1.435022256043,73.17824873692001,1.8124964309290905,0.02006346070744588,0.22356581720841218
29,1.4483094991545091,73.17824873692001,1.8085831341351846,0.020067298942989066,0.22295059074148063
30,1.4615967422660183,73.17824873692001,1.8046324224453352,0.020068901548119637,0.22235936249723232
31,1.4748839853775275,73.17824873692001,1.8010184298744885,0.020068130889159867,0.2218508344455974
32,1.4881712284890372,73.17824873692001,1.7980498244602026,0.020065188828214005,0.2214721307127948
33,1.5014584716005464,73.17824873692001,1.7959394435148825,0.020060587734853134,0.22125350245075487
34,1.5147457147120555,73.17824873692001,1.794787870805528,0.020055070744626785,0.22120551688378048
35,1.5280329578235647,73.17824873692001,1.7945822152566695,0.02004949464620045,0.22131904017318563
36,1.5413202009350742,73.17824873692001,1.7952092000115907,0.0200446935705418,0.22156772029492885
37,1.5546074440465834,73.17824873692001,1.7964796247819395,0.020041345477883294,0.2219123557392353
38,1.5678946871580923,73.17824873692001,1.7981596045428956,0.020039862583853964,0.22230654700663174
39,1.581181930269602,73.17824873692001,1.8000035590195924,0.02004032205429559,0.22270293317424142
40,1.5944691733811112,73.17824873692001,1.8017847015429773,0.020042447025237015,0.22305911906618556
41,1.6077564164926204,73.17824873692001,1.8033197093914446,0.020045640655711305,0.2233424342695439
42,1.6210436596041295,73.17824873692001,1.8044851405847564,0.020049068235568106,0.22353292255282436
43,1.634330902715639,73.17824873692001,1.80522431225701,0.020051776936386597,0.22362430340165598
44,1.6476181458271482,73.17824873692001,1.805544615283102,0.020052839817021884,0.22362301216776112
45,1.6609053889386574,73.17824873692001,1.805506461516783,0.020051507666156626,0.22354567911658021
46,1.6741926320501668,73.17824873692001,1.805206104612286,0.020047349389850918,0.22341551896120165
47,1.687479875161676,73.17824873692001,1.8047551841790226,0.02004036093387789,0.22325818987945814
48,1.7007671182731852,73.17824873692001,1.8042599899321234,0.020031024590710364,0.22309774377629668
49,1.7140543613846944,73.17824873692001,1.8038032404954487,0.020020304992353688,0.22295323773866796
50,1.7273416044962038,73.17824873692001,1.8034306898531307,0.02000957496041277,0.22283642594240055
51,1.740628847607713,73.17824873692001,1.80314418463762,0.020000472875547237,0.2227507671154222
52,1.7539160907192222,73.17824873692001,1.8029019795975925,0.01999470261507142,0.2226917944184349
53,1.7672033338307316,73.17824873692001,1.8026262516391813,0.019993796928352795,0.22264870540732498
54,1.7804905769422408,73.17824873692001,1.8022169012280211,0.01999887396763022,0.22260686053016326
55,1.79377782005375,73.17824873692001,1.8015699540963164,0.02001042016800192,0.2225507886950674
56,1.80706506316526,73.17824873692001,1.8005982367612312,0.02002812983033755,0.22246728953505115
57,1.8203523062767688,73.17824873692001,1.7992515625099579,0.020050829751211287,0.2223482268910577
58,1.8336395493882776,73.17824873692001,1.7975335012779408,0.020076515276641144,0.22219262797566286
59,1.846926792499787,73.17824873692001,1.7955119876812216,0.02010251127043919,0.2220077818111004
60,1.8602140356112964,73.17824873692001,1.7933215921788217,0.020125748916547604,0.22180915071231477
61,1.8735012787228056,73.17824873692001,1.7911562810784987,0.020143127299988222,0.22161904522678846
62,1.8867885218343148,73.17824873692001,1.7892528294192473,0.02015191145939553,0.22146417278034283
63,1.900075764945824,73.17824873692001,1.787866213645351,0.020150111768460273,0.2213723370864215
64,1.9133630080573327,73.17824873692001,1.7872391433144428,0.02013679488867589,0.22136870433522196
65,1.9266502511688424,73.17824873692001,1.7875691699580862,0.02011228135158737,0.22147213826758147
66,1.939937494280352,73.17824873692001,1.788978279603561,0.020078188932977498,0.22169211973327177
67,1.9532247373918608,73.17824873692001,1.7914899867051863,0.02003730158517787,0.22202670036026861
68,1.9665119805033704,73.17824873692001,1.7950176269060703,0.01999327723604742,0.22246180594110856
69,1.97979922361488,73.17824873692001,1.7993659003270597,0.01995023521934537,0.22297202288648968
70,1.993086466726389,73.17824873692001,1.8042460045515631,0.019912280573407992,0.22352279702215772
71,2.006373709837898,73.17824873692001,1.8093028317110653,0.019883030377102102,0.2240737797737907
72,2.0196609529494074,73.17824873692001,1.8141509722312175,0.019865205868947147,0.22458290220179797
73,2.0329481960609166,73.17824873692001,1.8184149906945668,0.019860342812436305,0.22501066495917366
74,2.046235439172426,73.17824873692001,1.8217688188937802,0.019868653543048138,0.22532411439763497
75,2.0595226822839354,73.17824873692001,1.823969245036089,0.019889051829001744,0.2255000303868578
76,2.0728099253954446,73.17824873692001,1.8248792985067903,0.01991932962559647,0.2255269691190154
77,2.086097168506954,73.17824873692001,1.8244787118303192,0.019956454602278934,0.22540597707552482
78,2.099384411618463,73.17824873692001,1.8228606911714023,0.019996942043568545,0.22514999100500963
79,2.112671654729972,73.17824873692001,1.820216594832036,0.02003724792749387,0.2247820956276609
80,2.1259588978414814,73.17824873692001,1.8168115430980343,0.020074132364403453,0.22433290423902827
81,2.1392461409529906,73.17824873692001,1.8129542513588803,0.020104952554353423,0.2238373975648663
82,2.1525333840645,73.17824873692001,1.8089646699487967,0.02012785944418457,0.22333159983142048
83,2.165820627176009,73.17824873692001,1.805143343344842,0.020141889016865623,0.22284945266113546
84,2.179107870287518,73.17824873692001,1.8017459064242378,0.02014695426144385,0.22242017625804017
85,2.192395113399028,73.17824873692001,1.798964955469868,0.020143754702537084,0.22206631311814162
86,2.205682356510537,73.17824873692001,1.7969202454516309,0.020133625836904565,0.22180254955077705
87,2.218969599622046,73.17824873692001,1.795657013042011,0.020118352391313384,0.2216353180122502
88,2.2322568427335554,73.17824873692001,1.7951513304390068,0.0200999682115162,0.2215631099467469
89,2.245544085845065,73.17824873692001,1.795320841726028,0.020080560508967556,0.22157738038368768
90,2.2588313289565742,73.17824873692001,1.796039021529575,0.02006208900146507,0.22166390194285754
91,2.2721185720680834,73.17824873692001,1.797151163861397,0.02004622674549576,0.2218044218542156
92,2.2854058151795926,73.17824873692001,1.798490558503011,0.020034229649968763,0.22197848276592141
93,2.298693058291102,73.17824873692001,1.7998936380394914,0.02002684219995408,0.22216527816418083
94,2.311980301402611,73.17824873692001,1.8012131951565564,0.020024246761775954,0.2223454207127852
95,2.32526754451412,73.17824873692001,1.8023290268975491,0.0200260630656465,0.22250250580265246
96,2.33855478762563,73.17824873692001,1.8031555488605884,0.020031402083780812,0.22262435654138452
97,2.351842030737139,73.17824873692001,1.8036460581194116,0.020038973989620287,0.22270384642527055
98,2.365129273848648,73.17824873692001,1.803793447261294,0.020047243857457445,0.22273921809646618
99,2.378416516960157,73.17824873692001,1.803627323883757,0.020054621898278006,0.22273385423726727
100,2.391703760071666,73.17824873692001,1.8032076990842327,0.02005966816639331,0.22269550859821982
101,2.404991003183176,73.17824873692001,1.8026156826925208,0.02006128797820234,0.22263506568120275
102,2.418278246294685,73.17824873692001,1.801941944977548,0.020058895122186438,0.2225649576301042
103,2.4315654894061947,73.17824873692001,1.801274033838728,0.020052521142238128,0.22249741904001336
104,2.444852732517704,73.17824873692001,1.8006839162268349,0.020042850443192168,0.22244279557155802
105,2.458139975629213,73.17824873692001,1.8002172797577989,0.020031168538916785,0.2224081151576922
106,2.4714272187407222,73.17824873692001,1.7998861281629757,0.02001922355036271,0.2223960834551998
107,2.4847144618522314,73.17824873692001,1.7996659918973412,0.020009013086541298,0.22240463736256147
108,2.4980017049637406,73.17824873692001,1.7994986425552684,0.02000251851067607,0.22242718169890474
109,2.51128894807525,73.17824873692001,1.7993005628017458,0.020001416954719874,0.22245356683967812
110,2.5245761911867595,73.17824873692001,1.7989766011484243,0.02000680765678957,0.22247174082668006
111,2.5378634342982687,73.17824873692001,1.7984373319917286,0.020018991900684992,0.22246989353664742
112,2.551150677409778,73.17824873692001,1.7976178740416173,0.020037341609691825,0.22243881835661242
113,2.564437920521287,73.17824873692001,1.7964954375759412,0.02006028030457157,0.22237414481043402
114,2.577725163632796,73.17824873692001,1.7951026766649538,0.02008538873026924,0.22227806212624532
115,2.591012406744305,73.17824873692001,1.7935341212554943,0.02010963665088915,0.22216017852879022
116,2.604299649855814,73.17824873692001,1.791943696337631,0.020129723829530134,0.22203725321543688
117,2.6175868929673243,73.17824873692001,1.790532550200583,0.020142489891961657,0.22193169355935935
118,2.630874136078833,73.17824873692001,1.7895279147614542,0.02014533964558271,0.22186890940070342
119,2.6441613791903427,73.17824873692001,1.789155262064871,0.02013663024152622,0.2218738259125115
120,2.657448622301852,73.17824873692001,1.7896073229885106,0.020115965868010045,0.22196703530949982
121,2.670735865413361,73.17824873692001,1.7910143344243237,0.020084345424081274,0.22216117593774173
122,2.6840231085248702,73.17824873692001,1.7934199990080824,0.020044126002828427,0.22245813686091825
123,2.6973103516363794,73.17824873692001,1.7967670210697688,0.019998797708813167,0.22284758808413757
124,2.710597594747889,73.17824873692001,1.8008948080726537,0.019952596300776847,0.223307144674275
125,2.7238848378593983,73.17824873692001,1.8055502050775485,0.019910004297082447,0.22380422069886982
126,2.7371720809709075,73.17824873692001,1.8104102467316974,0.019875209050232306,0.22429936190526825
127,2.7504593240824167,73.17824873692001,1.8151141756391498,0.01985159602514972,0.22475061076861966
128,2.763746567193926,73.17824873692001,1.819300662996318,0.01984135422416911,0.2251182932488358
129,2.777033810305435,73.17824873692001,1.8226454713322784,0.01984524887549283,0.22536953091478898
130,2.7903210534169447,73.17824873692001,1.824894808415585,0.019862577765370315,0.22548179059852197
131,2.803608296528454,73.17824873692001,1.8258902834557893,0.01989130277277381,0.22544502414032333
132,2.816895539639963,73.17824873692001,1.825582571284159,0.019928341432470516,0.22526237452025163
133,2.8301827827514723,73.17824873692001,1.8240326224871255,0.01996998316176532,0.2249495824179096
134,2.843470025862981,73.17824873692001,1.8214012368983579,0.020012364579484933,0.22453309506228508
135,2.8567572689744907,73.17824873692001,1.8179291790898084,0.02005192754863985,0.22404698985004642
136,2.870044512086,73.17824873692001,1.813910571062945,0.020085793939743492,0.22352916612681475
137,2.883331755197509,73.17824873692001,1.8096627600004753,0.02011201096068299,0.22301740115817084
138,2.8966189983090187,73.17824873692001,1.8054962188957941,0.020129645802114605,0.22254578812794953
139,2.909906241420528,73.17824873692001,1.8016877477449313,0.020138734581774856,0.22214193853894829
140,2.923193484532037,73.17824873692001,1.7984594045000657,0.020140113328216653,0.2218251736787609
141,2.9364807276435463,73.17824873692001,1.795964600440588,0.02013517422190745,0.22160576458876768
142,2.9497679707550555,73.17824873692001,1.7942818284699056,0.020125596303403142,0.22148513736934922
143,2.9630552138665647,73.17824873692001,1.793415665553155,0.020113096213887294,0.22145686136774942
144,2.9763424569780743,73.17824873692001,1.7933040800996134,0.0200992330428523,0.22150819030271948
145,2.9896297000895835,73.17824873692001,1.7938306962128228,0.020085285252116527,0.22162192474459624
146,3.0029169432010927,73.17824873692001,1.7948404858373581,0.020072200660599112,0.22177839252404918
147,3.016204186312602,73.17824873692001,1.7961573173230028,0.02006060624683776,0.22195738258716968
148,3.029491429424111,73.17824873692001,1.797601827415845,0.020050856610239393,0.22213990293663835
149,3.0427786725356203,73.17824873692001,1.799008169289493,0.020043099169642708,0.22230965870155855
150,3.056065915647129,73.17824873692001,1.800238318762432,0.020037337118159748,0.2224541648284869
151,3.069353158758639,73.17824873692001,1.8011928133308792,0.020033476092627265,0.22256542704721882
152,3.0826404018701483,73.17824873692001,1.80181707669289,0.0200313489664273,0.22264015193940367
153,3.095927644981657,73.17824873692001,1.8021028521062639,0.02003072283137925,0.2226794848364422
154,3.1092148880931667,73.17824873692001,1.802084711992648,0.020031298395468463,0.22268831960931282
155,3.122502131204676,73.17824873692001,1.8018320849782503,0.02003271359816132,0.22267426930693093
156,3.135789374316185,73.17824873692001,1.8014376889745545,0.02003456126767331,0.22264642290204376
157,3.1490766174276943,73.17824873692001,1.8010036270428944,0.020036425935828852,0.22261403410835282
158,3.162363860539204,73.17824873692001,1.8006266539775901,0.020037938610825288,0.2225852838512975
159,3.175651103650713,73.17824873692001,1.800384236295976,0.020038841830138085,0.22256623232295192
160,3.1889383467622223,73.17824873692001,1.8003230056331163,0.020039052079302008,0.22256005595937833
161,3.2022255898737315,73.17824873692001,1.8004510446197421,0.020038703864129193,0.2225666536074957
162,3.2155128329852407,73.17824873692001,1.8007351104706264,0.02003816019169099,0.22258267872662352
163,3.22880007609675,73.17824873692001,1.8011034044087915,0.020037978272171218,0.2226020101941782
164,3.242087319208259,73.17824873692001,1.801453949724637,0.020038826602835187,0.2226166327177593
165,3.2553745623197687,73.17824873692001,1.8016680708231638,0.020041359262410463,0.2226178589489197
166,3.268661805431278,73.17824873692001,1.8016277784174934,0.020046063621570666,0.222597782558754
167,3.281949048542787,73.17824873692001,1.8012351378238598,0.020053106704918524,0.22255080844197123
168,3.2952362916542963,73.17824873692001,1.8004311367468142,0.020062210939517183,0.22247507070853723
169,3.308523534765805,73.17824873692001,1.7992112913646556,0.020072590126368493,0.2223735297124056
170,3.3218107778773147,73.17824873692001,1.7976353054004506,0.020082970104078647,0.2222545443217873
171,3.335098020988824,73.17824873692001,1.7958286407677198,0.020091705895703013,0.2221317510558675
172,3.348385264100333,73.17824873692001,1.7939748583011097,0.020096989772926403,0.22202314999247724
173,3.3616725072118427,73.17824873692001,1.7922988096166026,0.020097125674976617,0.22194939571804154
174,3.374959750323352,73.17824873692001,1.7910420562306835,0.020090828752399512,0.22193141091622184
175,3.388246993434861,73.17824873692001,1.7904332296050134,0.020077498509490664,0.22198756453338472
176,3.4015342365463703,73.17824873692001,1.7906571596462681,0.020057413148766672,0.2221307641907631
177,3.4148214796578795,73.17824873692001,1.7918271249647475,0.020031802403798215,0.22236587973583646
178,3.4281087227693887,73.17824873692001,1.793964391193823,0.020002775108013546,0.2226879209218855
179,3.4413959658808984,73.17824873692001,1.7969883455517006,0.019973102498089236,0.22308132615019602
180,3.454683208992408,73.17824873692001,1.8007191198642132,0.019945883987483565,0.22352058430794378
181,3.4679704521039167,73.17824873692001,1.804892836475532,0.01992414384191388,0.22397222667392677
182,3.481257695215426,73.17824873692001,1.8091877977552364,0.01991042150315369,0.2243980209428249
183,3.494544938326935,73.17824873692001,1.8132583633213284,0.019906422509815842,0.22475900997690185
184,3.5078321814384443,73.17824873692001,1.8167721651905793,0.019912784294514794,0.22501989329655753
185,3.521119424549954,73.17824873692001,1.819445860991611,0.019928984170080564,0.22515317409480795
186,3.534406667661463,73.17824873692001,1.8210748401517962,0.01995339656600058,0.225142525005986
187,3.5476939107729724,73.17824873692001,1.821553136475122,0.01998349641569719,0.22498495532560409
188,3.5609811538844816,73.17824873692001,1.8208813893165605,0.020016185230896006,0.22469150470071728
189,3.5742683969959907,73.17824873692001,1.8191627622949254,0.020048189181857596,0.22428632400762202
190,3.5875556401075,73.17824873692001,1.8165882222923049,0.020076465290686955,0.2238042051684392
191,3.600842883219009,73.17824873692001,1.8134132814268487,0.020098554939269386,0.2232868607403823
192,3.614130126330519,73.17824873692001,1.8099291016302106,0.02011283588499069,0.2227784302169813
193,3.627417369442028,73.17824873692001,1.8064316792443398,0.020118642240647598,0.22232077612510562
194,3.640704612553537,73.17824873692001,1.803192873595597,0.020116246504787813,0.2219491421352891
195,3.6539918556650464,73.17824873692001,1.8004363646721668,0.02010672403531036,0.22168867902173708
196,3.667279098776556,73.17824873692001,1.7983206580603757,0.0200917359743792,0.22155221288412358
197,3.6805663418880648,73.17824873692001,1.7969301965498816,0.020073269152609194,0.22153945797335606
198,3.693853584999574,73.17824873692001,1.7962746212889953,0.020053371610069856,0.22163769292957283
199,3.707140828111084,73.17824873692001,1.7962953750817436,0.020033921030863135,0.22182375446612218
200,3.720428071222593,73.17824873692001,1.796878222196317,0.02001645410508128,0.2220670749508369
201,3.733715314334102,73.17824873692001,1.797869886194773,0.020002070261865977,0.22233338560646426
202,3.747002557445611,73.17824873692001,1.7990968527400442,0.019991409349570104,0.222588629448336
203,3.76028980055712,73.17824873692001,1.800384403302159,0.019984690455436153,0.2228026406017995
204,3.7735770436686296,73.17824873692001,1.8015740965950622,0.019981789522147526,0.2229522403948625
205,3.7868642867801374,73.17824873692001,1.8025381713054842,0.019982332201562602,0.22302347501572006
206,3.800151529891648,73.17824873692001,1.8031896952020345,0.019985784716034634,0.2230127694669107
207,3.8134387730031576,73.17824873692001,1.8034877251648918,0.01999153122534056,0.2229268680840858
208,3.826726016114667,73.17824873692001,1.8034372524422553,0.019998929875081832,0.2227815712044311
209,3.840013259226176,73.17824873692001,1.8030842486332597,0.020007345239626283,0.2225994214218247
210,3.853300502337685,73.17824873692001,1.8025066402389953,0.02001616141037941,0.2224066242183656
211,3.8665877454491935,73.17824873692001,1.8018024527085592,0.020024784658797107,0.22222959239624987
212,3.879874988560704,73.17824873692001,1.8010766164150103,0.020032646536436355,0.22209156793860724
213,3.893162231672213,73.17824873692001,1.8004279803112166,0.020039217309070708,0.2220097828909303
214,3.9064494747837215,73.17824873692001,1.7999379333763075,0.02004403596964927,0.22199352912623724
215,3.919736717895232,73.17824873692001,1.7996617240045008,0.020046757558639966,0.22204332708027158
216,3.933023961006741,73.17824873692001,1.7996231536507203,0.020047212385288074,0.22215123918403484
217,3.94631120411825,73.17824873692001,1.7998128753305216,0.020045466370085824,0.2223022857293851
218,3.959598447229759,73.17824873692001,1.8001901193005223,0.020041868307027432,0.2224767714712487
219,3.972885690341269,73.17824873692001,1.8006873526312075,0.0200370691499116,0.22265314536516018
220,3.986172933452778,73.17824873692001,1.8012171895071682,0.020032000740561016,0.22281092367142225
221,3.999460176564287,73.17824873692001,1.8016808111116966,0.02002780652485857,0.22293322691601028
222,4.012747419675796,73.17824873692001,1.8019772060013808,0.02002572413202963,0.2230085746426703
223,4.026034662787306,73.17824873692001,1.8020126579882518,0.02002692824362135,0.2230317309982975
224,4.039321905898815,73.17824873692001,1.8017100288561032,0.02003235067334267,0.22300357561473566
225,4.052609149010324,73.17824873692001,1.8010174498703309,0.020042501570575535,0.22293015248685402
226,4.065896392121833,73.17824873692001,1.7999160114306036,0.020057319738831243,0.22282118855311314
227,4.079183635233343,73.17824873692001,1.7984259229501816,0.0200760801009624,0.2226884443006604
228,4.092470878344852,73.17824873692001,1.7966104462716517,0.020097381740774974,0.22254424617957935
229,4.105758121456361,73.17824873692001,1.7945767676744904,0.020119230768314456,0.22240045886019216
230,4.119045364567871,73.17824873692001,1.7924729598424296,0.020139219328618726,0.2222680072021222
231,4.13233260767938,73.17824873692001,1.7904803471455875,0.020154786790879165,0.22215689027561022
232,4.145619850790889,73.17824873692001,1.7888009737244293,0.020163533858571444,0.2220764855369904
233,4.158907093902398,73.17824873692001,1.7876405563454076,0.020163549423803107,0.22203585780751667
234,4.172194337013908,73.17824873692001,1.7871881828249563,0.020153705762381718,0.22204378737518288
235,4.185481580125416,73.17824873692001,1.7875948057425803,0.02013387718156923,0.22210831523706084
236,4.198768823236926,73.17824873692001,1.7889530976716579,0.020105041452820018,0.22223575019997502
237,4.212056066348436,73.17824873692001,1.7912814176049294,0.020069238250734315,0.22242925486248483
238,4.225343309459944,73.17824873692001,1.794514405019803,0.020029382153354747,0.22268728154921144
239,4.238630552571454,73.17824873692001,1.7985020379178915,0.019988951061461417,0.22300222593566876
240,4.251917795682963,73.17824873692001,1.8030179590865536,0.01995158998430531,0.22335968028566924
241,4.265205038794472,73.17824873692001,1.8077766604080676,0.019920683453530486,0.22373859394670742
242,4.278492281905981,73.17824873692001,1.8124579141485628,0.019898955314621637,0.22411249951318665
243,4.291779525017491,73.17824873692001,1.816735839492222,0.019888151975190775,0.22445176771499833
244,4.3050667681290005,73.17824873692001,1.820309337004391,0.0198888547554262,0.22472665099429345
245,4.318354011240509,73.17824873692001,1.8229304019904036,0.019900445660520905,0.22491070076618747
246,4.331641254352019,73.17824873692001,1.8244270447724311,0.019921222007464535,0.224984033266579
247,4.344928497463528,73.17824873692001,1.8247181751899484,0.01994863563706155,0.22493593373595025
248,4.358215740575037,73.17824873692001,1.823818935211894,0.01997962482883353,0.22476642756409534
249,4.371502983686546,73.17824873692001,1.8218364156084594,0.020010996034916798,0.22448659037672244
250,4.384790226798056,73.17824873692001,1.818956793389749,0.020039800144232824,0.2241174906101855
251,4.398077469909565,73.17824873692001,1.8154255198118538,0.020063648850357108,0.223687862843486
252,4.411364713021074,73.17824873692001,1.811522822135436,0.02008093065250517,0.22323085960266723
253,4.424651956132584,73.17824873692001,1.8075373884998815,0.020090905488773056,0.2227803826882324
254,4.437939199244092,73.17824873692001,1.8037411677799968,0.020093678346081126,0.22236752596823725
255,4.451226442355602,73.17824873692001,1.8003677638685882,0.020090071675729303,0.22201760573062415
256,4.464513685467111,73.17824873692001,1.7975962234192828,0.02008142899053315,0.22174812949336115
257,4.47780092857862,73.17824873692001,1.795541244395475,0.02006938607320347,0.2215678832475355
258,4.49108817169013,73.17824873692001,1.7942500654669553,0.02005564441118039,0.22147713435017105
259,4.504375414801639,73.17824873692001,1.7937056197812398,0.020041775529521865,0.22146878501812167
260,4.5176626579131485,73.17824873692001,1.7938349995608165,0.020029075453083404,0.22153019484688624
261,4.530949901024657,73.17824873692001,1.7945218992413143,0.020018477851407052,0.22164533400925918
262,4.544237144136167,73.17824873692001,1.7956214843265166,0.02001052495450122,0.221796933477742
263,4.557524387247676,73.17824873692001,1.7969760643214474,0.020005388188774783,0.22196835532797723
264,4.570811630359185,73.17824873692001,1.7984300246315696,0.02000292593566118,0.22214499738077537
265,4.584098873470695,73.17824873692001,1.7998426863674544,0.02000276385089909,0.22231515069995922
266,4.597386116582204,73.17824873692001,1.8010980982425233,0.020004383728354624,0.2224703251125843
267,4.610673359693713,73.17824873692001,1.8021111891802242,0.020007209328009635,0.22260513118632475
268,4.623960602805222,73.17824873692001,1.802830174088612,0.020010680741972976,0.22271684878043302
269,4.637247845916732,73.17824873692001,1.8032355464908205,0.020014311958290447,0.2228048222941833
270,4.65053508902824,73.17824873692001,1.8033363478099949,0.020017728994394017,0.222869807557878
271,4.66382233213975,73.17824873692001,1.80316462505807,0.02002068805240982,0.22291336508359488
272,4.67710957525126,73.17824873692001,1.802769052149943,0.020023074576295312,0.22293735967642905
273,4.690396818362768,73.17824873692001,1.8022086003557505,0.02002488519479528,0.22294359562042787
274,4.703684061474278,73.17824873692001,1.8015469328147262,0.020026195705082635,0.22293359465264315
275,4.716971304585787,73.17824873692001,1.8008479171412841,0.02002711969362048,0.2229085117202035
276,4.7302585476972965,73.17824873692001,1.8001723560196923,0.020027763996877525,0.22286917875321724
277,4.743545790808805,73.17824873692001,1.7995757803535515,0.020028188558989066,0.22281626482687683
278,4.756833033920315,73.17824873692001,1.7991069713818855,0.02002837876197739,0.22275053684587312
279,4.7701202770318245,73.17824873692001,1.7988067973289341,0.020028237457383333,0.22267319404906977
280,4.783407520143333,73.17824873692001,1.7987069683304138,0.0200276014598212,0.2225862308863919
281,4.796694763254843,73.17824873692001,1.7988284170582174,0.02002628331788542,0.22249275924624493
282,4.809982006366352,73.17824873692001,1.7991791799156638,0.02002413429640068,0.2223972002295875
283,4.823269249477861,73.17824873692001,1.7997518582220673,0.020021119499530567,0.2223052496757553
284,4.83655649258937,73.17824873692001,1.8005209452884943,0.02001739184742329,0.22222354065219932
285,4.84984373570088,73.17824873692001,1.8014404928227168,0.020013349040805314,0.22215896622553233
286,4.863130978812389,73.17824873692001,1.8024427642369194,0.020009657396299802,0.22211768659300227
287,4.876418221923898,73.17824873692001,1.8034386519938732,0.020007228970289732,0.22210394214775592
288,4.889705465035408,73.17824873692001,1.8043206416370554,0.020007143870724386,0.2221189047283368
289,4.9029927081469165,73.17824873692001,1.8049689421136368,0.020010517835644094,0.22215985634461421
290,4.916279951258426,73.17824873692001,1.8052610631267978,0.02001832525267614,0.22221996338032202
291,4.929567194369935,73.17824873692001,1.805084603219904,0.020031198419653753,0.2222888318136628
292,4.9428544374814445,73.17824873692001,1.8043523699743298,0.020049233080975257,0.2223538929792602
293,4.956141680592954,73.17824873692001,1.8030182794690004,0.0200718359193638,0.22240249401895618
294,4.969428923704463,73.17824873692001,1.8010918620470604,0.02009764971353482,0.2224243900433191
295,4.9827161668159725,73.17824873692001,1.7986488021425162,0.020124584966640394,0.22241419987758637
296,4.996003409927481,73.17824873692001,1.795834993903286,0.02014997289916574,0.2223733301290404
297,5.009290653038991,73.17824873692001,1.7928621885995177,0.02017083501910418,0.22231091365342873
298,5.0225778961505,73.17824873692001,1.7899944355540753,0.020184242190301207,0.2222434479701503
299,5.035865139262009,73.17824873692001,1.7875260143914855,0.020187717568454944,0.22219303547579214
300,5.049152382373519,73.17824873692001,1.78575266464375,0.0201796269930463,0.22218438225859458
301,5.062439625485028,73.17824873692001,1.7849384525891063,0.02015949479327156,0.22224095810992847
302,5.075726868596537,73.17824873692001,1.7852818597487188,0.020128184633123682,0.22238090845895603
303,5.089014111708046,73.17824873692001,1.7868863707853997,0.020087902164786273,0.22261339952365033
304,5.102301354819556,73.17824873692001,1.7897407438447261,0.02004200631196062,0.22293604790419433
305,5.1155885979310645,73.17824873692001,1.7937122379463726,0.01999464805479247,0.22333393454364991
306,5.128875841042574,73.17824873692001,1.7985540595215348,0.019950283731196235,0.22378045379520528
307,5.142163084154084,73.17824873692001,1.8039265069143036,0.019913131129234925,0.2242399452042427
308,5.1554503272655925,73.17824873692001,1.8094294773864226,0.019886647261396804,0.22467175362540737
309,5.168737570377102,73.17824873692001,1.8146424235301317,0.01987310516014206,0.22503511887506356
310,5.182024813488611,73.17824873692001,1.8191668224252078,0.019873333440801732,0.225294141428843
311,5.1953120566001205,73.17824873692001,1.8226659140354065,0.019886654164100775,0.22542203658014184
312,5.208599299711629,73.17824873692001,1.8248969210574428,0.01991101666415213,0.22540408755332297
313,5.221886542823139,73.17824873692001,1.825732091936641,0.01994329683157901,0.2252390928555194
314,5.2351737859346485,73.17824873692001,1.8251665154147951,0.019979717564597897,0.2249393111039747
315,5.248461029046157,73.17824873692001,1.8233124844780209,0.020016331607540346,0.22452889604748408
316,5.261748272157667,73.17824873692001,1.8203819453549313,0.02004949506643443,0.22404097413198165
317,5.275035515269176,73.17824873692001,1.81665994861126,0.020076263289716116,0.22351382670904893
318,5.288322758380685,73.17824873692001,1.8124728471714429,0.020094659463853012,0.22298677031960756
319,5.301610001492194,73.17824873692001,1.8081552492799555,0.02010379132866054,0.22249627112164388
320,5.314897244603704,73.17824873692001,1.8040194639985814,0.020103817602590637,0.22207271709116752
321,5.328184487715213,73.17824873692001,1.8003304404701805,0.020095788477645548,0.2217381355154627
322,5.341471730826722,73.17824873692001,1.797288165060335,0.020081400197085316,0.22150499415546554
323,5.354758973938232,73.17824873692001,1.7950183453893416,0.02006271077280032,0.2213760821334571
324,5.3680462170497405,73.17824873692001,1.7935711505067475,0.020041862379613157,0.22134534600610742
325,5.38133346016125,73.17824873692001,1.7929269240785637,0.020020847276064582,0.2213994691478687
326,5.394620703272759,73.17824873692001,1.7930072224808942,0.020001340873737995,0.2215199348545657
327,5.4079079463842685,73.17824873692001,1.7936892729429534,0.019984611047932446,0.22168530565167274
328,5.421195189495778,73.17824873692001,1.7948219660534752,0.01997149956889126,0.22187347657112627
329,5.434482432607287,73.17824873692001,1.796241722291729,0.019962460085001004,0.2220637066676737
330,5.447769675718797,73.17824873692001,1.797786918655741,0.019957628885723087,0.2222382869248914
331,5.461056918830305,73.17824873692001,1.799309950451725,0.019956904512078526,0.22238375280093622
332,5.474344161941815,73.17824873692001,1.8006863783726514,0.019960019422057603,0.22249159109362882
333,5.487631405053325,73.17824873692001,1.8018209422066547,0.019966593902354945,0.22255842555974287
334,5.500918648164833,73.17824873692001,1.8026505007952858,0.019976167441669905,0.22258569989451638
335,5.514205891276343,73.17824873692001,1.8031441835396598,0.019988208707121372,0.22257891553350254
336,5.527493134387852,73.17824873692001,1.8033012110550664,0.02000211103993043,0.22254652539466382
337,5.540780377499361,73.17824873692001,1.8031469552072008,0.020017183628185,0.2224986262657067
338,5.55406762061087,73.17824873692001,1.8027278529299466,0.02003264894186793,0.22244562198021092
339,5.56735486372238,73.17824873692001,1.802105760191271,0.020047655117308584,0.22239703477640735
340,5.580642106833889,73.17824873692001,1.8013522404744178,0.020061308390670073,0.22236060466765956
341,5.593929349945398,73.17824873692001,1.8005431481142535,0.02007272621679602,0.22234174220903644
342,5.607216593056908,73.17824873692001,1.7997537215087305,0.02008110720268859,0.22234333824050156
343,5.6205038361684165,73.17824873692001,1.7990542749154264,0.02008581018858817,0.2223659005152935
344,5.633791079279926,73.17824873692001,1.798506490814862,0.02008643229607819,0.22240794583109832
345,5.647078322391435,73.17824873692001,1.7981602748314356,0.020082874856544454,0.22246653435078545
346,5.660365565502945,73.17824873692001,1.7980511354606796,0.020075386813784016,0.22253782689738044
347,5.673652808614454,73.17824873692001,1.7981980905465373,0.02006457729375937,0.22261757104681618
348,5.686940051725963,73.17824873692001,1.7986021622890092,0.02005139275925303,0.2227014549262766
349,5.700227294837473,73.17824873692001,1.7992454855125135,0.02003705897922802,0.2227853002674655
350,5.713514537948981,73.17824873692001,1.8000909364227056,0.020022991846399673,0.22286509641072155
351,5.726801781060491,73.17824873692001,1.8010822993996738,0.020010683559813787,0.22293690439192657
352,5.740089024172,73.17824873692001,1.8021453132959062,0.02000157355134703,0.22299668539775658
353,5.753376267283509,73.17824873692001,1.8031900421898315,0.019996915476855285,0.22304012891678152
354,5.766663510395019,73.17824873692001,1.8041148654136627,0.01999765091631851,0.22306256810506378
355,5.779950753506528,73.17824873692001,1.8048122578960126,0.020004299772807068,0.22305906724033944
356,5.793237996618037,73.17824873692001,1.8051764259765783,0.020016877612345465,0.22302474455923887
357,5.806525239729546,73.17824873692001,1.8051126546880496,0.02003484836270743,0.22295535372618847
358,5.819812482841056,73.17824873692001,1.8045479252087215,0.020057117381360113,0.22284809439678369
359,5.8330997259525645,73.17824873692001,1.8034420165607417,0.02008206791528385,0.22270256619085754
360,5.846386969064074,73.17824873692001,1.8017979277611442,0.020107643348601274,0.22252173106726036
361,5.859674212175584,73.17824873692001,1.799670122096674,0.020131476513564298,0.22231271514238765
362,5.872961455287093,73.17824873692001,1.7971689484320388,0.020151064683811188,0.2220872684078284
363,5.886248698398602,73.17824873692001,1.7944597215957183,0.020163985089251667,0.22186171351538284
364,5.899535941510111,73.17824873692001,1.7917554000516864,0.020168140538988293,0.22165625545533987
365,5.912823184621621,73.17824873692001,1.7893025734424333,0.020162015616493223,0.2214935935880564
366,5.926110427733129,73.17824873692001,1.7873612084244785,0.020144912927724672,0.2213968736310254
367,5.939397670844639,73.17824873692001,1.786179218574692,0.020117133029281493,0.22138713129377086
368,5.952684913956149,73.17824873692001,1.7859641096958732,0.020080063443366204,0.2214804951216873
369,5.965972157067657,73.17824873692001,1.786855467533081,0.020036149775444406,0.22168551117518512
370,5.979259400179167,73.17824873692001,1.7889025189234655,0.019988735150688563,0.2220010018340725
371,5.992546643290676,73.17824873692001,1.7920502665377498,0.019941772403758086,0.22241485521884413
372,6.005833886402185,73.17824873692001,1.7961366343378897,0.019899433663286184,0.22290405152298498
373,6.019121129513694,73.17824873692001,1.800901812071052,0.01986566032511196,0.2234360744560364
374,6.032408372625204,73.17824873692001,1.8060094293689861,0.019843709410358013,0.22397165245629408
375,6.045695615736713,73.17824873692001,1.8110775515031012,0.019835757621435884,0.2244685599213774
376,6.058982858848222,73.17824873692001,1.8157160644646873,0.01984262069167686,0.2248860232167971
377,6.072270101959732,73.17824873692001,1.8195660247158858,0.01986363101071752,0.22518915463866554
378,6.085557345071241,73.17824873692001,1.8223361450906386,0.01989669293135469,0.2253528051564935
379,6.09884458818275,73.17824873692001,1.8238317373566009,0.019938511256982372,0.22536430256564952
380,6.112131831294259,73.17824873692001,1.8239721544760024,0.01998496767313856,0.22522471322925433
381,6.125419074405769,73.17824873692001,1.8227948241816025,0.020031598474259775,0.22494847531640247
382,6.138706317517278,73.17824873692001,1.8204469916641002,0.020074108574399487,0.22456146442801242
383,6.151993560628787,73.17824873692001,1.8171675711876722,0.020108850209615167,0.22409777271971085
384,6.165280803740297,73.17824873692001,1.8132608560061856,0.020133201432761944,0.2235956753883818
385,6.178568046851805,73.17824873692001,1.809064392035253,0.020145796233312276,0.22309336494564708
386,6.191855289963315,73.17824873692001,1.8049150309684643,0.020146581846970085,0.22262503739849962
387,6.205142533074824,73.17824873692001,1.8011175678414542,0.02013670688492015,0.22221782692592554
388,6.218429776186333,73.17824873692001,1.7979193989429576,0.020118271176112926,0.22188992418627365
389,6.231717019297843,73.17824873692001,1.7954933759026483,0.02009398612108563,0.22165000757503248
390,6.245004262409352,73.17824873692001,1.7939297565750025,0.02006680017114865,0.22149790588658613
391,6.258291505520861,73.17824873692001,1.7932369697399888,0.020039542671022644,0.22142623391828747
392,6.27157874863237,73.17824873692001,1.7933499707498568,0.020014631972064167,0.22142262918899053
393,6.28486599174388,73.17824873692001,1.7941443429300727,0.01999387888312199,0.2214721815914957
394,6.298153234855389,73.17824873692001,1.795454005620164,0.019978397698513683,0.2215596841664778
395,6.311440477966898,73.17824873692001,1.797090381591403,0.01996861932105538,0.22167142381945207
396,6.324727721078408,73.17824873692001,1.7988610848223021,0.01996438600084459,0.22179635001865552
397,6.338014964189917,73.17824873692001,1.8005865407215087,0.019965096720521183,0.22192658177582475
398,6.351302207301426,73.17824873692001,1.8021133809894072,0.0199698706228963,0.22205731834141196
399,6.364589450412935,73.17824873692001,1.8033239135111705,0.01997770220484537,0.22218629424586664
400,6.377876693524445,73.17824873692001,1.804141413158983,0.019987589408962676,0.22231295959747638
401,6.391163936635953,73.17824873692001,1.8045313779486623,0.019998622373378853,0.2224375736867785
402,6.404451179747463,73.17824873692001,1.804499218768111,0.020010028765034285,0.22256037912604687
403,6.417738422858973,73.17824873692001,1.804085081169329,0.020021180153674184,0.22268098181609966
404,6.431025665970481,73.17824873692001,1.8033566280819853,0.02003157028849422,0.22279800842172223
405,6.444312909081991,73.17824873692001,1.8024006488741773,0.020040779606306187,0.22290905806141442
406,6.4576001521935,73.17824873692001,1.8013143178905557,0.02004844068192446,0.22301091660109404
407,6.4708873953050094,73.17824873692001,1.8001968223749458,0.020054216817387397,0.22309996517135713
408,6.484174638416518,73.17824873692001,1.7991419318289215,0.020057801275468284,0.22317269156751332
409,6.497461881528028,73.17824873692001,1.7982319021285667,0.020058938911787786,0.22322620201322987
410,6.5107491246395375,73.17824873692001,1.7975329123488981,0.020057466417734027,0.22325863096309664
411,6.524036367751046,73.17824873692001,1.7970920391051082,0.020053363136653884,0.22326937341160177
412,6.537323610862556,73.17824873692001,1.7969356084576067,0.02004680207849714,0.22325911399765175
413,6.550610853974065,73.17824873692001,1.797068658032503,0.020038190389092828,0.22322965260282016
414,6.563898097085574,73.17824873692001,1.7974752250539279,0.020028189736220545,0.22318352668242225
415,6.577185340197083,73.17824873692001,1.7981192540502484,0.02001770927914597,0.22312346551356657
416,6.590472583308593,73.17824873692001,1.7989459997920252,0.020007866613830506,0.223051775116727
417,6.603759826420102,73.17824873692001,1.7998838647419013,0.019999915118321526,0.22296978913480633
418,6.617047069531611,73.17824873692001,1.8008468270335665,0.019995139491012698,0.22287751951483692
419,6.630334312643121,73.17824873692001,1.8017379235964643,0.019994725078143087,0.22277361369408127
420,6.643621555754629,73.17824873692001,1.802454305898829,0.01999961077537877,0.22265567487276203
421,6.656908798866139,73.17824873692001,1.8028941482594207,0.02001033951143442,0.22252093517048638
422,6.670196041977648,73.17824873692001,1.8029653782493664,0.020026923924870575,0.22236720084257453
423,6.6834832850891575,73.17824873692001,1.8025958508820814,0.020048746999126073,0.22219392819708086
424,6.696770528200667,73.17824873692001,1.8017441691154137,0.020074517325049453,0.22200325017611133
425,6.710057771312176,73.17824873692001,1.8004099297774028,0.02010229569512378,0.2218007635288839
426,6.7233450144236855,73.17824873692001,1.7986418679359097,0.020129603639990265,0.22159590816252217
427,6.736632257535194,73.17824873692001,1.7965422745898163,0.02015361505826266,0.22140181977394613
428,6.749919500646704,73.17824873692001,1.7942661746115942,0.020171420095438205,0.22123459384923538
429,6.763206743758213,73.17824873692001,1.7920140869030965,0.020180340491531952,0.22111195898725367
430,6.776493986869722,73.17824873692001,1.7900178561323117,0.02017826885140395,0.22105145338004895
431,6.789781229981232,73.17824873692001,1.7885200909881804,0.020163993134063907,0.22106831774717026
432,6.803068473092741,73.17824873692001,1.7877489500659485,0.02013745475292449,0.22117339028474042
433,6.81635571620425,73.17824873692001,1.7878910350314294,0.020099889326092885,0.22137129797145383
434,6.829642959315759,73.17824873692001,1.7890657946816244,0.020053814798899092,0.22165921360234075
435,6.842930202427269,73.17824873692001,1.791305045443578,0.020002852360442837,0.22202638769983468
436,6.856217445538777,73.17824873692001,1.7945408749561724,0.019951388583162942,0.22245456192057447
437,6.869504688650287,73.17824873692001,1.7986042841174266,0.019904112180267716,0.22291924422670073
438,6.882791931761797,73.17824873692001,1.803235560378659,0.019865481240143968,0.22339170382011866
439,6.8960791748733055,73.17824873692001,1.8081057811077041,0.019839191809021123,0.22384145079161766
440,6.909366417984815,73.17824873692001,1.8128472820991637,0.019827723841638733,0.22423891786440384
441,6.922653661096324,73.17824873692001,1.817089647130086,0.01983203411829254,0.22455806203034434
442,6.9359409042078335,73.17824873692001,1.8204969737870675,0.01985144114779774,0.2247786416016486
443,6.949228147319342,73.17824873692001,1.8228019571688514,0.01988370874879075,0.2248879809951485
444,6.962515390430852,73.17824873692001,1.8238326688406123,0.019925309031195326,0.22488209154314465
445,6.9758026335423615,73.17824873692001,1.823528740304996,0.019971836109288356,0.22476606202803967
446,6.98908987665387,73.17824873692001,1.821945264708778,0.020018523993128198,0.22455368380603846
447,7.00237711976538,73.17824873692001,1.8192448519604776,0.020060798220071736,0.22426633760757608
448,7.015664362876889,73.17824873692001,1.8156795252955915,0.020094783990489418,0.22393120604855551
449,7.028951605988398,73.17824873692001,1.811564381854773,0.020117704820570334,0.22357889564063937
450,7.042238849099908,73.17824873692001,1.8072456226958122,0.02012812497385578,0.22324061652958793
451,7.055526092211417,73.17824873692001,1.8030666323744178,0.020126012709710556,0.22294516694403826
452,7.068813335322926,73.17824873692001,1.7993360435020398,0.020112630132292423,0.2227160375005065
453,7.082100578434435,73.17824873692001,1.7963011321042235,0.020090284331308713,0.22256896766608242
454,7.095387821545945,73.17824873692001,1.7941289798227327,0.020061989835752407,0.2225102582290337
455,7.1086750646574535,73.17824873692001,1.792896775436595,0.020031091996227282,0.22253606935520473
456,7.121962307768963,73.17824873692001,1.792591517437847,0.020000897846745695,0.22263282110839896
457,7.135249550880473,73.17824873692001,1.7931183638521357,0.019974356985389963,0.22277867928026718
458,7.1485367939919815,73.17824873692001,1.7943160613996785,0.019953822853832202,0.22294597442355413
459,7.161824037103491,73.17824873692001,1.7959773378694166,0.019940906805635157,0.22310428579526115
460,7.175111280215,73.17824873692001,1.7978718771640525,0.019936420836677043,0.22322384022932723
461,7.1883985233265095,73.17824873692001,1.7997694971537874,0.019940394916380277,0.2232788390196983
462,7.201685766438018,73.17824873692001,1.8014613745569514,0.019952151914084445,0.2232503378963155
463,7.214973009549528,73.17824873692001,1.8027775563714905,0.01997042324269135,0.22312836407415518
464,7.228260252661037,73.17824873692001,1.8035995086012162,0.019993489831320085,0.22291305185476573
465,7.241547495772546,73.17824873692001,1.803867024095708,0.020019336405921115,0.22261470035012007
466,7.254834738884056,73.17824873692001,1.803579385858821,0.020045810833871063,0.2222527855284289
467,7.268121981995565,73.17824873692001,1.8027912053826163,0.02007078265459006,0.2218540749484795
468,7.281409225107074,73.17824873692001,1.801603779347337,0.020092295576555303,0.22145008115194748
469,7.294696468218583,73.17824873692001,1.8001530981949498,0.020108708079900128,0.22107413942702475
470,7.307983711330093,73.17824873692001,1.7985957828301309,0.020118814976963367,0.22075840614359954
471,7.321270954441602,73.17824873692001,1.7970942299848782,0.020121941451269665,0.22053105596324474
472,7.334558197553111,73.17824873692001,1.795802143639223,0.020118000483661767,0.22041391818284237
473,7.347845440664621,73.17824873692001,1.7948514611750166,0.02010750659751587,0.2204207038729449
474,7.3611326837761295,73.17824873692001,1.7943415157872997,0.020091543462351633,0.22055585353928747
475,7.374419926887639,73.17824873692001,1.7943311304380383,0.020071685910373137,0.22081400560681783
476,7.387707169999148,73.17824873692001,1.7948340125531432,0.020049878067998673,0.22118014785204523
477,7.4009944131106575,73.17824873692001,1.7958173438744998,0.020028273493616466,0.22163050303719917
478,7.414281656222167,73.17824873692001,1.797203423678027,0.02000904982766754,0.2221341080641236
479,7.427568899333676,73.17824873692001,1.798874586212283,0.01999421472093519,0.22265498616386475
480,7.440856142445186,73.17824873692001,1.8006815361421689,0.019985420893740582,0.2231547862122282
481,7.454143385556694,73.17824873692001,1.8024547088919085,0.01998380747125086,0.2235957289100092
482,7.467430628668204,73.17824873692001,1.8040178841448016,0.019989882384743068,0.2239436581695267
483,7.480717871779713,73.17824873692001,1.8052031191083495,0.02000345529619191,0.22417096154701685
484,7.494005114891222,73.17824873692001,1.8058659342830743,0.020023623354311654,0.22425910649944378
485,7.507292358002732,73.17824873692001,1.8058995801144706,0.020048808891028065,0.22420054824038899
486,7.520579601114241,73.17824873692001,1.8052471752985366,0.020076849291950746,0.22399979858296884
487,7.53386684422575,73.17824873692001,1.8039105867275462,0.02010513763768341,0.2236735010264605
488,7.547154087337259,73.17824873692001,1.801955110590582,0.020130807793449446,0.22324946002282925
489,7.560441330448769,73.17824873692001,1.7995091851828304,0.02015095648258111,0.22276470646614296
490,7.573728573560277,73.17824873692001,1.7967585387859029,0.02016289649152472,0.22226274507228755
491,7.587015816671787,73.17824873692001,1.7939345734139254,0.020164429009991665,0.221790126749209
492,7.600303059783297,73.17824873692001,1.791297408972381,0.02015410979085644,0.22139254914366133
493,7.613590302894805,73.17824873692001,1.7891145441626177,0.020131476286787756,0.22111078456235106
494,7.626877546006315,73.17824873692001,1.7876364882941078,0.020097203505858894,0.22097677032438104
495,7.640164789117824,73.17824873692001,1.7870713837937373,0.02005315891948406,0.22101023649576082
496,7.653452032229334,73.17824873692001,1.7875614415360974,0.02000233258914446,0.2212163037849237
497,7.666739275340842,73.17824873692001,1.7891642149162252,0.019948631197278573,0.22158443440753092
498,7.680026518452352,73.17824873692001,1.791841251193252,0.019896542795966237,0.22208894979224902
499,7.693313761563862,73.17824873692001,1.795455913228999,0.01985069973235746,0.22269113420718753
500,7.70660100467537,73.17824873692001,1.7997812415109922,0.019815386563611807,0.22334275204047363
501,7.71988824778688,73.17824873692001,1.8045175834195477,0.01979405531342186,0.22399062232308858
502,7.733175490898389,73.17824873692001,1.8093185062933324,0.019788918407840632,0.2245817468680222
503,7.746462734009898,73.17824873692001,1.8138224269503904,0.019800676500962955,0.22506840547041404
504,7.759749977121407,73.17824873692001,1.8176865864587743,0.01982840627057014,0.22541260923021425
505,7.773037220232917,73.17824873692001,1.820619593963607,0.01986961756583545,0.2255893487160558
506,7.786324463344426,73.17824873692001,1.8224087473525132,0.01992049195973098,0.2255883113174577
507,7.799611706455935,73.17824873692001,1.8229387514277346,0.019976293649180233,0.225414130273211
508,7.812898949567445,73.17824873692001,1.8221998757945685,0.020031901778047322,0.225085361456358
509,7.8261861926789535,73.17824873692001,1.820285793423803,0.02008238812129938,0.2246322458665128
510,7.839473435790463,73.17824873692001,1.8173823359870924,0.02012356047788512,0.22409339543094622
511,7.852760678901972,73.17824873692001,1.8137480595871651,0.02015239940333247,0.223511828555169
512,7.866047922013482,73.17824873692001,1.8096881296962477,0.020167332432113143,0.22293089260932994
513,7.879335165124991,73.17824873692001,1.805524551872197,0.020168314521409436,0.22239052790002978
514,7.8926224082365,73.17824873692001,1.8015663526225238,0.020156714219508823,0.22192420580494363
515,7.90590965134801,73.17824873692001,1.7980828861102562,0.02013503667677853,0.2215567459825017
516,7.919196894459518,73.17824873692001,1.7952827421629034,0.020106535574777366,0.22130309302102472
517,7.932484137571028,73.17824873692001,1.7932999133248895,0.02007477317230585,0.22116802961589188
518,7.945771380682537,73.17824873692001,1.7921879864496963,0.02004318873857001,0.2211467293371046
519,7.959058623794046,73.17824873692001,1.7919222594660624,0.020014731453085733,0.22122600745465762
520,7.972345866905556,73.17824873692001,1.7924089227329916,0.01999159999075263,0.22138610680896711
521,7.985633110017065,73.17824873692001,1.793499844308132,0.019975110463151556,0.22160284838358205
522,7.998920353128574,73.17824873692001,1.7950110923844285,0.01996569273752595,0.22184997481371183
523,8.012207596240083,73.17824873692001,1.7967431284231563,0.019962996023836468,0.22210151442200074
524,8.025494839351593,73.17824873692001,1.7985006074976584,0.019966071857553336,0.22233399260011136
525,8.038782082463102,73.17824873692001,1.8001099132881544,0.019973597444927976,0.22252831967297643
526,8.052069325574612,73.17824873692001,1.8014329105653533,0.01998410259251875,0.22267119601851135
527,8.06535656868612,73.17824873692001,1.8023758850802056,0.01999616814018266,0.22275590329607384
528,8.07864381179763,73.17824873692001,1.8028932148215255,0.020008572979134102,0.22278240032489363
529,8.09193105490914,73.17824873692001,1.8029859191966207,0.020020378465426363,0.2227567136333052
530,8.105218298020649,73.17824873692001,1.8026957939244637,0.02003095071678782,0.22268969908759353
531,8.118505541132157,73.17824873692001,1.802096285889153,0.020039931097291977,0.22259533833710562
532,8.131792784243666,73.17824873692001,1.8012815300712115,0.020047171920731913,0.2224888039237193
533,8.145080027355176,73.17824873692001,1.8003550208483219,0.020052657367267756,0.22238456231195936
534,8.158367270466686,73.17824873692001,1.7994192203580608,0.020056428807842433,0.2222947754546273
535,8.171654513578195,73.17824873692001,1.7985670570454404,0.02005852976080356,0.22222820767111925
536,8.184941756689703,73.17824873692001,1.7978758137587858,0.020058979596331898,0.22218974242505235
537,8.198228999801213,73.17824873692001,1.7974034432134447,0.020057778105327616,0.22218048501495608
538,8.211516242912722,73.17824873692001,1.797186972086498,0.020054936415397812,0.22219833485203785
539,8.224803486024232,73.17824873692001,1.79724244095774,0.02005052450659926,0.2222388725031192
540,8.238090729135742,73.17824873692001,1.7975657965585692,0.020044722528788243,0.22229637830409385
541,8.25137797224725,73.17824873692001,1.7981341963547663,0.020037862907810507,0.22236478230298534
542,8.26466521535876,73.17824873692001,1.7989072689408592,0.0200304526345603,0.22243837511956674
543,8.277952458470269,73.17824873692001,1.7998281912198077,0.020023168613728215,0.22251217905805554
544,8.291239701581778,73.17824873692001,1.8008249234357188,0.020016822621822843,0.22258196250306722
545,8.304526944693286,73.17824873692001,1.8018121812802106,0.02001229662011729,0.22264396446541868
546,8.317814187804796,73.17824873692001,1.8026946753109012,0.020010453288166846,0.22269446775098742
547,8.331101430916306,73.17824873692001,1.803372046063184,0.020012029625437987,0.222729404278271
548,8.344388674027815,73.17824873692001,1.803745768232859,0.020017523626480623,0.22274418225258155
549,8.357675917139325,73.17824873692001,1.8037279970009474,0.020027086130939408,0.22273388536700914
550,8.370963160250833,73.17824873692001,1.8032518831719295,0.020040431715835125,0.2226939114893702
551,8.384250403362342,73.17824873692001,1.8022823656485039,0.020056783510791768,0.2226210062853372
552,8.397537646473852,73.17824873692001,1.8008261074355003,0.020074867280429138,0.22251452967894417
553,8.410824889585362,73.17824873692001,1.7989391588245915,0.020092968464895368,0.22237769849411768
554,8.424112132696871,73.17824873692001,1.7967307682832239,0.02010905943544233,0.22221850292747222
555,8.43739937580838,73.17824873692001,1.7943616131715914,0.020120994448742095,0.22205001354109768
556,8.450686618919889,73.17824873692001,1.792035233462968,0.020126758960254825,0.22188988030644002
557,8.463973862031398,73.17824873692001,1.7899825855985527,0.02012474631997275,0.22175896143574553
558,8.477261105142908,73.17824873692001,1.7884407714688269,0.020114021190635403,0.22167918076986334
559,8.490548348254416,73.17824873692001,1.7876279452473165,0.020094524042491638,0.22167086602995567
560,8.503835591365926,73.17824873692001,1.7877172550751737,0.020067176928730585,0.2217499354660938
561,8.517122834477435,73.17824873692001,1.788813262936662,0.02003386349734896,0.22192535442096806
562,8.530410077588945,73.17824873692001,1.7909342806516373,0.019997274104757528,0.22219726523837893
563,8.543697320700455,73.17824873692001,1.7940034218582022,0.019960628390180726,0.22255610650501273
564,8.556984563811962,73.17824873692001,1.7978500936560369,0.019927308790847108,0.2229828959571605
565,8.570271806923472,73.17824873692001,1.8022222967074288,0.01990045498129517,0.22345067983309305
566,8.583559050034982,73.17824873692001,1.8068086357157438,0.01988257783762391,0.22392697907994855
567,8.596846293146491,73.17824873692001,1.8112675974306556,0.019875250935145472,0.22437691781818023
568,8.610133536258001,73.17824873692001,1.8152606514353704,0.019878927585148098,0.22476662519112167
569,8.623420779369509,73.17824873692001,1.8184852198686494,0.01989290976712748,0.225066465478022
570,8.636708022481018,73.17824873692001,1.8207036122103957,0.01991546589858114,0.2252536792008505
571,8.649995265592528,73.17824873692001,1.8217645499414774,0.019944072606723616,0.22531416057151138
572,8.663282508704038,73.17824873692001,1.821614829516764,0.019975745319694743,0.22524332349229667
573,8.676569751815546,73.17824873692001,1.8203002799671137,0.02000741158542732,0.22504612226913653
574,8.689856994927055,73.17824873692001,1.8179571866480664,0.02003627134114565,0.2247362723472916
575,8.703144238038565,73.17824873692001,1.8147962838373128,0.02006009160338113,0.2243347718901183
576,8.716431481150074,73.17824873692001,1.8110811492533287,0.020077398372647083,0.22386795266528445
577,8.729718724261584,73.17824873692001,1.8071030382142375,0.020087548763860697,0.22336532163639658
578,8.743005967373092,73.17824873692001,1.8031549060894816,0.02009068725696146,0.22285739699197657
579,8.756293210484602,73.17824873692001,1.7995073582481895,0.02008760836775698,0.22237367435143635
580,8.769580453596111,73.17824873692001,1.796388582547033,0.02007956065015723,0.22194080345148098
581,8.782867696707621,73.17824873692001,1.7939695609475097,0.020068030774027818,0.2215810195275512
582,8.79615493981913,73.17824873692001,1.7923551747149231,0.02005454170679559,0.22131086196991961
583,8.809442182930638,73.17824873692001,1.791581242153147,0.020040489478623472,0.22114022137301945
584,8.822729426042148,73.17824873692001,1.7916170930539346,0.0200270316843697,0.22107177398505817
585,8.836016669153658,73.17824873692001,1.7923729787972176,0.02001502963116939,0.22110087552349825
586,8.849303912265167,73.17824873692001,1.7937114083235732,0.02000503727482427,0.22121598123945924
587,8.862591155376675,73.17824873692001,1.7954613495779983,0.019997325383830332,0.22139962811966155
588,8.875878398488185,73.17824873692001,1.79743411882899,0.01999192822559096,0.22162995886139533
589,8.889165641599694,73.17824873692001,1.7994396958081293,0.019988701250382677,0.22188269409763117
590,8.902452884711204,73.17824873692001,1.8013021733172905,0.019987380998548285,0.2221333800261913
591,8.915740127822714,73.17824873692001,1.802873109922818,0.019987641531831107,0.22235967128482295
592,8.929027370934222,73.17824873692001,1.804041732189155,0.019989143483903047,0.2225433822193337
593,8.942314614045731,73.17824873692001,1.8047412353978138,0.019991572427264633,0.22267206653935037
594,8.95560185715724,73.17824873692001,1.8049508347745171,0.01999466392573443,0.22273994802466576
595,8.96888910026875,73.17824873692001,1.8046936695781408,0.01999821390066825,0.222748102609946
596,8.98217634338026,73.17824873692001,1.8040310893675973,0.020002074687778378,0.22270388224489593
597,8.995463586491768,73.17824873692001,1.8030541857141964,0.020006139199278555,0.22261967154404697
598,9.008750829603278,73.17824873692001,1.8018736233110775,0.020010317539580408,0.2225111586519904
599,9.022038072714787,73.17824873692001,1.800608853458179,0.020014511804000004,0.22239535803489766
600,9.035325315826295,73.17824873692001,1.7993776765811067,0.02001859533064237,0.2222886411421516
601,9.048612558937805,73.17824873692001,1.798286902874733,0.02002240229576992,0.22220501420357344
602,9.061899802049314,73.17824873692001,1.7974245998568266,0.02002573229508135,0.2221548170073164
603,9.075187045160824,73.17824873692001,1.7968541704385792,0.020028372497029344,0.22214391541437994
604,9.088474288272334,73.17824873692001,1.79661032020336,0.02003013710206859,0.22217339273274633
605,9.101761531383843,73.17824873692001,1.7966968723533105,0.020030920246228115,0.22223972289982716
606,9.115048774495351,73.17824873692001,1.7970863779474162,0.02003075443546678,0.22233536697962916
607,9.12833601760686,73.17824873692001,1.797721525520265,0.020029862776629305,0.22244967860601156
608,9.14162326071837,73.17824873692001,1.7985184108240186,0.02002869075562474,0.2225699896358424
609,9.15491050382988,73.17824873692001,1.7993717423766076,0.0200279032986804,0.22268277132589817
610,9.16819774694139,73.17824873692001,1.8001620686945305,0.020028336212815488,0.22277479842478645
611,9.181484990052898,73.17824873692001,1.8007650791103809,0.020030897966506568,0.22283427120404017
612,9.194772233164407,73.17824873692001,1.8010628204487582,0.020036427318597335,0.2228518669290221
613,9.208059476275915,73.17824873692001,1.8009562938040482,0.02004552286671784,0.22282169293139104
614,9.221346719387428,73.17824873692001,1.8003784733759371,0.02005837002062699,0.22274209876365256
615,9.234633962498934,73.17824873692001,1.7993063971280516,0.020074597053066134,0.22261627989870303
616,9.247921205610444,73.17824873692001,1.797770677829157,0.02009319297489298,0.2224525789525231
617,9.261208448721954,73.17824873692001,1.7958606717721146,0.020112514971074174,0.22226437384188763
618,9.274495691833463,73.17824873692001,1.7937237176491352,0.0201304017809539,0.22206944752250127
619,9.287782934944971,73.17824873692001,1.791557362446017,0.020144392775283765,0.2218887703917574
620,9.30107017805648,73.17824873692001,1.7895942978105923,0.020152033864177285,0.22174469741759914
621,9.31435742116799,73.17824873692001,1.788080771528646,0.020151233910144787,0.22165868168594072
622,9.3276446642795,73.17824873692001,1.7872503800083128,0.020140619975216413,0.2216487180716433
623,9.34093190739101,73.17824873692001,1.7872961590496517,0.020119830395136144,0.22172683049925884
624,9.35421915050252,73.17824873692001,1.7883445391633646,0.020089688064625393,0.22189697616081588
625,9.367506393614027,73.17824873692001,1.7904348623515987,0.02005221305063299,0.22215373705306024
626,9.380793636725535,73.17824873692001,1.7935076918234873,0.02001045871886931,0.22248209225018953
627,9.394080879837048,73.17824873692001,1.7974041091220472,0.019968184552012304,0.2228584192866983
628,9.407368122948556,73.17824873692001,1.8018767311698543,0.019929407262234248,0.22325268310186064
629,9.420655366060066,73.17824873692001,1.8066115326833132,0.019897894205603516,0.2236315723765922
630,9.433942609171574,73.17824873692001,1.8112580089048886,0.01987667504316096,0.22396217659799803
631,9.447229852283083,73.17824873692001,1.8154640255308272,0.01986764784250848,0.2242156982476831
632,9.460517095394591,73.17824873692001,1.8189110603346932,0.01987134406812078,0.22437068386706865
633,9.473804338506104,73.17824873692001,1.8213455245459247,0.019886886924315318,0.22441533667937294
634,9.48709158161761,73.17824873692001,1.82260229947894,0.0199121348554014,0.22434862537930533
635,9.50037882472912,73.17824873692001,1.8226174655058924,0.019943976173882338,0.224180095342927
636,9.51366606784063,73.17824873692001,1.8214293357872269,0.019978736141081418,0.22392847602994465
637,9.52695331095214,73.17824873692001,1.8191699431851172,0.020012645338613747,0.22361932896761685
638,9.540240554063647,73.17824873692001,1.8160497958839228,0.020042299720067124,0.22328208157765875
639,9.553527797175157,73.17824873692001,1.8123369657465018,0.020065043161804613,0.22294683678712046
640,9.566815040286668,73.17824873692001,1.8083315176597117,0.020079222241130283,0.22264133609350517
641,9.580102283398176,73.17824873692001,1.8043380218629679,0.02008428831104285,0.22238839615836323
642,9.593389526509686,73.17824873692001,1.800639404988598,0.02008074835093021,0.22220405232815074
643,9.606676769621195,73.17824873692001,1.7974746221514253,0.020069988701053615,0.22209654067701684
644,9.619964012732703,73.17824873692001,1.7950217958489496,0.020054010968140478,0.22206614606350797
645,9.633251255844211,73.17824873692001,1.793387749479955,0.020035126714036802,0.22210584963743937
646,9.646538498955724,73.17824873692001,1.7926042220587486,0.020015657016295242,0.22220263578423644
647,9.659825742067232,73.17824873692001,1.7926305261471376,0.019997675292704666,0.22233927214134097
648,9.67311298517874,73.17824873692001,1.7933619965170038,0.019982819447883677,0.22249635727540804
649,9.68640022829025,73.17824873692001,1.7946432490599435,0.019972184675412286,0.22265443268664079
650,9.69968747140176,73.17824873692001,1.7962849974858879,0.019966293864233983,0.2227959693408018
651,9.712974714513267,73.17824873692001,1.798082944814119,0.01996513320780337,0.2229070557705176
652,9.72626195762478,73.17824873692001,1.7998370918215767,0.019968237029430402,0.22297863288465442
653,9.739549200736286,73.17824873692001,1.801369727536419,0.019974803939241767,0.22300714548960826
654,9.752836443847796,73.17824873692001,1.8025404409640333,0.019983825569693754,0.22299452227718666
655,9.766123686959306,73.17824873692001,1.8032567581310706,0.019994211421622502,0.2229474629961048
656,9.779410930070815,73.17824873692001,1.8034794667564735,0.0200048980050542,0.22287610334017666
657,9.792698173182323,73.17824873692001,1.8032222964040723,0.020014935510095783,0.22279223188394362
658,9.805985416293831,73.17824873692001,1.8025462859021186,0.020023549858312225,0.22270732543035782
659,9.819272659405344,73.17824873692001,1.8015497812352548,0.020030181667472616,0.2226307218933579
660,9.832559902516852,73.17824873692001,1.8003554620945221,0.02003450597327275,0.22256824203272743
661,9.845847145628362,73.17824873692001,1.7990960237618463,0.020036437292463714,0.22252149671191257
662,9.85913438873987,73.17824873692001,1.797900123072588,0.020036123879347594,0.22248798741165982
663,9.87242163185138,73.17824873692001,1.7968799644448663,0.0200339332550536,0.22246195300872548
664,9.885708874962887,73.17824873692001,1.79612152478957,0.020030428980124436,0.22243577132425357
665,9.8989961180744,73.17824873692001,1.7956779846118274,0.02002633698995886,0.22240162250664353
666,9.912283361185908,73.17824873692001,1.7955665314414138,0.020022499253793447,0.22235308379832458
667,9.925570604297416,73.17824873692001,1.7957684149104456,0.020019813307661845,0.22228635635829286
668,9.938857847408926,73.17824873692001,1.7962319802248394,0.020019158151748876,0.22220091414899384
669,9.952145090520435,73.17824873692001,1.7968781990922982,0.020021309550190894,0.22209949146906807
670,9.965432333631943,73.17824873692001,1.7976079543816579,0.020026850286789955,0.2219874634762071
671,9.978719576743456,73.17824873692001,1.7983104918044421,0.020036082931128248,0.22187179705114152
672,9.992006819854964,73.17824873692001,1.7988729514427764,0.02004895395806873,0.22175983407151648
673,10.005294062966472,73.17824873692001,1.7991909599569829,0.02006499867215031,0.2216581944044741
674,10.018581306077982,73.17824873692001,1.7991798476139207,0.020083316350892975,0.22157204454461438
675,10.031868549189491,73.17824873692001,1.798785678761743,0.020102584228547698,0.22150488577017743
676,10.045155792301,73.17824873692001,1.797995027352152,0.02012111663623257,0.2214588911339392
677,10.058443035412507,73.17824873692001,1.7968421936294592,0.02013697154499905,0.22143567829637328
678,10.07173027852402,73.17824873692001,1.7954124469892732,0.020148104218903947,0.22143727998458718
679,10.085017521635528,73.17824873692001,1.7938400185075019,0.020152566160598802,0.22146700790573096
680,10.098304764747038,73.17824873692001,1.7923000116039802,0.020148737522140883,0.2215299174802204
681,10.111592007858546,73.17824873692001,1.7909941348810972,0.02013556431965025,0.22163266461578865
682,10.124879250970055,73.17824873692001,1.79013108987583,0.020112763846252272,0.22178268219911376
683,10.138166494081563,73.17824873692001,1.7899034082797023,0.02008096486505559,0.2219867615845238
684,10.151453737193076,73.17824873692001,1.790463340633414,0.020041754820879817,0.2222492677003212
685,10.164740980304584,73.17824873692001,1.7919008791349562,0.019997614477547117,0.22257031528894197
686,10.178028223416092,73.17824873692001,1.794227031370157,0.01995173408371441,0.2229442691421209
687,10.191315466527602,73.17824873692001,1.7973650073349385,0.019907722674937463,0.2233588972642299
688,10.204602709639111,73.17824873692001,1.8011510824133,0.01986924016011404,0.22379540960115268
689,10.21788995275062,73.17824873692001,1.805345675286586,0.019839597064746056,0.22422947358208606
690,10.231177195862127,73.17824873692001,1.8096538105726536,0.019821377314596725,0.22463313517232247
691,10.24446443897364,73.17824873692001,1.8137528289939868,0.019816142498634223,0.22497741860990475
692,10.257751682085148,73.17824873692001,1.8173241569657674,0.019824260456980308,0.2252352491057862
693,10.271038925196658,73.17824873692001,1.820085313415189,0.019844869410389477,0.22538426690688293
694,10.284326168308167,73.17824873692001,1.821818105097792,0.019875973007356874,0.22540916089297994
695,10.297613411419675,73.17824873692001,1.8223892116100964,0.01991466415813236,0.22530333057129265
696,10.310900654531183,73.17824873692001,1.82176093646655,0.0199574601265993,0.22506976933630116
697,10.324187897642696,73.17824873692001,1.8199925051577488,0.020000700738183497,0.224721028623115
698,10.337475140754204,73.17824873692001,1.8172331486089026,0.020040947743047897,0.22427821658805355
699,10.350762383865714,73.17824873692001,1.8137071989539435,0.020075329055486757,0.22376919003097384
700,10.364049626977222,73.17824873692001,1.8096918970804083,0.020101785435319118,0.22322620341229923
701,10.377336870088731,73.17824873692001,1.8054905507824637,0.02011919596636225,0.2226832746899693
702,10.39062411320024,73.17824873692001,1.8014044913149667,0.02012737978741829,0.22217349787893062
703,10.40391135631175,73.17824873692001,1.7977068612986082,0.020126990745248,0.22172649735226593
704,10.41719859942326,73.17824873692001,1.7946206469777,0.020119335384533112,0.221366185398852
705,10.430485842534768,73.17824873692001,1.7923027050982927,0.02010615089676364,0.22110896079857717
706,10.443773085646278,73.17824873692001,1.7908348162751906,0.02008937880667532,0.22096247209105652
707,10.457060328757787,73.17824873692001,1.79022208942413,0.020070963732834655,0.22092505811017993
708,10.470347571869295,73.17824873692001,1.7903983838266524,0.020052695302353582,0.22098595944143218
709,10.483634814980803,73.17824873692001,1.7912378374162006,0.02003609827500616,0.22112635670734945
710,10.496922058092316,73.17824873692001,1.7925711141780059,0.020022366258917915,0.22132123088732594
711,10.510209301203824,73.17824873692001,1.7942046307035138,0.020012329695870943,0.22154195624648293
712,10.523496544315334,73.17824873692001,1.795940812595448,0.020006447593733642,0.2217594125392142
713,10.536783787426844,73.17824873692001,1.7975973854898133,0.020004814176407096,0.22194726203942472
714,10.550071030538351,73.17824873692001,1.7990238384219033,0.02000717560694142,0.22208496991157578
715,10.56335827364986,73.17824873692001,1.800113514205099,0.020012956247257546,0.2221601762114078
716,10.57664551676137,73.17824873692001,1.8008102693223016,0.02002129695965895,0.22217009331692872
717,10.58993275987288,73.17824873692001,1.8011092654837877,0.02003110968812528,0.22212170362784447
718,10.603220002984388,73.17824873692001,1.8010521375180177,0.020041152501851227,0.2220306823987587
719,10.616507246095898,73.17824873692001,1.8007174334726619,0.020050126273243415,0.2219191450705758
720,10.629794489207407,73.17824873692001,1.8002077395703575,0.020056789158567276,0.22181250133463634
721,10.643081732318915,73.17824873692001,1.7996351982412337,0.02006008051509446,0.22173585046217117
722,10.656368975430428,73.17824873692001,1.799107159145581,0.020059242892258286,0.22171043655529232
723,10.669656218541936,73.17824873692001,1.798713487722394,0.020053929044025334,0.22175068285067073
724,10.682943461653444,73.17824873692001,1.7985166779386978,0.020044280479967768,0.22186221900052183
725,10.696230704764954,73.17824873692001,1.7985454793201265,0.020030965086892897,0.22204113095862318
726,10.709517947876463,73.17824873692001,1.798792271855302,0.020015163548938997,0.22227446809534385
727,10.722805190987971,73.17824873692001,1.7992139911992826,0.019998497389048405,0.2225418722756544
728,10.73609243409948,73.17824873692001,1.7997362832372468,0.019982895840851184,0.2228180613909483
729,10.74937967721099,73.17824873692001,1.8002607021941877,0.019970405043980007,0.22307581803281404
730,10.7626669203225,73.17824873692001,1.8006747462155923,0.01996295136274901,0.2232891069121651
731,10.77595416343401,73.17824873692001,1.8008642657824847,0.019962080266480522,0.22343596723952483
732,10.789241406545518,73.17824873692001,1.8007274876686659,0.019968701754866876,0.22350088837912793
733,10.802528649657027,73.17824873692001,1.8001895900459999,0.019982880355771913,0.2234764647515769
734,10.815815892768535,73.17824873692001,1.7992164119796161,0.02000370820745726,0.22336422299971295
735,10.829103135880048,73.17824873692001,1.797825575604221,0.020029292101512185,0.2231746044888248
736,10.842390378991556,73.17824873692001,1.796093166708462,0.020056873593400328,0.2229261561537328
737,10.855677622103064,73.17824873692001,1.7941542626396765,0.020083086339390717,0.22264402646235473
738,10.868964865214574,73.17824873692001,1.7921960793745104,0.02010433303830544,0.22235788419678043
739,10.882252108326083,73.17824873692001,1.7904433321175037,0.020117239527813507,0.22209938768718757
740,10.895539351437591,73.17824873692001,1.7891364889332648,0.020119125855210696,0.22189934653736257
741,10.908826594549105,73.17824873692001,1.788504792483426,0.020108427322465813,0.22178474855660674
742,10.92211383766061,73.17824873692001,1.7887370237799087,0.020084999652865355,0.22177587292884918
743,10.93540108077212,73.17824873692001,1.789953759779993,0.0200502522202805,0.22188376457935238
744,10.94868832388363,73.17824873692001,1.7921851409346197,0.020007075703422316,0.22210838161546517
745,10.96197556699514,73.17824873692001,1.7953578015502756,0.019959562359349536,0.22243772236687742
746,10.97526281010665,73.17824873692001,1.7992936227386123,0.019912549903987026,0.2228481731604192
747,10.988550053218155,73.17824873692001,1.8037214629355107,0.0198710482094862,0.2233061902659428
748,11.001837296329668,73.17824873692001,1.8083012239908733,0.019839629309223374,0.22377125526652958
749,11.015124539441176,73.17824873692001,1.8126578029376603,0.01982187130939104,0.22419985242266702
750,11.028411782552686,73.17824873692001,1.8164209406963296,0.01981993316984082,0.22455004538848147
751,11.041699025664194,73.17824873692001,1.819265953028678,0.019834302617315214,0.22478611010473412
752,11.054986268775703,73.17824873692001,1.820949857080596,0.019863737363110888,0.22488263372044215
753,11.068273511887211,73.17824873692001,1.821337613127316,0.019905414246883843,0.22482753667694322
754,11.081560754998725,73.17824873692001,1.8204151075052246,0.019955275825232814,0.22462361088159033
755,11.094847998110232,73.17824873692001,1.8182887798701863,0.020008523026115558,0.22428834382174434
756,11.10813524122174,73.17824873692001,1.8151731985286446,0.020060179408113995,0.22385199518678064
757,11.12142248433325,73.17824873692001,1.8113672192969257,0.02010565039890165,0.22335412536347488
758,11.13470972744476,73.17824873692001,1.8072204423948737,0.02014120832995527,0.2228390114214569
759,11.14799697055627,73.17824873692001,1.803094369043475,0.02016434866077574,0.22235055787140875
760,11.16128421366778,73.17824873692001,1.79932380754506,0.020173982302951456,0.22192738446897772
761,11.174571456779288,73.17824873692001,1.7961834922129327,0.02017045048950688,0.2215987453415709
762,11.187858699890796,73.17824873692001,1.7938637252382816,0.02015537472098163,0.22138180362187013
763,11.201145943002306,73.17824873692001,1.7924573847138618,0.02013138111881502,0.22128057306704993
764,11.214433186113816,73.17824873692001,1.7919589842675856,0.0201017478325578,0.22128658096656723
765,11.227720429225323,73.17824873692001,1.7922748758464826,0.02007001572615482,0.22138105183526385
766,11.241007672336831,73.17824873692001,1.7932423706940288,0.020039598999119904,0.22153820358898904
767,11.254294915448344,73.17824873692001,1.7946546681325997,0.02001343562231116,0.22172911944096418
768,11.267582158559852,73.17824873692001,1.7962880941869943,0.019993713059312336,0.22192562380830824
769,11.280869401671362,73.17824873692001,1.7979282475308738,0.019981693756511317,0.22210364450428605
770,11.29415664478287,73.17824873692001,1.7993921506153059,0.01997765394836374,0.22224566703374807
771,11.30744388789438,73.17824873692001,1.80054429269262,0.019980935851488052,0.2223420521112523
772,11.32073113100589,73.17824873692001,1.801305396615362,0.019990097498245082,0.22239116497777842
773,11.3340183741174,73.17824873692001,1.8016537120381924,0.020003136387015192,0.2223984284257272
774,11.347305617228908,73.17824873692001,1.8016195170014166,0.020017763253768178,0.22237454110982213
775,11.360592860340416,73.17824873692001,1.8012742046166732,0.02003169830237047,0.22233318662280036
776,11.373880103451926,73.17824873692001,1.8007157812664496,0.02004295490278476,0.22228859581501403
777,11.387167346563436,73.17824873692001,1.800052786320885,0.020050076604952137,0.2222533150963413
778,11.400454589674943,73.17824873692001,1.7993885802254745,0.020052302366973442,0.22223645379404633
779,11.413741832786451,73.17824873692001,1.7988076906044053,0.020049643805501637,0.222242551147646
780,11.427029075897964,73.17824873692001,1.798365525740628,0.020042865588684827,0.22227111950703343
781,11.440316319009472,73.17824873692001,1.7980823329763245,0.020033370179329105,0.22231689715496747
782,11.453603562120982,73.17824873692001,1.7979418500578135,0.020023000057500108,0.222370776517438
783,11.466890805232492,73.17824873692001,1.7978947091550528,0.020013779778847465,0.22242126623031833
784,11.480178048344,73.17824873692001,1.7978663014723861,0.020007626262095703,0.22245628660004524
785,11.493465291455507,73.17824873692001,1.7977683783760763,0.020006059821806654,0.22246508866587228
786,11.50675253456702,73.17824873692001,1.7975131554006214,0.020009950513869938,0.22244009000652315
787,11.520039777678528,73.17824873692001,1.7970283885279292,0.020019333668258688,0.22237842793712592
788,11.533327020790038,73.17824873692001,1.7962718312595167,0.02003332429555487,0.2222830440601645
789,11.546614263901546,73.17824873692001,1.7952433286799472,0.020050151629615758,0.22216313595122306
790,11.559901507013056,73.17824873692001,1.793992635717805,0.020067321766120205,0.22203384900426434
791,11.573188750124563,73.17824873692001,1.7926212283502583,0.0200818989985806,0.22191514173188345
792,11.586475993236077,73.17824873692001,1.7912769710834788,0.020090879425094414,0.22182984516305054
793,11.599763236347584,73.17824873692001,1.7901413921403118,0.02009161627708543,0.22180104751899496
794,11.613050479459092,73.17824873692001,1.7894103976380327,0.02008224223074908,0.22184905506616606
795,11.626337722570602,73.17824873692001,1.7892703723318961,0.020062023144041596,0.22198828625022984
796,11.639624965682112,73.17824873692001,1.789872559911375,0.02003158085056194,0.22222452283167476
797,11.65291220879362,73.17824873692001,1.791309190751384,0.019992940474107792,0.22255294695191938
798,11.666199451905127,73.17824873692001,1.7935948858018729,0.019949382585757076,0.22295732653591685
799,11.67948669501664,73.17824873692001,1.7966563618836184,0.01990510868522092,0.22341057824448518
800,11.692773938128148,73.17824873692001,1.8003324522978228,0.019864757481885157,0.223876757060749
801,11.706061181239658,73.17824873692001,1.8043850874252376,0.01983283457413695,0.22431432237491
802,11.719348424351168,73.17824873692001,1.8085203642838545,0.019813134645589085,0.22468034296712056
803,11.732635667462675,73.17824873692001,1.8124174045383614,0.019808239026359267,0.22493513859315115
804,11.745922910574183,73.17824873692001,1.815761563637976,0.019819161313641472,0.22504674120186646
805,11.759210153685697,73.17824873692001,1.8182778714446794,0.01984519359601158,0.22499464258288682
806,11.772497396797204,73.17824873692001,1.819760356630911,0.019883978620876857,0.22477255705097524
807,11.785784639908712,73.17824873692001,1.8200931977848436,0.019931799677179972,0.2243899748243642
808,11.799071883020222,73.17824873692001,1.819261210688935,0.01998404563131522,0.22387211495149048
809,11.812359126131732,73.17824873692001,1.8173497500569886,0.020035782033221424,0.22325801783923122
810,11.82564636924324,73.17824873692001,1.8145351716491698,0.020082345099357288,0.22259693698946334
811,11.83893361235475,73.17824873692001,1.8110664193873423,0.020119874941488917,0.22194348463614474
812,11.85222085546626,73.17824873692001,1.8072390163340082,0.02014571724274022,0.2213521085942071
813,11.865508098577768,73.17824873692001,1.803364677929036,0.02015864597391128,0.22087154476612297
814,11.878795341689278,73.17824873692001,1.7997405648345048,0.02015888838949074,0.22053989575516703
815,11.892082584800788,73.17824873692001,1.7966217448250215,0.02014796229948442,0.2203809218596753
816,11.905369827912295,73.17824873692001,1.7941996559014866,0.02012836480057707,0.2204020008018599
817,11.918657071023803,73.17824873692001,1.7925884389860307,0.020103176645463985,0.22059395274391122
818,11.931944314135317,73.17824873692001,1.7918199867966293,0.02007565023029736,0.22093257867020571
819,11.945231557246824,73.17824873692001,1.7918475635607016,0.020048832482120558,0.22138158711664055
820,11.958518800358334,73.17824873692001,1.7925569820995955,0.020025259535218227,0.22189660669860378
821,11.971806043469842,73.17824873692001,1.7937836472342,0.020006751501590866,0.22242990198796128
822,11.985093286581352,73.17824873692001,1.795333321238591,0.019994320023219814,0.22293523322434086
823,11.99838052969286,73.17824873692001,1.7970042482564663,0.019988181244025877,0.22337226318935174
824,12.01166777280437,73.17824873692001,1.7986082853009557,0.019987853594124104,0.2237100207741386
825,12.02495501591588,73.17824873692001,1.7999889135418452,0.019992314925034758,0.2239290828200607
826,12.038242259027388,73.17824873692001,1.8010344215424654,0.020000192075685756,0.22402233404269692
827,12.051529502138898,73.17824873692001,1.8016851251696586,0.020009956877203135,0.22399438850754239
828,12.064816745250408,73.17824873692001,1.8019341637547681,0.02002010756855251,0.2238599025008524
829,12.078103988361915,73.17824873692001,1.801822120504804,0.020029321860564445,0.22364106020811864
830,12.091391231473429,73.17824873692001,1.8014263818495584,0.020036574418919238,0.2233645636853287
831,12.104678474584937,73.17824873692001,1.8008467046951826,0.020041216087088348,0.22305850749245307
832,12.117965717696444,73.17824873692001,1.8001888473976322,0.020043015095746734,0.22274949580231973
833,12.131252960807954,73.17824873692001,1.7995483066042528,0.020042162002460423,0.22246027521528697
834,12.144540203919464,73.17824873692001,1.7989961768979126,0.02003923915683444,0.2222080547130317
835,12.157827447030972,73.17824873692001,1.7985689212984826,0.020035153304132167,0.22200358411562127
836,12.17111469014248,73.17824873692001,1.798263427712066,0.02003103023639723,0.22185097555607747
837,12.18440193325399,73.17824873692001,1.7980381713198184,0.020028074030827743,0.2217481887451848
838,12.1976891763655,73.17824873692001,1.7978206359893354,0.020027398732386518,0.221688063310723
839,12.21097641947701,73.17824873692001,1.7975203002866489,0.02002984678575084,0.2216597680966851
840,12.224263662588518,73.17824873692001,1.7970455515690293,0.020035815565120754,0.2216505378286931
841,12.237550905700028,73.17824873692001,1.7963222733970818,0.02004511914081255,0.2216475573192906
842,12.250838148811535,73.17824873692001,1.7953116474011046,0.02005691464465011,0.22163982565375093
843,12.264125391923049,73.17824873692001,1.7940245707037836,0.02006971923309159,0.22161982253251236
844,12.277412635034556,73.17824873692001,1.792530090171416,0.02008153359780516,0.22158481206760486
845,12.290699878146064,73.17824873692001,1.7909557722160252,0.020090071698848723,0.22153761965700278
846,12.303987121257574,73.17824873692001,1.789478958863492,0.020093076211495902,0.22148671945394405
847,12.317274364369084,73.17824873692001,1.7883091854936297,0.02008867902483167,0.22144552054491093
848,12.330561607480591,73.17824873692001,1.7876634635029105,0.020075750770593797,0.22143084122642023
849,12.3438488505921,73.17824873692001,1.787737437401896,0.02005417717100895,0.22146068708993963
850,12.35713609370361,73.17824873692001,1.788676359931707,0.020025005699413338,0.22155157666675424
851,12.37042333681512,73.17824873692001,1.7905501832722226,0.019990423798632775,0.22171576275826974
852,12.38371057992663,73.17824873692001,1.7933367255086317,0.019953557018302707,0.22195875395935155
853,12.39699782303814,73.17824873692001,1.7969158541733645,0.01991810690131786,0.22227753358565008
854,12.410285066149648,73.17824873692001,1.8010760813039077,0.019887878081915472,0.2226597985652546
855,12.423572309261155,73.17824873692001,1.8055331423778922,0.019866265859418492,0.22308440795630247
856,12.436859552372669,73.17824873692001,1.8099583447506813,0.0198557853493253,0.22352305953016516
857,12.450146795484176,73.17824873692001,1.8140130223606663,0.019857719011522224,0.22394303037588864
858,12.463434038595686,73.17824873692001,1.8173845496639325,0.019871938855406102,0.2243106531457421
859,12.476721281707194,73.17824873692001,1.8198191734407967,0.019896926804012845,0.22459508047758145
860,12.490008524818704,73.17824873692001,1.8211473154192686,0.019929984916758806,0.22477183470819007
861,12.503295767930211,73.17824873692001,1.821297922574988,0.01996760227693241,0.22482565870116328
862,12.516583011041725,73.17824873692001,1.8203005926212859,0.020005922074527196,0.2247522886792709
863,12.529870254153233,73.17824873692001,1.8182771834700395,0.020041234745143528,0.22455894363636383
864,12.54315749726474,73.17824873692001,1.8154256530147073,0.02007042096334491,0.2242635007779898
865,12.55644474037625,73.17824873692001,1.8119978297433583,0.020091281681108873,0.22389247454720984
866,12.56973198348776,73.17824873692001,1.8082729774482555,0.020102714959684395,0.22347806798891953
867,12.58301922659927,73.17824873692001,1.8045304299311156,0.020104726392596525,0.2230546980043907
868,12.596306469710775,73.17824873692001,1.801024783202976,0.020098289976117654,0.22265545367589767
869,12.609593712822289,73.17824873692001,1.7979661444627644,0.02008510365770719,0.22230892310132797
870,12.622880955933796,73.17824873692001,1.7955068339955222,0.02006729455817821,0.2220367409701023
871,12.636168199045306,73.17824873692001,1.7937349559284446,0.020047121838066086,0.22185208334627837
872,12.649455442156816,73.17824873692001,1.792674439004001,0.020026715299006705,0.2217591890855917
873,12.662742685268324,73.17824873692001,1.7922905825523496,0.020007878501994623,0.2217538450948372
874,12.676029928379831,73.17824873692001,1.792499836268642,0.019991970404460192,0.2218246589508462
875,12.689317171491345,73.17824873692001,1.7931824548369453,0.01997986243043739,0.2219548731999591
876,12.702604414602853,73.17824873692001,1.7941967214507932,0.019971955387132912,0.22212445528006264
877,12.715891657714362,73.17824873692001,1.795393543079118,0.019968235732217884,0.22231221798753525
878,12.72917890082587,73.17824873692001,1.7966303238869266,0.01996835248767608,0.22249777231134862
879,12.74246614393738,73.17824873692001,1.797783104043655,0.01997170091386035,0.22266317011107947
880,12.75575338704889,73.17824873692001,1.7987560361241934,0.019977504493789346,0.22279414559335511
881,12.7690406301604,73.17824873692001,1.7994874132076284,0.0199848920830176,0.2228809062872288
882,12.782327873271909,73.17824873692001,1.7999517101894384,0.019992970892796818,0.22291845741345942
883,12.795615116383416,73.17824873692001,1.8001574686813644,0.02000089724952762,0.2229064726845804
884,12.808902359494926,73.17824873692001,1.8001413153637607,0.020007946025201576,0.22284875353094669
885,12.822189602606436,73.17824873692001,1.7999588825766217,0.020013577074576218,0.2227523483790579
886,12.835476845717944,73.17824873692001,1.799673810127219,0.020017493903730893,0.2226264317429693
887,12.848764088829451,73.17824873692001,1.7993462728900949,0.02001968706005193,0.22248106595983022
888,12.862051331940965,73.17824873692001,1.7990225579255055,0.0200204531490475,0.222325983165156
889,12.875338575052472,73.17824873692001,1.7987271050631715,0.020020380541334194,0.22216952927941203
890,12.888625818163982,73.17824873692001,1.7984581523333611,0.02002029512919968,0.22201790341811878
891,12.901913061275492,73.17824873692001,1.7981877283805092,0.020021164058207724,0.22187480303660637
892,12.915200304387,73.17824873692001,1.7978662412647795,0.020023961932504462,0.22174154458700715
893,12.92848754749851,73.17824873692001,1.7974313527932162,0.02002951177737429,0.22161767310085786
894,12.94177479061002,73.17824873692001,1.7968202218795541,0.02003832067207197,0.2215020033693869
895,12.955062033721529,73.17824873692001,1.7959836063540355,0.020050435654924318,0.22139393457034068
896,12.968349276833036,73.17824873692001,1.7948998455981229,0.020065347427719517,0.2212947695740156
897,12.981636519944546,73.17824873692001,1.793586511441433,0.020081966180281532,0.22120874025242288
898,12.994923763056056,73.17824873692001,1.7921075705398508,0.02009868515222242,0.22114350605777025
899,13.008211006167564,73.17824873692001,1.7905743050690297,0.020113533946612305,0.22110996693779456
900,13.021498249279077,73.17824873692001,1.789139007387997,0.020124407409699598,0.22112130636948213
901,13.034785492390585,73.17824873692001,1.7879815061083637,0.020129342773951394,0.2211913081785417
902,13.048072735502092,73.17824873692001,1.787289723230781,0.02012681035313506,0.22133214742496055
903,13.061359978613602,73.17824873692001,1.7872365075610785,0.02011597617576935,0.22155198409419916
904,13.074647221725112,73.17824873692001,1.7879557503910792,0.02009689017597744,0.2218527600302021
905,13.08793446483662,73.17824873692001,1.789521121603752,0.020070561458281646,0.22222860087248292
906,13.10122170794813,73.17824873692001,1.7919305956943037,0.020038901678714433,0.2226651529617944
907,13.11450895105964,73.17824873692001,1.7950992773012,0.02000453871774816,0.22314005131731204
908,13.127796194171149,73.17824873692001,1.7988619726982809,0.019970522141261687,0.22362454073281793
909,13.141083437282658,73.17824873692001,1.8029856394391817,0.019939959013575457,0.22408608669684668
910,13.154370680394166,73.17824873692001,1.8071904754124808,0.019915630728583544,0.224491646859095
911,13.167657923505676,73.17824873692001,1.8111771889480468,0.019899646167030615,0.22481115584104205
912,13.180945166617184,73.17824873692001,1.8146571128666498,0.01989318316682448,0.22502072121234756
913,13.194232409728697,73.17824873692001,1.8173814163074131,0.019896359018295,0.22510505113276139
914,13.207519652840205,73.17824873692001,1.8191657842396194,0.019908248328018026,0.22505879305436324
915,13.220806895951712,73.17824873692001,1.8199074399957245,0.019927036940233702,0.2248867284730657
916,13.234094139063222,73.17824873692001,1.819592220234746,0.019950281211495113,0.2246029338249249
917,13.247381382174732,73.17824873692001,1.818291300486585,0.019975236213757727,0.2242290477312686
918,13.26066862528624,73.17824873692001,1.8161497730114935,0.01999920871548819,0.22379188068129963
919,13.273955868397753,73.17824873692001,1.81336989931786,0.020019882307646432,0.2233207475099758
920,13.28724311150926,73.17824873692001,1.8101904393629022,0.0200355663199902,0.2228449188414806
921,13.300530354620768,73.17824873692001,1.8068633586404064,0.020045336239654182,0.22239148189543517
922,13.313817597732278,73.17824873692001,1.8036305133544581,0.02004905438281951,0.22198376566877584
923,13.327104840843788,73.17824873692001,1.8007031613594662,0.020047281386424386,0.22164035711939228
924,13.340392083955296,73.17824873692001,1.7982463051100717,0.020041105299474442,0.22137463335637575
925,13.353679327066803,73.17824873692001,1.7963689653339605,0.02003192306634607,0.22119467574487153
926,13.366966570178317,73.17824873692001,1.795120684154397,0.020021212256087568,0.2211034188892471
927,13.380253813289825,73.17824873692001,1.7944938593607334,0.020010329155338416,0.22109891565618695
928,13.393541056401334,73.17824873692001,1.7944309828056821,0.020000360785408497,0.22117465641038475
929,13.406828299512842,73.17824873692001,1.7948355188637848,0.019992045021344083,0.22131995504676066
930,13.420115542624352,73.17824873692001,1.7955850091748464,0.019985758853375626,0.22152048374021163
931,13.43340278573586,73.17824873692001,1.7965449949063441,0.01998156319740189,0.2217590345564111
932,13.446690028847373,73.17824873692001,1.7975824627481938,0.019979285259891295,0.22201650451119842
933,13.45997727195888,73.17824873692001,1.7985777050964236,0.019978616392252867,0.2222730780108557
934,13.473264515070388,73.17824873692001,1.799433712743788,0.0199792044781634,0.22250962269743443
935,13.486551758181898,73.17824873692001,1.8000824795641353,0.01998072484939618,0.22270925256751786
936,13.499839001293408,73.17824873692001,1.8004878889765095,0.019982921169140754,0.2228588663101751
937,13.513126244404916,73.17824873692001,1.800645161280435,0.01998561585893681,0.22295039890546764
938,13.526413487516423,73.17824873692001,1.8005771464898017,0.01998869686259326,0.22298155066085656
939,13.539700730627937,73.17824873692001,1.8003280169845148,0.019992092436523574,0.22295583494790014
940,13.552987973739445,73.17824873692001,1.7999551182841822,0.019995747208497564,0.22288189783205437
941,13.566275216850954,73.17824873692001,1.7995198592230335,0.01999961059832847,0.22277218048012615
942,13.579562459962464,73.17824873692001,1.799078569106039,0.020003643348028503,0.22264109675777027
943,13.592849703073972,73.17824873692001,1.7986742371225621,0.02000784073170086,0.22250298395095106
944,13.60613694618548,73.17824873692001,1.7983299963590393,0.02001226395618882,0.22237013889792098
945,13.619424189296993,73.17824873692001,1.7980451253422833,0.020017066346817,0.22225125232795115
946,13.6327114324085,73.17824873692001,1.7977941991245585,0.020022499671051977,0.22215049922334928
947,13.64599867552001,73.17824873692001,1.7975298019665145,0.020028889002452265,0.22206743904566242
948,13.659285918631518,73.17824873692001,1.797188890768282,0.020036571414431412,0.22199774271763764
949,13.672573161743028,73.17824873692001,1.7967024705173658,0.020045803121338208,0.22193463049388706
950,13.685860404854536,73.17824873692001,1.796007742336252,0.020056649429185235,0.2218707972128293
951,13.699147647966049,73.17824873692001,1.7950613800988282,0.020068879762301563,0.22180051414137658
952,13.712434891077557,73.17824873692001,1.7938521773795082,0.020081894015946573,0.22172154475703287
953,13.725722134189065,73.17824873692001,1.7924110951400731,0.020094705008327503,0.2216365221954431
954,13.739009377300574,73.17824873692001,1.7908168135631033,0.020105994306490942,0.2215535098131546
955,13.752296620412084,73.17824873692001,1.7891952065568755,0.020114245413810013,0.2214855878920345
956,13.765583863523592,73.17824873692001,1.7877117252868169,0.020117941506269065,0.2214494614167499
957,13.7788711066351,73.17824873692001,1.7865566879036694,0.020115801731964953,0.2214632437937334
958,13.792158349746613,73.17824873692001,1.7859247858833953,0.02010702353735214,0.22154371386203
959,13.80544559285812,73.17824873692001,1.7859911995009619,0.020091490617066846,0.22170344477729836
960,13.81873283596963,73.17824873692001,1.7868873611980036,0.02006989929155725,0.22194824515395872
961,13.83202007908114,73.17824873692001,1.7886797033267519,0.02004376586508096,0.2222753259999774
962,13.845307322192648,73.17824873692001,1.7913545856740547,0.020015302296445638,0.22267251320024423
963,13.858594565304156,73.17824873692001,1.7948119176699218,0.019987172598403494,0.22311867771039573
964,13.871881808415669,73.17824873692001,1.7988688617900217,0.019962162782195963,0.22358537714799034
965,13.885169051527177,73.17824873692001,1.8032736227946593,0.01994281272167342,0.22403952237401784
966,13.898456294638684,73.17824873692001,1.8077279228929102,0.01993106621383563,0.22444673012290425
967,13.911743537750194,73.17824873692001,1.8119155637025677,0.019927993918505558,0.22477492236452234
968,13.925030780861704,73.17824873692001,1.8155336615602635,0.019933633365509587,0.22499768755212926
969,13.938318023973212,73.17824873692001,1.8183228093251103,0.019946972683781986,0.22509693608268383
970,13.951605267084725,73.17824873692001,1.8200925810541615,0.01996608167595224,0.22506455467314124
971,13.964892510196233,73.17824873692001,1.8207393164998502,0.019988369060675047,0.22490305539308478
972,13.97817975330774,73.17824873692001,1.8202539347865523,0.020010925811250642,0.22462531134155767
973,13.99146699641925,73.17824873692001,1.818719213705551,0.02003090404635532,0.22425335812551386
974,14.00475423953076,73.17824873692001,1.8162982634656262,0.02004587561100541,0.22381629474156772
975,14.01804148264227,73.17824873692001,1.8132166464159174,0.020054118807564143,0.22334753826550854
976,14.031328725753776,73.17824873692001,1.809739679734656,0.020054798734232156,0.2228817835839452
977,14.044615968865289,73.17824873692001,1.8061465758097746,0.020048024240619206,0.22245198222169757
978,14.057903211976797,73.17824873692001,1.8027042538660285,0.02003477789980425,0.22208659805337685
979,14.071190455088306,73.17824873692001,1.799643900357807,0.020016734210378858,0.2218073418912713
980,14.084477698199816,73.17824873692001,1.7971426303948266,0.019996002102203925,0.22162753124653228
981,14.097764941311324,73.17824873692001,1.7953117434970127,0.019974838003964088,0.22155117252581735
982,14.111052184422832,73.17824873692001,1.7941922340273966,0.019955373967877606,0.22157282043698043
983,14.124339427534345,73.17824873692001,1.7937574246261383,0.019939396957498245,0.22167822904233944
984,14.137626670645853,73.17824873692001,1.793921907160088,0.019928203063823206,0.22184576398888095
985,14.15091391375736,73.17824873692001,1.7945554349457271,0.019922533058300457,0.22204849108665203
986,14.16420115686887,73.17824873692001,1.7955000342534901,0.01992257695366978,0.22225679296922235
987,14.17748839998038,73.17824873692001,1.7965884044864173,0.01992802818981845,0.22244129994661951
988,14.19077564309189,73.17824873692001,1.7976616639812284,0.019938173107548446,0.22257586530602957
989,14.2040628862034,73.17824873692001,1.798584675959549,0.01995200302690234,0.2226402827783654
990,14.217350129314909,73.17824873692001,1.7992575472372743,0.01996833300113307,0.22262244581956717
991,14.230637372426417,73.17824873692001,1.7996223982319668,0.019985912820857453,0.2225196903908589
992,14.243924615537926,73.17824873692001,1.7996650963616871,0.020003521485251027,0.22233914365576618
993,14.257211858649436,73.17824873692001,1.7994122436807922,0.020020041340663985,0.2220970120169885
994,14.270499101760944,73.17824873692001,1.7989242241938537,0.020034511735626207,0.22181686887944432
995,14.283786344872452,73.17824873692001,1.7982854709636684,0.020046164646435688,0.22152712742936026
996,14.297073587983965,73.17824873692001,1.797593264484213,0.02005444625955347,0.22125798731663807
997,14.310360831095473,73.17824873692001,1.7969463214347543,0.02005902899254285,0.22103821163749626
998,14.323648074206982,73.17824873692001,1.7964342188272855,0.02005981794324808,0.2208921099410533
999,14.33693531731849,73.17824873692001,1.7961283951649663,0.020056954418729282,0.22083705317640498
1000,14.35022256043,73.17824873692001,1.7960751629239962,0.02005081725569211,0.22088173865216856
1001,14.36350980354151,73.17824873692001,1.796290929826509,0.020042020423408413,0.22102532675565634
1002,14.37679704665302,73.17824873692001,1.7967597231114179,0.020031403252912767,0.2212575053563222
1003,14.390084289764529,73.17824873692001,1.797433136720806,0.020020007938808107,0.22155944931419913
1004,14.403371532876037,73.17824873692001,1.7982327827062956,0.02000903813156648,0.2219055424136355
1005,14.416658775987546,73.17824873692001,1.7990551806078738,0.019999792947506003,0.22226567398405547
1006,14.429946019099056,73.17824873692001,1.799779115210267,0.019993573013038446,0.22260791037176153
1007,14.443233262210564,73.17824873692001,1.8002757447733366,0.019991559459326576,0.22290134296669245
1008,14.456520505322077,73.17824873692001,1.8004215080952792,0.019994672867007415,0.22311891776917347
1009,14.469807748433585,73.17824873692001,1.8001131545200997,0.020003426164985273,0.22324005186967538
1010,14.483094991545093,73.17824873692001,1.7992835010085906,0.02001779192510828,0.22325283919895175
1011,14.496382234656602,73.17824873692001,1.797915962126786,0.02003710851671387,0.22315564708193547
1012,14.509669477768112,73.17824873692001,1.7960556170634288,0.02006004946266551,0.2229579155308099
1013,14.52295672087962,73.17824873692001,1.7938146987114887,0.020084674937521828,0.22268000215800376
1014,14.53624396399113,73.17824873692001,1.7913707389827258,0.020108573674935716,0.22235197356195008
1015,14.54953120710264,73.17824873692001,1.7889561989912275,0.02012908811745004,0.22201133060578074
1016,14.562818450214149,73.17824873692001,1.786839448292073,0.0201435983238851,0.2216997658576452
1017,14.576105693325658,73.17824873692001,1.785298282244315,0.020149831034762176,0.22145917629019513
1018,14.589392936437166,73.17824873692001,1.784588621830195,0.020146161400481574,0.22132727740853578
1019,14.602680179548676,73.17824873692001,1.784912345594496,0.020131869127620775,0.22133326647160817
1020,14.615967422660184,73.17824873692001,1.786388726686356,0.02010729983828885,0.22149404104557954
1021,14.629254665771697,73.17824873692001,1.7890335679098957,0.020073892210834294,0.22181147586084016
1022,14.642541908883205,73.17824873692001,1.7927492219798364,0.02003406050623746,0.2222711842194335
1023,14.655829151994713,73.17824873692001,1.7973273808961105,0.019990947800019056,0.22284304025632595
1024,14.669116395106222,73.17824873692001,1.8024648715267932,0.019948082980722287,0.22348352965483081
1025,14.682403638217732,73.17824873692001,1.807790947787888,0.019908988017736037,0.22413975685320547
1026,14.695690881329242,73.17824873692001,1.81290300517827,0.019876789203783878,0.22475470123154132
1027,14.70897812444075,73.17824873692001,1.8174064962516696,0.019853885082808612,0.22527312073427383
1028,14.72226536755226,73.17824873692001,1.8209542660901412,0.019841715595551607,0.22564735980542133
1029,14.735552610663769,73.17824873692001,1.823280615829353,0.019840662729548188,0.22584226032822138
1030,14.748839853775278,73.17824873692001,1.8242261194853127,0.019850088422679258,0.2258385867313924
1031,14.762127096886788,73.17824873692001,1.823750570479554,0.019868485162687542,0.22563481933407387
1032,14.775414339998296,73.17824873692001,1.821933195637093,0.019893701589437485,0.2252473080956319
1033,14.788701583109804,73.17824873692001,1.8189608332997869,0.019923211688537754,0.22470859572887078
1034,14.801988826221317,73.17824873692001,1.8151059030398065,0.019954396880300027,0.22406387662364324
1035,14.815276069332825,73.17824873692001,1.8106970120012882,0.019984804654429103,0.22336603982502856
1036,14.828563312444334,73.17824873692001,1.8060858426159823,0.020012352965437,0.22267001392850283
1037,14.841850555555842,73.17824873692001,1.8016141484420134,0.020035464539563983,0.22202714452784117
1038,14.855137798667352,73.17824873692001,1.7975842798128385,0.020053129408965913,0.22148026938073034
1039,14.86842504177886,73.17824873692001,1.7942359121940639,0.020064904396650794,0.22106003161435872
1040,14.881712284890371,73.17824873692001,1.7917307062611236,0.02007086434848418,0.22078278517133063
1041,14.89499952800188,73.17824873692001,1.7901456171671433,0.020071521595550368,0.2206502267084297
1042,14.908286771113389,73.17824873692001,1.7894746147373042,0.020067728444316816,0.22065066501276825
1043,14.921574014224898,73.17824873692001,1.7896377686330307,0.02006057389831687,0.22076164390584568
1044,14.934861257336408,73.17824873692001,1.7904960528689413,0.02005128178537129,0.22095349221805488
1045,14.948148500447918,73.17824873692001,1.791869861588213,0.0200411141058019,0.2211932994638936
1046,14.961435743559424,73.17824873692001,1.7935591062606027,0.020031281319942782,0.22144881182194934
1047,14.974722986670937,73.17824873692001,1.795362866223797,0.020022860554738703,0.2216918031371895
1048,14.988010229782445,73.17824873692001,1.7970968552434858,0.02001672306603739,0.22190058525691259
1049,15.001297472893954,73.17824873692001,1.7986073972999557,0.020013473288038843,0.22206146168214128
1050,15.014584716005464,73.17824873692001,1.7997811142043736,0.0200134029329243,0.2221690773059608
1051,15.027871959116972,73.17824873692001,1.8005500484173975,0.02001646443321474,0.2222257553961174
1052,15.04115920222848,73.17824873692001,1.8008924105596646,0.02002226822502548,0.22224002491927694
1053,15.054446445339993,73.17824873692001,1.8008294983033952,0.020030107756380883,0.22222461724264286
1054,15.0677336884515,73.17824873692001,1.8004195494534512,0.020039014580198404,0.22219424514963018
1055,15.081020931563009,73.17824873692001,1.7997493641886277,0.020047843461563044,0.22216345670246718
1056,15.094308174674518,73.17824873692001,1.7989244870729855,0.020055384144479056,0.22214478966137974
1057,15.107595417786028,73.17824873692001,1.798058629540267,0.020060492541191938,0.22214738490749203
1058,15.120882660897538,73.17824873692001,1.7972628989929278,0.02006223047557927,0.222176161448621
1059,15.134169904009047,73.17824873692001,1.7966353345757604,0.020060000207087942,0.22223157617704828
1060,15.147457147120557,73.17824873692001,1.7962512630244665,0.020053657169231586,0.22230990040450688
1061,15.160744390232065,73.17824873692001,1.7961550766892946,0.020043582449743077,0.222403888012024
1062,15.174031633343574,73.17824873692001,1.796354182450145,0.020030697936998427,0.22250369387757896
1063,15.187318876455084,73.17824873692001,1.7968160008298133,0.02001641220670249,0.222597912457448
1064,15.200606119566594,73.17824873692001,1.7974687549980857,0.02000249283801872,0.22267463765162046
1065,15.2138933626781,73.17824873692001,1.7982063525349385,0.01999087036541507,0.22272248679267803
1066,15.227180605789613,73.17824873692001,1.7988974179497172,0.01998338993289658,0.22273157064263643
1067,15.24046784890112,73.17824873692001,1.7993984742094116,0.019981537477954142,0.22269441561951814
1068,15.25375509201263,73.17824873692001,1.7995707391593163,0.019986176086873683,0.2226068460159888
1069,15.267042335124138,73.17824873692001,1.7992990608490924,0.01999733337308945,0.22246881099066187
1070,15.280329578235648,73.17824873692001,1.798510786149191,0.020014080557672273,0.2222850991094987
1071,15.293616821347156,73.17824873692001,1.7971919759357253,0.020034535320782407,0.22206583413833966
1072,15.306904064458667,73.17824873692001,1.7953982863722393,0.020056003575354323,0.22182660569622742
1073,15.320191307570177,73.17824873692001,1.7932582400041175,0.020075256129969816,0.2215880739510953
1074,15.333478550681685,73.17824873692001,1.7909675447146964,0.020088917220115854,0.22137491200782278
1075,15.346765793793194,73.17824873692001,1.7887740848379547,0.02009392295890381,0.22121401888724673
1076,15.360053036904704,73.17824873692001,1.7869541105405264,0.02008799242326157,0.22113204569418232
1077,15.373340280016214,73.17824873692001,1.7857815989992378,0.02007004175451501,0.22115241227925303
1078,15.386627523127723,73.17824873692001,1.785494496695113,0.020040465959596864,0.22129212660251044
1079,15.399914766239233,73.17824873692001,1.7862624867439163,0.02000122695775201,0.2215588244133156
1080,15.41320200935074,73.17824873692001,1.7881608418139792,0.01995571852349327,0.22194849467298441
1081,15.42648925246225,73.17824873692001,1.7911542403518206,0.019908415227575794,0.2224443268104594
1082,15.43977649557376,73.17824873692001,1.795093228305052,0.019864346941725366,0.22301700399718322
1083,15.453063738685268,73.17824873692001,1.7997243356746981,0.019828470157499646,0.2236265833449102
1084,15.466350981796776,73.17824873692001,1.8047129715004828,0.01980502737784402,0.22422587598466195
1085,15.479638224908287,73.17824873692001,1.8096764423369336,0.019796991661383625,0.22476500317762715
1086,15.492925468019797,73.17824873692001,1.8142230482627912,0.01980567872296927,0.22519659917303356
1087,15.506212711131306,73.17824873692001,1.8179924023800544,0.01983057637091192,0.22548097501481656
1088,15.519499954242814,73.17824873692001,1.8206919912654822,0.01986940927164705,0.2255904849085657
1089,15.532787197354324,73.17824873692001,1.8221254023684066,0.0199184315069832,0.225512520607426
1090,15.546074440465834,73.17824873692001,1.8222085457002664,0.019972906764089114,0.22525096486180632
1091,15.559361683577343,73.17824873692001,1.8209725368306573,0.020027701755974858,0.22482608056722397
1092,15.572648926688853,73.17824873692001,1.8185552666467109,0.020077901477970995,0.2242726762817781
1093,15.58593616980036,73.17824873692001,1.8151846337637492,0.020119357874534827,0.22363655482017872
1094,15.59922341291187,73.17824873692001,1.811154843310245,0.020149100293405896,0.22296969789775953
1095,15.61251065602338,73.17824873692001,1.806797277766422,0.020165562898183154,0.2223248828922656
1096,15.62579789913489,73.17824873692001,1.802449283739308,0.020168616060236764,0.22175042820472754
1097,15.639085142246396,73.17824873692001,1.798424680729886,0.020159419576571164,0.22128568501409643
1098,15.652372385357909,73.17824873692001,1.7949888482022887,0.020140140879357293,0.22095775796526523
1099,15.665659628469417,73.17824873692001,1.792340201365814,0.02011359716760266,0.22077974935725667
1100,15.678946871580926,73.17824873692001,1.7905989586614584,0.020082882201775433,0.22075060939953475
1101,15.692234114692436,73.17824873692001,1.789803322836317,0.02005102766806626,0.22085646888308272
1102,15.705521357803944,73.17824873692001,1.7899125972731222,0.02002073296082856,0.22107315870009772
1103,15.718808600915454,73.17824873692001,1.7908163328928055,0.019994180470670087,0.2213695042707876
1104,15.732095844026963,73.17824873692001,1.7923483163092484,0.019972937322452516,0.2217109333109795
1105,15.745383087138473,73.17824873692001,1.794304022627425,0.019957931988011938,0.22206295285871694
1106,15.758670330249982,73.17824873692001,1.7964600327827558,0.019949487760214008,0.22239412688152632
1107,15.77195757336149,73.17824873692001,1.798593845606975,0.0199473942589979,0.2226783029131593
1108,15.785244816473,73.17824873692001,1.8005025141229327,0.019951001083384923,0.22289597464020963
1109,15.79853205958451,73.17824873692001,1.8020186343510562,0.019959322406398097,0.22303480507041223
1110,15.81181930269602,73.17824873692001,1.8030224411132427,0.0199711456962493,0.22308945023802607
1111,15.825106545807529,73.17824873692001,1.8034491259646392,0.019985140282224614,0.22306089778055133
1112,15.838393788919037,73.17824873692001,1.8032909618502797,0.01999996198970891,0.22295555610516918
1113,15.851681032030546,73.17824873692001,1.8025943395304818,0.020014349453878408,0.22278429646256315
1114,15.864968275142056,73.17824873692001,1.8014523153309,0.020027206988592436,0.2225615729531097
1115,15.878255518253566,73.17824873692001,1.7999936634667255,0.020037668780875477,0.22230464699102392
1116,15.891542761365072,73.17824873692001,1.79836966705808,0.020045140105539115,0.22203285238846998
1117,15.904830004476583,73.17824873692001,1.7967399534490327,0.02004931293482581,0.2217667825779612
1118,15.918117247588093,73.17824873692001,1.7952586007422142,0.02005015544589431,0.22152728005096645
1119,15.931404490699602,73.17824873692001,1.794061557378212,0.020047878760973532,0.22133416111179544
1120,15.944691733811112,73.17824873692001,1.7932561779404845,0.020042889138844208,0.2212047055384621
1121,15.95797897692262,73.17824873692001,1.7929134309278936,0.02003573466407752,0.22115205224874976
1122,15.97126622003413,73.17824873692001,1.7930631179955288,0.020027052211944937,0.22118370353430486
1123,15.98455346314564,73.17824873692001,1.793692263879403,0.02001751949253408,0.22130033305585
1124,15.997840706257149,73.17824873692001,1.7947465882284592,0.02000781814256595,0.22149510233359704
1125,16.011127949368657,73.17824873692001,1.796134668247802,0.01999861208499327,0.22175371266879587
1126,16.024415192480166,73.17824873692001,1.7977343337437333,0.019990540649638643,0.22205532937677844
1127,16.037702435591676,73.17824873692001,1.799400998079309,0.019984220773064453,0.2223743303677341
1128,16.050989678703186,73.17824873692001,1.8009776273496065,0.019980248386329648,0.2226826773414378
1129,16.064276921814695,73.17824873692001,1.8023058703425,0.01997918715882785,0.2229526174720009
1130,16.077564164926205,73.17824873692001,1.8032377870273075,0.019981534255022384,0.22315938182268646
1131,16.090851408037715,73.17824873692001,1.8036475942199877,0.019987658119443398,0.22328356133795776
1132,16.104138651149224,73.17824873692001,1.8034427770480121,0.019997711713600437,0.22331291100237907
1133,16.11742589426073,73.17824873692001,1.8025739615963046,0.02001153326050644,0.223243438322156
1134,16.13071313737224,73.17824873692001,1.8010430973353253,0.020028553224436533,0.22307974571764522
1135,16.14400038048375,73.17824873692001,1.7989092675086007,0.02004773158775504,0.22283468920855481
1136,16.15728762359526,73.17824873692001,1.7962909072815303,0.02006755163630984,0.2225284682007436
1137,16.17057486670677,73.17824873692001,1.7933631501245646,0.02008609062249557,0.2221872683096203
1138,16.18386210981828,73.17824873692001,1.790349529285796,0.02010117434728729,0.22184155184593865
1139,16.197149352929788,73.17824873692001,1.7875078475111554,0.020110607073083177,0.22152405118682827
1140,16.210436596041298,73.17824873692001,1.7851106305648266,0.020112453081366152,0.22126749452513472
1141,16.223723839152807,73.17824873692001,1.7834213218356172,0.020105332583083352,0.2211021015338647
1142,16.237011082264313,73.17824873692001,1.782668214716643,0.02008868550859004,0.2210529354708877
1143,16.250298325375823,73.17824873692001,1.783018870652506,0.0200629557700166,0.22113727920461945
1144,16.263585568487333,73.17824873692001,1.7845581700066617,0.0200296568241462,0.22136229225885756
1145,16.276872811598842,73.17824873692001,1.7872730587483219,0.019991295015137182,0.2217232730313922
1146,16.290160054710352,73.17824873692001,1.791046501843843,0.019951148067137384,0.22220286489864877
1147,16.30344729782186,73.17824873692001,1.7956621709651028,0.01991291934052005,0.2227714876821586
1148,16.31673454093337,73.17824873692001,1.800820076932215,0.01988031017019699,0.22338914483622302
1149,16.33002178404488,73.17824873692001,1.8061618999048676,0.019856568765287373,0.2240085689185139
1150,16.34330902715639,73.17824873692001,1.8113034089918068,0.019844081967361413,0.22457945490668807
1151,16.356596270267897,73.17824873692001,1.8158703268983267,0.01984407348629896,0.2250533332458854
1152,16.369883513379406,73.17824873692001,1.8195334577765438,0.01985645490755904,0.22538847342120508
1153,16.383170756490916,73.17824873692001,1.822038949852679,0.019879846590398226,0.22555412300699287
1154,16.396457999602426,73.17824873692001,1.8232301079366042,0.0199117601971921,0.22553354739604778
1155,16.409745242713935,73.17824873692001,1.8230581354603954,0.01994891774093204,0.2253257101679135
1156,16.423032485825445,73.17824873692001,1.8215811504960966,0.019987662891333646,0.22494555717971984
1157,16.436319728936954,73.17824873692001,1.8189534231050635,0.02002440231948934,0.22442271817289033
1158,16.449606972048464,73.17824873692001,1.8154076200817388,0.020056011478653706,0.2237985837310868
1159,16.462894215159974,73.17824873692001,1.8112318119885662,0.02008015037770829,0.22312213264788924
1160,16.476181458271483,73.17824873692001,1.8067429755202906,0.020095453669188135,0.22244510886444835
1161,16.48946870138299,73.17824873692001,1.8022597959754056,0.020101581028344456,0.22181714345730033
1162,16.5027559444945,73.17824873692001,1.7980776695960234,0.02009913473121424,0.2212813488714584
1163,16.51604318760601,73.17824873692001,1.7944479535046944,0.02008947156296467,0.22087080581854363
1164,16.52933043071752,73.17824873692001,1.7915626501370738,0.020074452800537435,0.22060622326534576
1165,16.542617673829028,73.17824873692001,1.7895450209725343,0.020056177969979674,0.22049490344863254
1166,16.555904916940538,73.17824873692001,1.7884460874425263,0.02003673626791092,0.2205310060325623
1167,16.569192160052047,73.17824873692001,1.7882466088364701,0.020017999486777287,0.22069699724784142
1168,16.582479403163557,73.17824873692001,1.788863890188362,0.020001474467672,0.22096609230166986
1169,16.595766646275067,73.17824873692001,1.7901626129771735,0.019988223592726697,0.2213053977869733
1170,16.609053889386573,73.17824873692001,1.7919687583831103,0.01997885002756197,0.2216793414445482
1171,16.622341132498082,73.17824873692001,1.7940855765543058,0.019973535259731768,0.22205298899044265
1172,16.635628375609592,73.17824873692001,1.7963103584342688,0.019972111120042723,0.22239498935658567
1173,16.6489156187211,73.17824873692001,1.798450542732894,0.019974147432707607,0.22267995460653744
1174,16.66220286183261,73.17824873692001,1.8003377668455476,0.019979039297201136,0.22289006657273974
1175,16.67549010494412,73.17824873692001,1.8018388941660186,0.0199860828579028,0.22301578885044496
1176,16.68877734805563,73.17824873692001,1.8028634398120407,0.019994533935140564,0.22305574005276912
1177,16.70206459116714,73.17824873692001,1.8033670622537297,0.020003649341707536,0.2230158808616525
1178,16.71535183427865,73.17824873692001,1.803351102016302,0.02001271493712906,0.22290816495867027
1179,16.728639077390156,73.17824873692001,1.802858557655918,0.020021066524516413,0.22274883102090992
1180,16.741926320501666,73.17824873692001,1.801967235627144,0.020028109463199592,0.22255656810428812
1181,16.755213563613175,73.17824873692001,1.800780992072802,0.020033340846174304,0.22235077574348514
1182,16.768500806724685,73.17824873692001,1.7994200059074397,0.020036375104742963,0.22215007013834917
1183,16.781788049836194,73.17824873692001,1.7980109291819077,0.020036970781583403,0.2219711112292325
1184,16.795075292947704,73.17824873692001,1.7966775933592851,0.02003505377329342,0.22182776024427717
1185,16.808362536059214,73.17824873692001,1.7955327506925496,0.02003073187125443,0.2217305320407703
1186,16.821649779170723,73.17824873692001,1.7946711403189461,0.020024296949080592,0.22168628600960968
1187,16.834937022282233,73.17824873692001,1.794164021502182,0.0200162122699669,0.22169809190261452
1188,16.848224265393743,73.17824873692001,1.7940552285035307,0.020007082902240805,0.22176520932523236
1189,16.86151150850525,73.17824873692001,1.7943587752803434,0.019997609848455212,0.22188315390403873
1190,16.87479875161676,73.17824873692001,1.7950580501590891,0.019988532790675133,0.2220438782853128
1191,16.888085994728268,73.17824873692001,1.7961066156345273,0.019980569561320636,0.22223612070472457
1192,16.901373237839778,73.17824873692001,1.7974305438551579,0.01997436173428964,0.22244595951203994
1193,16.914660480951287,73.17824873692001,1.79893218206273,0.01997043448426059,0.22265758659941481
1194,16.927947724062797,73.17824873692001,1.8004952590429344,0.019969174942473737,0.22285428161800935
1195,16.941234967174307,73.17824873692001,1.8019911765849534,0.019970829117069756,0.22301953095849553
1196,16.954522210285816,73.17824873692001,1.8032862038860522,0.01997551385936741,0.22313820263193637
1197,16.967809453397326,73.17824873692001,1.8042492564097097,0.01998323567276876,0.2231976727827218
1198,16.981096696508832,73.17824873692001,1.8047600582324232,0.019993904060665018,0.22318880419917253
1199,16.99438393962034,73.17824873692001,1.8047176616206988,0.020007327346466017,0.22310669961059834
1200,17.00767118273185,73.17824873692001,1.8040492792577665,0.02002318412224103,0.22295120258920953
1201,17.02095842584336,73.17824873692001,1.8027191221450074,0.02004097210035656,0.2227271793855796
1202,17.03424566895487,73.17824873692001,1.800736652472458,0.020059946103221173,0.22244461696467013
1203,17.04753291206638,73.17824873692001,1.7981633974744762,0.020079065518435694,0.22211851456046142
1204,17.06082015517789,73.17824873692001,1.7951171461793551,0.020096975954462828,0.22176851304777173
1205,17.0741073982894,73.17824873692001,1.791772103389455,0.02011204772177676,0.22141821720664057
