,time,sample_rate,Red,Green,Blue
0,0.0,74.97625621181814,3.386986187339426,0.0757316009570415,1.340902509810304
1,0.013293047815397,74.97625621181814,3.394655086203263,0.07582897398790064,1.3425690264788772
2,0.0265860956307941,74.97625621181814,3.401314058286759,0.07590963108694554,1.3439737017628979
3,0.0398791434461911,74.97625621181814,3.4062017818897052,0.07596186079599414,1.3449283463012127
4,0.0531721912615882,74.97625621181814,3.4089442614957446,0.07598159430360031,1.3453596391754314
5,0.0664652390769852,74.97625621181814,3.4095806709699055,0.07597260355957884,1.3453129840186355
6,0.0797582868923823,74.97625621181814,3.4085061256747586,0.07594499910920476,1.3449310318683296
7,0.0930513347077794,74.97625621181814,3.4063646208200726,0.07591275887524628,1.3444176820906697
8,0.1063443825231764,74.97625621181814,3.403910252643509,0.07589070184170649,1.3439934010696941
9,0.1196374303385735,74.97625621181814,3.4018535188942036,0.07589132771488145,1.343847964163896
10,0.1329304781539705,74.97625621181814,3.4007238320870132,0.07592220114370186,1.34410113464227
11,0.1462235259693676,74.97625621181814,3.4007919546900016,0.07598467611403006,1.344783973809288
12,0.1595165737847647,74.97625621181814,3.402075360286176,0.07607431364149837,1.3458462087519412
13,0.1728096216001617,74.97625621181814,3.4044044831122093,0.07618256355118226,1.3471821611871244
14,0.1861026694155588,74.97625621181814,3.4075069262305187,0.07629887557574269,1.348661541739978
15,0.1993957172309558,74.97625621181814,3.411080650861724,0.07641259458343312,1.3501552268225667
16,0.2126887650463529,74.97625621181814,3.414845946143742,0.07651436859075482,1.3515525410761462
17,0.2259818128617499,74.97625621181814,3.4185749562022396,0.07659703420742499,1.3527703380365554
18,0.239274860677147,74.97625621181814,3.4221012142695506,0.07665604280329306,1.3537555970882136
19,0.252567908492544,74.97625621181814,3.4253134543515014,0.07668952717081978,1.3544836208925866
20,0.2658609563079411,74.97625621181814,3.4281387927403415,0.0766981160138857,1.3549537888246286
21,0.2791540041233382,74.97625621181814,3.4305206405138713,0.07668459464098823,1.3551844461100733
22,0.2924470519387352,74.97625621181814,3.432396550817656,0.0766534913330616,1.3552080255511938
23,0.3057400997541323,74.97625621181814,3.4336806661482155,0.07661064445287159,1.3550670014796986
24,0.3190331475695294,74.97625621181814,3.4342545193141154,0.07656277952980343,1.3548108317408913
25,0.3323261953849264,74.97625621181814,3.433968672154908,0.0765171021465917,1.354493700926272
26,0.3456192432003235,74.97625621181814,3.4326560954473315,0.07648089485864275,1.3541726651624963
27,0.3589122910157205,74.97625621181814,3.430156402044607,0.07646109709759574,1.3539057248918327
28,0.3722053388311176,74.97625621181814,3.426348208276655,0.07646384735821138,1.353749409029335
29,0.3854983866465146,74.97625621181814,3.421185243429702,0.07649397691786551,1.353755618291538
30,0.3987914344619117,74.97625621181814,3.414730620346806,0.07655446255227699,1.353967711751501
31,0.4120844822773087,74.97625621181814,3.407183191545847,0.0766458696266184,1.3544160843088937
32,0.4253775300927058,74.97625621181814,3.3988903467493983,0.0767658428595423,1.355113724787305
33,0.4386705779081029,74.97625621181814,3.3903431161377138,0.07690872528934195,1.3560524171938522
34,0.4519636257234999,74.97625621181814,3.3821518792622838,0.07706540100725934,1.357200312192466
35,0.465256673538897,74.97625621181814,3.375003318406725,0.07722345853279905,1.358501529049663
36,0.4785497213542941,74.97625621181814,3.3696011844037512,0.07736775330466965,1.3598782471987396
37,0.4918427691696911,74.97625621181814,3.366596509654157,0.0774814080502787,1.3612354345062658
38,0.5051358169850881,74.97625621181814,3.3665165330433227,0.07754724208918574,1.3624679949325469
39,0.5184288648004852,74.97625621181814,3.3697025896256694,0.07754956799722405,1.3634697573174153
40,0.5317219126158823,74.97625621181814,3.376265320724758,0.07747621146550923,1.3641433912998042
41,0.5450149604312794,74.97625621181814,3.3860629253701178,0.07732051190342401,1.3644100864593
42,0.5583080082466764,74.97625621181814,3.398705252875214,0.07708300931344851,1.3642177684272618
43,0.5716010560620735,74.97625621181814,3.4135831026471974,0.07677253195683977,1.363546773407633
44,0.5848941038774705,74.97625621181814,3.429918706447775,0.07640644400183971,1.3624122103379324
45,0.5981871516928675,74.97625621181814,3.4468306864395166,0.07600989277430274,1.3608626672567008
46,0.6114801995082646,74.97625621181814,3.4634052579466807,0.07561401696803582,1.3589754163110763
47,0.6247732473236617,74.97625621181814,3.4787653040225486,0.07525322597123352,1.356848760713205
48,0.6380662951390588,74.97625621181814,3.4921301370111513,0.07496181214013606,1.3545925620805672
49,0.6513593429544557,74.97625621181814,3.502860945033639,0.07477029594676408,1.3523182182490265
50,0.6646523907698528,74.97625621181814,3.5104895836692567,0.07470199811524961,1.3501293878378662
51,0.6779454385852499,74.97625621181814,3.51473066753474,0.07477027854481046,1.3481145741075415
52,0.691238486400647,74.97625621181814,3.5154784685706297,0.07497668932498033,1.3463423220754527
53,0.704531534216044,74.97625621181814,3.5127928970924027,0.07531021319976146,1.3448593179724875
54,0.7178245820314411,74.97625621181814,3.506882325317769,0.07574781002753722,1.3436911973153334
55,0.7311176298468381,74.97625621181814,3.4980888894348126,0.0762563608001705,1.3428454574813058
56,0.7444106776622352,74.97625621181814,3.486874788082329,0.07679579919708879,1.342315606155964
57,0.7577037254776322,74.97625621181814,3.473805352148662,0.07732302310506131,1.3420856035896498
58,0.7709967732930293,74.97625621181814,3.459527014052018,0.07779611291423119,1.3421337781762221
59,0.7842898211084264,74.97625621181814,3.4447396256608758,0.07817836924747748,1.3424357139960004
60,0.7975828689238235,74.97625621181814,3.4301625983701736,0.078441707544115,1.3429660365637728
61,0.8108759167392204,74.97625621181814,3.416495263708465,0.07856901919389346,1.3436991370540547
62,0.8241689645546175,74.97625621181814,3.4043734995687895,0.07855528176728366,1.3446086567170068
63,0.8374620123700146,74.97625621181814,3.394326313188567,0.07840744730481261,1.3456658994729496
64,0.8507550601854117,74.97625621181814,3.386737243355616,0.07814325720073434,1.346838190681085
65,0.8640481080008087,74.97625621181814,3.3818157645422247,0.077789110788377,1.3480882544203094
66,0.8773411558162058,74.97625621181814,3.379583183969017,0.07737718155225179,1.3493749438536586
67,0.8906342036316028,74.97625621181814,3.379875884473757,0.07694212589405486,1.350655141773522
68,0.903927251447,74.97625621181814,3.3823664574531795,0.07651778233735924,1.3518864721647976
69,0.9172202992623968,74.97625621181814,3.3866007137658456,0.07613420871387605,1.353030340887854
70,0.930513347077794,74.97625621181814,3.3920462345762146,0.0758153266125581,1.3540547651132386
71,0.9438063948931912,74.97625621181814,3.398146461797238,0.07557735331980285,1.3549365037568621
72,0.9570994427085882,74.97625621181814,3.404373628756856,0.07542810608844375,1.3556621487719138
73,0.9703924905239852,74.97625621181814,3.410274204552673,0.07536717082433479,1.356228045685226
74,0.9836855383393822,74.97625621181814,3.4155018720340338,0.07538684436618624,1.3566391335961947
75,0.9969785861547792,74.97625621181814,3.4198351028907497,0.07547369153948785,1.3569069832730036
76,1.0102716339701765,74.97625621181814,3.4231787440513655,0.07561050226805192,1.3570474307678049
77,1.0235646817855737,74.97625621181814,3.4255512695011734,0.07577839627625085,1.3570782344073151
78,1.0368577296009704,74.97625621181814,3.427061120973284,0.07595882875876235,1.3570171264332254
79,1.0501507774163674,74.97625621181814,3.4278766214938434,0.0761352991679897,1.3568805065331833
80,1.0634438252317646,74.97625621181814,3.4281942278247812,0.07629462247443494,1.3566828651113965
81,1.0767368730471616,74.97625621181814,3.4282094485920367,0.07642767898234865,1.3564368659031893
82,1.0900299208625588,74.97625621181814,3.4280936465535743,0.07652962643982339,1.3561538928860872
83,1.1033229686779558,74.97625621181814,3.427978433619625,0.07659962677655004,1.3558447970837233
84,1.1166160164933527,74.97625621181814,3.42794807193647,0.07664019202483908,1.3555205723854347
85,1.12990906430875,74.97625621181814,3.4280394146144513,0.07665628380504126,1.3551927397427304
86,1.143202112124147,74.97625621181814,3.4282481054383,0.07665430812099712,1.3548733094718568
87,1.156495159939544,74.97625621181814,3.4285390477983553,0.07664113512613499,1.3545742997872015
88,1.169788207754941,74.97625621181814,3.4288589100886147,0.07662324756546636,1.3543068934437934
89,1.183081255570338,74.97625621181814,3.429148729365501,0.07660608812693258,1.3540803942734378
90,1.196374303385735,74.97625621181814,3.429355256276132,0.07659364078596807,1.3539011884731889
91,1.2096673512011322,74.97625621181814,3.4294401064026543,0.07658824893748992,1.3537719164976216
92,1.2229603990165292,74.97625621181814,3.4293859729112346,0.0765906467219662,1.353691023151988
93,1.2362534468319264,74.97625621181814,3.4291994867110716,0.07660016117454745,1.3536527860232275
94,1.2495464946473234,74.97625621181814,3.4289107602114663,0.07661503229709261,1.3536478408009265
95,1.2628395424627203,74.97625621181814,3.428569895245296,0.07663279564329285,1.3536641431969068
96,1.2761325902781175,74.97625621181814,3.4282407884771278,0.07665067653103456,1.3536882460294817
97,1.2894256380935143,74.97625621181814,3.427992598545808,0.07666595489991383,1.3537067364798925
98,1.3027186859089115,74.97625621181814,3.4278893142200193,0.07667627294863315,1.353707675589905
99,1.316011733724309,74.97625621181814,3.427978015087767,0.07667987159746889,1.353681905939234
100,1.3293047815397057,74.97625621181814,3.4282766655793955,0.07667575419252451,1.3536241349668354
101,1.3425978293551029,74.97625621181814,3.4287626124432573,0.07666378480077313,1.3535337484320922
102,1.3558908771704998,74.97625621181814,3.429363308978891,0.07664473274142712,1.3534153484375813
103,1.3691839249858968,74.97625621181814,3.4299510734265373,0.07662027431472264,1.3532790325733526
104,1.382476972801294,74.97625621181814,3.4303437869799787,0.0765929575513799,1.3531404285728323
105,1.395770020616691,74.97625621181814,3.4303132302585304,0.07656612754906626,1.3530204720439967
106,1.409063068432088,74.97625621181814,3.4296021556649903,0.07654380061848484,1.3529448705875897
107,1.4223561162474851,74.97625621181814,3.427950169056373,0.07653046761955573,1.3529431507862872
108,1.435649164062882,74.97625621181814,3.425127111039178,0.07653080344411377,1.3530471554805827
109,1.448942211878279,74.97625621181814,3.4209710552094927,0.07654926343495388,1.3532888686750777
110,1.4622352596936763,74.97625621181814,3.4154265431768565,0.07658956073833433,1.3536975101087736
111,1.4755283075090733,74.97625621181814,3.408577579223401,0.07665404172585061,1.35429596475222
112,1.4888213553244705,74.97625621181814,3.4006695296261755,0.0767430078716582,1.355096781551063
113,1.5021144031398674,74.97625621181814,3.3921146649775924,0.07685406714865607,1.3560981607880715
114,1.5154074509552644,74.97625621181814,3.3834777176286615,0.07698162875728383,1.3572805078723333
115,1.5287004987706616,74.97625621181814,3.375440228445917,0.07711667277603551,1.3586042158984013
116,1.5419935465860586,74.97625621181814,3.368745321670771,0.0772469223519231,1.3600093104490325
117,1.5552865944014558,74.97625621181814,3.3641277954616085,0.07735751339802151,1.361417420085879
118,1.5685796422168528,74.97625621181814,3.3622374636866508,0.07743219460374423,1.3627362358438635
119,1.5818726900322495,74.97625621181814,3.3635654303621294,0.0774550108685989,1.363866293919418
120,1.595165737847647,74.97625621181814,3.3683830275642803,0.0774123367260279,1.3647096078805983
121,1.608458785663044,74.97625621181814,3.3767017777645845,0.07729503104453199,1.3651792841986612
122,1.6217518334784409,74.97625621181814,3.3882601193292436,0.0771004007069381,1.3652088586747817
123,1.635044881293838,74.97625621181814,3.4025390166357465,0.0768336334525897,1.3647599969516715
124,1.648337929109235,74.97625621181814,3.4188045540485503,0.07650840155219332,1.3638274428933799
125,1.661630976924632,74.97625621181814,3.436171886742657,0.07614643195819465,1.3624404812959852
126,1.6749240247400292,74.97625621181814,3.453682130378429,0.07577597480968973,1.3606606459063852
127,1.6882170725554262,74.97625621181814,3.4703823879576134,0.0754292678891424,1.3585759363290888
128,1.7015101203708234,74.97625621181814,3.4853993433423636,0.07513926229172953,1.3562923189369493
129,1.7148031681862204,74.97625621181814,3.497998597794983,0.07493601976616245,1.3539236792483629
130,1.7280962160016171,74.97625621181814,3.507624777323081,0.07484328368591038,1.3515815955333055
131,1.7413892638170143,74.97625621181814,3.513920781310384,0.07487568283939403,1.3493662784232698
132,1.7546823116324115,74.97625621181814,3.5167274538661886,0.07503685863838234,1.3473597740972065
133,1.7679753594478085,74.97625621181814,3.5160669556788924,0.0753187028993943,1.345622105982835
134,1.7812684072632057,74.97625621181814,3.51211583799745,0.07570187309527826,1.3441905123216547
135,1.7945614550786029,74.97625621181814,3.5051767952912356,0.07615760128548428,1.343081423086532
136,1.807854502894,74.97625621181814,3.495655724199506,0.07665055540768628,1.342294406612072
137,1.8211475507093968,74.97625621181814,3.48404369375021,0.07714234925962907,1.341817078532206
138,1.8344405985247936,74.97625621181814,3.4709002068013612,0.07759525465690256,1.3416299422790032
139,1.847733646340191,74.97625621181814,3.456835496961714,0.07797568468264121,1.3417103138698119
140,1.861026694155588,74.97625621181814,3.442490241734104,0.07825707829030679,1.3420348530920447
141,1.874319741970985,74.97625621181814,3.4285108324360554,0.07842191730731496,1.3425806815169121
142,1.887612789786382,74.97625621181814,3.4155192046595526,0.07846273730512023,1.343325265034001
143,1.9009058376017791,74.97625621181814,3.404078005431146,0.07838213343233331,1.3442451401906386
144,1.9141988854171763,74.97625621181814,3.3946538242186075,0.0781918699057999,1.345313846041552
145,1.9274919332325733,74.97625621181814,3.3875828033142303,0.07791126509742122,1.3465000423030813
146,1.9407849810479705,74.97625621181814,3.383043711205643,0.077565068434543,1.3477667697197793
147,1.954078028863368,74.97625621181814,3.3810432685650835,0.07718107170405195,1.3490721600857039
148,1.9673710766787644,74.97625621181814,3.3814171635962893,0.07678768857413557,1.3503714240068347
149,1.9806641244941607,74.97625621181814,3.383848023233519,0.07641170079234126,1.3516197436865718
150,1.9939571723095584,74.97625621181814,3.387899038262171,0.07607632653792393,1.3527755673186528
151,2.007250220124956,74.97625621181814,3.3930594764355235,0.07579972443972915,1.3538037524871025
152,2.0205432679403525,74.97625621181814,3.398796436417124,0.07559400860021406,1.3546780687151228
153,2.033836315755749,74.97625621181814,3.4046062526071807,0.0754648151646247,1.35538271972274
154,2.047129363571147,74.97625621181814,3.4100591202915713,0.07541142637782632,1.3559127436065757
155,2.060422411386544,74.97625621181814,3.414831716476214,0.0754274231436073,1.3562733459244356
156,2.073715459201941,74.97625621181814,3.4187245889561444,0.07550180015764586,1.3564783759797385
157,2.087008507017338,74.97625621181814,3.421663480704341,0.07562042095421881,1.3565482461228138
158,2.100301554832735,74.97625621181814,3.4236861038540494,0.07576762438477776,1.356507612741571
159,2.1135946026481323,74.97625621181814,3.424917775366348,0.0759277872821382,1.356383097677528
160,2.126887650463529,74.97625621181814,3.4255404947482777,0.07608670409565939,1.3562012522883016
161,2.140180698278926,74.97625621181814,3.425760367466966,0.07623268214828817,1.355986878362058
162,2.153473746094323,74.97625621181814,3.425777827119417,0.0763572647230224,1.3557617422180914
163,2.16676679390972,74.97625621181814,3.4257640682458748,0.07645553521508323,1.3555436648192467
164,2.1800598417251176,74.97625621181814,3.4258455980962106,0.07652601729460311,1.3553459467778584
165,2.1933528895405145,74.97625621181814,3.4260971635663644,0.07657023717136781,1.3551770893361057
166,2.2066459373559115,74.97625621181814,3.426542161397275,0.07659204645516803,1.3550407906308852
167,2.2199389851713085,74.97625621181814,3.427159137927698,0.07659681754998879,1.3549362171369974
168,2.233232032986705,74.97625621181814,3.4278926247363395,0.07659061932000318,1.3548585598001168
169,2.2465250808021024,74.97625621181814,3.428666286922019,0.07657946314190968,1.3547998740352343
170,2.2598181286175,74.97625621181814,3.4293964897867393,0.07656868380090762,1.3547501708243275
171,2.273111176432897,74.97625621181814,3.430004814134827,0.07656249148873216,1.3546986792866387
172,2.286404224248294,74.97625621181814,3.430428502179181,0.07656370506853855,1.3546351528244114
173,2.299697272063691,74.97625621181814,3.430628194139923,0.07657365604336316,1.35455105782161
174,2.312990319879088,74.97625621181814,3.430592591085771,0.07659223894055511,1.3544404805026908
175,2.326283367694485,74.97625621181814,3.430339852968331,0.07661807716768584,1.3543006218415854
176,2.339576415509882,74.97625621181814,3.429915645591088,0.07664877260111667,1.354131820394866
177,2.352869463325279,74.97625621181814,3.429387836471014,0.07668121027577335,1.3539371362637613
178,2.366162511140676,74.97625621181814,3.4288379625088665,0.07671189443025228,1.3537216256559483
179,2.379455558956073,74.97625621181814,3.428349797706506,0.07673729703819133,1.3534915110301278
180,2.39274860677147,74.97625621181814,3.427995660229626,0.07675420363896338,1.3532534856401814
181,2.4060416545868675,74.97625621181814,3.427821507781499,0.07676004318725335,1.3530143709593418
182,2.4193347024022644,74.97625621181814,3.4278323359095646,0.07675318863916453,1.3527812705337312
183,2.4326277502176614,74.97625621181814,3.4279798368279697,0.07673321323727803,1.3525622464464608
184,2.4459207980330584,74.97625621181814,3.42815458778846,0.07670108434314411,1.352367406827004
185,2.459213845848456,74.97625621181814,3.42818509325991,0.07665927290091261,1.3522101617914348
186,2.472506893663853,74.97625621181814,3.4278456868751537,0.07661175333215665,1.3521083074686728
187,2.4857999414792498,74.97625621181814,3.426874527970783,0.07656386744342628,1.3520845549537353
188,2.4990929892946467,74.97625621181814,3.4250016953198137,0.07652202866859598,1.3521661467530866
189,2.512386037110044,74.97625621181814,3.421985777452903,0.07649325153676961,1.3523833016600844
190,2.5256790849254407,74.97625621181814,3.4176555862452083,0.07648450700912156,1.3527663938238403
191,2.538972132740838,74.97625621181814,3.4119519784168024,0.07650192754371685,1.353341986056476
192,2.552265180556235,74.97625621181814,3.404963626109457,0.07654991509552643,1.3541280734406411
193,2.565558228371632,74.97625621181814,3.3969502834285974,0.07663023743208464,1.3551291141826172
194,2.578851276187029,74.97625621181814,3.3883480147449947,0.07674122779906851,1.356331588242667
195,2.592144324002426,74.97625621181814,3.3797529836164926,0.07687722317315855,1.3577008899353025
196,2.605437371817823,74.97625621181814,3.371882571907124,0.07702837942272314,1.3591802960893467
197,2.6187304196332204,74.97625621181814,3.3655145826127444,0.07718098114082116,1.3606925440488715
198,2.6320234674486174,74.97625621181814,3.3614093355560204,0.07731831421548618,1.3621441963711007
199,2.6453165152640143,74.97625621181814,3.36022483717675,0.07742209297984301,1.3634325147004198
200,2.658609563079412,74.97625621181814,3.362437416975221,0.07747435655955977,1.364454262561882
201,2.6719026108948083,74.97625621181814,3.368278766321421,0.07745968089503844,1.365115749396034
202,2.6851956587102057,74.97625621181814,3.3776979073915596,0.07736746043003764,1.365343070803443
203,2.6984887065256027,74.97625621181814,3.390353638800128,0.07719391701106673,1.3650909684525525
204,2.711781754341,74.97625621181814,3.405638935402996,0.0769434784641832,1.364348766134378
205,2.7250748021563966,74.97625621181814,3.4227342577536324,0.07662924640317574,1.3631424479881677
206,2.7383678499717936,74.97625621181814,3.4406826431004864,0.07627239038095641,1.361532569655554
207,2.7516608977871906,74.97625621181814,3.45847651260143,0.07590044846281387,1.359608228949486
208,2.764953945602588,74.97625621181814,3.4751448487717496,0.07554467920115293,1.3574778639823106
209,2.778246993417985,74.97625621181814,3.4898299748468875,0.0752367696656415,1.355258111371292
210,2.791540041233382,74.97625621181814,3.501845464994709,0.0750053301749974,1.353062241918046
211,2.804833089048779,74.97625621181814,3.5107102635310006,0.0748726713071711,1.3509897410003455
212,2.818126136864176,74.97625621181814,3.516158189141859,0.07485231674460963,1.3491183992842948
213,2.8314191846795733,74.97625621181814,3.518125774910367,0.07494756112053365,1.3474998564194238
214,2.8447122324949703,74.97625621181814,3.516724155459874,0.07515123611276589,1.346158968118183
215,2.858005280310368,74.97625621181814,3.51220257387577,0.07544672540103688,1.3450967473810556
216,2.871298328125764,74.97625621181814,3.504911774491642,0.07581008768013973,1.3442960756892322
217,2.884591375941161,74.97625621181814,3.495273549484261,0.07621293996117515,1.3437289887283759
218,2.897884423756558,74.97625621181814,3.4837585959160142,0.07662563622803853,1.3433641787159116
219,2.911177471571956,74.97625621181814,3.4708716741689596,0.07702027023687498,1.3431734398935125
220,2.9244705193873526,74.97625621181814,3.457141592776242,0.07737310431811306,1.34313608688421
221,2.9377635672027496,74.97625621181814,3.4431125787270846,0.07766615943960853,1.3432408291059232
222,2.9510566150181465,74.97625621181814,3.4293332778374044,0.07788786992090768,1.3434851176888725
223,2.9643496628335435,74.97625621181814,3.416340530028602,0.07803287340410665,1.3438724878032169
224,2.977642710648941,74.97625621181814,3.4046368918577232,0.07810114079010877,1.3444086370047095
225,2.990935758464338,74.97625621181814,3.394663058996301,0.0780967359532188,1.3450968881679424
226,3.004228806279735,74.97625621181814,3.386768322212431,0.07802651894239782,1.3459337759735202
227,3.017521854095132,74.97625621181814,3.381183496271746,0.07789904988914251,1.3469057670187545
228,3.030814901910529,74.97625621181814,3.378001097885223,0.07772383286149416,1.3479879226094524
229,3.0441079497259262,74.97625621181814,3.3771668461808475,0.07751091852813197,1.3491446850544677
230,3.057400997541323,74.97625621181814,3.378484970443967,0.07727079112878024,1.350332490773445
231,3.07069404535672,74.97625621181814,3.3816376679898386,0.0770143988952276,1.351503677196551
232,3.083987093172117,74.97625621181814,3.3862167940812617,0.0767531600806389,1.3526110131984763
233,3.097280140987514,74.97625621181814,3.3917639421419463,0.07649879914855338,1.353612147913543
234,3.110573188802912,74.97625621181814,3.39781383924681,0.0762629300254195,1.3544733518979426
235,3.1238662366183085,74.97625621181814,3.403935528322793,0.07605638643017185,1.355172090097346
236,3.137159284433705,74.97625621181814,3.409766181455446,0.07588838145179928,1.3556981805056634
237,3.1504523322491025,74.97625621181814,3.4150337761054574,0.07576563970342388,1.3560535151508712
238,3.1637453800644995,74.97625621181814,3.419566970125923,0.07569167163180933,1.3562505168796417
239,3.1770384278798964,74.97625621181814,3.4232925162914367,0.07566634595734026,1.3563096527194236
240,3.190331475695294,74.97625621181814,3.426222109114579,0.07568586720236613,1.3562564103984738
241,3.203624523510691,74.97625621181814,3.4284317292537967,0.0757431948523457,1.356118166989711
242,3.216917571326088,74.97625621181814,3.430037214661844,0.07582886480797299,1.3559213432927242
243,3.2302106191414848,74.97625621181814,3.4311698008853573,0.07593209473640929,1.3556891555301545
244,3.2435036669568817,74.97625621181814,3.431954819154855,0.07604198891521186,1.3554401620567689
245,3.256796714772279,74.97625621181814,3.432495805367909,0.076148654262265,1.355187674405785
246,3.270089762587676,74.97625621181814,3.4328651394761565,0.07624409547076179,1.3549399773156152
247,3.283382810403073,74.97625621181814,3.4331012139231345,0.07632280895944107,1.3547011981195642
248,3.29667585821847,74.97625621181814,3.4332113748424287,0.07638202995668371,1.3544725947102454
249,3.309968906033867,74.97625621181814,3.4331795493156547,0.07642163415119918,1.354253999781739
250,3.323261953849264,74.97625621181814,3.4329770367474506,0.07644374698677367,1.3540451670440077
251,3.336555001664661,74.97625621181814,3.432574399524133,0.07645214800852201,1.35384680673597
252,3.3498480494800584,74.97625621181814,3.4319524449239305,0.07645157127283707,1.3536611636837692
253,3.3631410972954554,74.97625621181814,3.4311108937274857,0.07644699904868676,1.353492070892614
254,3.3764341451108524,74.97625621181814,3.430073850885233,0.07644302938450566,1.3533444952881737
255,3.3897271929262494,74.97625621181814,3.4288915386761087,0.07644337448125778,1.3532236709289835
256,3.4030202407416468,74.97625621181814,3.4276380860345497,0.07645052176187551,1.3531339810137717
257,3.416313288557044,74.97625621181814,3.426405487138063,0.07646556735806745,1.3530777964056877
258,3.4296063363724407,74.97625621181814,3.425294128333381,0.07648821489491316,1.3530544994276517
259,3.4428993841878377,74.97625621181814,3.424400549947211,0.07651692150510432,1.3530599133882077
260,3.4561924320032347,74.97625621181814,3.4238033762646056,0.07654916700103015,1.3530863192252327
261,3.469485479818632,74.97625621181814,3.423548625931546,0.07658181922642707,1.353123172301249
262,3.482778527634029,74.97625621181814,3.4236359012516426,0.07661156670797814,1.3531585393183716
263,3.496071575449426,74.97625621181814,3.4240072167259896,0.07663538707206284,1.353181165233835
264,3.509364623264823,74.97625621181814,3.4245404032437268,0.07665101530448162,1.3531829638949133
265,3.52265767108022,74.97625621181814,3.425049028431257,0.07665736991702161,1.3531616181118664
266,3.535950718895617,74.97625621181814,3.4252905103153104,0.0766548887606072,1.3531228919872516
267,3.5492437667110144,74.97625621181814,3.424983490537045,0.07664572200198583,1.3530822184270717
268,3.562536814526412,74.97625621181814,3.4238345407732234,0.07663373074763784,1.3530651437896848
269,3.5758298623418083,74.97625621181814,3.4215729433595747,0.07662424901114069,1.3531062998174863
270,3.5891229101572053,74.97625621181814,3.41799075191985,0.07662358632546881,1.3532467313692977
271,3.6024159579726023,74.97625621181814,3.4129838333726368,0.07663827869422207,1.3535296263608767
272,3.615709005788,74.97625621181814,3.4065884290320163,0.07667413479992272,1.353994748550989
273,3.6290020536033967,74.97625621181814,3.399007271398734,0.07673516793291386,1.3546721299051807
274,3.6422951014187936,74.97625621181814,3.3906197962533144,0.076822545165312,1.3555757948889073
275,3.655588149234191,74.97625621181814,3.381972573121531,0.07693371549815592,1.3566984198416974
276,3.668881197049588,74.97625621181814,3.3737479558947,0.07706188934413521,1.3580078378982146
277,3.682174244864985,74.97625621181814,3.3667109676537206,0.07719602524620095,1.3594461603651375
278,3.695467292680382,74.97625621181814,3.3616381127923565,0.07732143200611812,1.3609319957466444
279,3.708760340495779,74.97625621181814,3.359236508186425,0.07742101493816891,1.3623658381319912
280,3.722053388311176,74.97625621181814,3.3600641330732284,0.07747709227834468,1.363638253167729
281,3.735346436126573,74.97625621181814,3.3644615962431974,0.07747360969370756,1.3646400818516304
282,3.74863948394197,74.97625621181814,3.3725043897164935,0.07739850406828322,1.3652735055254976
283,3.7619325317573673,74.97625621181814,3.383982324183073,0.07724589468180117,1.3654625425383116
284,3.775225579572764,74.97625621181814,3.39840935286691,0.07701772988318625,1.3651615385307003
285,3.788518627388161,74.97625621181814,3.415062811285381,0.07672455354696989,1.3643604807400247
286,3.8018116752035582,74.97625621181814,3.4330470096596057,0.07638517940462006,1.3630863994527251
287,3.815104723018955,74.97625621181814,3.451372811307054,0.07602522244178371,1.3614006506715932
288,3.8283977708343526,74.97625621181814,3.469042886072902,0.07567460972099774,1.3593924499367065
289,3.8416908186497496,74.97625621181814,3.4851320660887355,0.07536436206532007,1.3571695574779996
290,3.8549838664651466,74.97625621181814,3.498853666538127,0.07512307228924486,1.354847409305787
291,3.868276914280544,74.97625621181814,3.5096054347663106,0.07497357894296829,1.3525381809236476
292,3.881569962095941,74.97625621181814,3.5169923696521077,0.07493032861322615,1.3503412259926184
293,3.8948630099113375,74.97625621181814,3.520827007464843,0.07499781014899864,1.3483360583045023
294,3.908156057726735,74.97625621181814,3.5211103389918152,0.07517024845980659,1.3465785904582381
295,3.921449105542132,74.97625621181814,3.518000151042765,0.0754325541595023,1.3451007897320468
296,3.934742153357529,74.97625621181814,3.51177758814245,0.07576237280428975,1.3439133624453745
297,3.948035201172926,74.97625621181814,3.502820443300671,0.07613291651776616,1.343010631626047
298,3.961328248988323,74.97625621181814,3.4915837309226863,0.07651612100574394,1.3423765043284632
299,3.97462129680372,74.97625621181814,3.4785842754908103,0.07688563357856909,1.3419903709132295
300,3.987914344619117,74.97625621181814,3.464387277628182,0.07721920834958003,1.3418319318704142
301,4.001207392434514,74.97625621181814,3.4495929503223843,0.07750022535913696,1.341884262620761
302,4.014500440249911,74.97625621181814,3.4348203081966,0.07771822994632936,1.3421348362809948
303,4.027793488065308,74.97625621181814,3.4206855186828182,0.07786857265598844,1.3425746463344832
304,4.041086535880705,74.97625621181814,3.407773821972686,0.07795138079198259,1.3431958955372054
305,4.054379583696102,74.97625621181814,3.396606169179193,0.07797018222342476,1.3439888952099754
306,4.067672631511499,74.97625621181814,3.3876038428683,0.07793052201981307,1.344938922645702
307,4.080965679326897,74.97625621181814,3.3810558534187405,0.07783886430604058,1.3460238074839084
308,4.094258727142294,74.97625621181814,3.3770944602992476,0.07770195583614962,1.3472128438871467
309,4.107551774957691,74.97625621181814,3.375683583301528,0.07752667448683734,1.3484672948143233
310,4.120844822773088,74.97625621181814,3.3766232299521013,0.07732025320637927,1.3497424261722124
311,4.134137870588485,74.97625621181814,3.37957068197734,0.07709068753977233,1.350990744976564
312,4.147430918403882,74.97625621181814,3.384076523192034,0.0768471028178336,1.3521659262195842
313,4.160723966219279,74.97625621181814,3.389631178296641,0.07659987845700413,1.3532268225307766
314,4.174017014034676,74.97625621181814,3.3957159379057598,0.07636039836543226,1.3541409678724574
315,4.187310061850073,74.97625621181814,3.4018517886161215,0.07614039858529169,1.3548870961802404
316,4.20060310966547,74.97625621181814,3.4076398516089736,0.07595099014050793,1.3554563691942958
317,4.213896157480867,74.97625621181814,3.41278873382001,0.07580152211696937,1.3558522098378711
318,4.2271892052962645,74.97625621181814,3.4171262960640223,0.07569849853527365,1.3560888350738856
319,4.2404822531116615,74.97625621181814,3.420595812005642,0.07564476338957885,1.3561887482569706
320,4.2537753009270585,74.97625621181814,3.4232387863786036,0.07563912284165734,1.3561795672184038
321,4.267068348742455,74.97625621181814,3.4251684375954015,0.07567649516274533,1.356090621215576
322,4.280361396557852,74.97625621181814,3.4265387341653395,0.07574858505876957,1.3559497463365677
323,4.293654444373249,74.97625621181814,3.4275138426522402,0.07584497525894306,1.3557806511858828
324,4.306947492188646,74.97625621181814,3.4282421368861247,0.07595443625423633,1.355601124726662
325,4.320240540004043,74.97625621181814,3.4288377481532897,0.07606623046228377,1.355422231836583
326,4.33353358781944,74.97625621181814,3.4293710910826505,0.07617123220454367,1.3552485066820879
327,4.346826635634837,74.97625621181814,3.4298681730415117,0.0762627358544453,1.3550790259142764
328,4.360119683450235,74.97625621181814,3.430317166688843,0.07633686793801696,1.354909137195236
329,4.373412731265632,74.97625621181814,3.4306798781862518,0.07639258248819865,1.3547325449364447
330,4.386705779081029,74.97625621181814,3.430905540235077,0.07643129011182584,1.3545434221747625
331,4.399998826896426,74.97625621181814,3.4309447280988725,0.07645622305509095,1.3543382289228145
332,4.413291874711823,74.97625621181814,3.4307615871717894,0.07647166383652251,1.3541169717781534
333,4.42658492252722,74.97625621181814,3.4303428346772136,0.07648216512198405,1.353883730007698
334,4.439877970342617,74.97625621181814,3.4297026055418396,0.07649186794444846,1.353646387261098
335,4.453171018158014,74.97625621181814,3.4288830437349738,0.07650399170652136,1.3534156293093877
336,4.466464065973411,74.97625621181814,3.4279510780272404,0.07652053103135571,1.3532033796406406
337,4.479757113788808,74.97625621181814,3.4269920193548047,0.07654215901388771,1.3530209312994173
338,4.493050161604205,74.97625621181814,3.4261006656578257,0.07656830928097856,1.3528770840924054
339,4.506343209419603,74.97625621181814,3.425370577192975,0.07659739336027842,1.3527766051904226
340,4.519636257235,74.97625621181814,3.4248821547180617,0.07662710534300943,1.3527192969826891
341,4.532929305050397,74.97625621181814,3.424690187634973,0.07665477053814224,1.3526998818348908
342,4.546222352865794,74.97625621181814,3.4248116828527717,0.07667770496982539,1.3527088062723072
343,4.559515400681191,74.97625621181814,3.425215039530075,0.07669356371435093,1.3527339380405725
344,4.572808448496588,74.97625621181814,3.425811951266458,0.07670066415244634,1.3527629927931428
345,4.586101496311985,74.97625621181814,3.4264537001801574,0.07669827255759303,1.3527863991516325
346,4.599394544127382,74.97625621181814,3.426933629065061,0.07668683845315098,1.3528002081566084
347,4.6126875919427786,74.97625621181814,3.426997404861462,0.07666815252412836,1.352808590777626
348,4.625980639758176,74.97625621181814,3.426362113647277,0.07664539415945318,1.3528254576371674
349,4.6392736875735725,74.97625621181814,3.424744214279888,0.07662302862394534,1.352874787395116
350,4.65256673538897,74.97625621181814,3.4218949815541344,0.07660651610195182,1.3529893686342995
351,4.665859783204367,74.97625621181814,3.4176404604950457,0.07660180891015597,1.353207842045535
352,4.679152831019764,74.97625621181814,3.4119214053461264,0.07661464028976653,1.3535701629669536
353,4.692445878835161,74.97625621181814,3.4048275371190577,0.076649646590394,1.354111864536782
354,4.705738926650558,74.97625621181814,3.3966200641344315,0.07670940925939473,1.3548577524832504
355,4.719031974465955,74.97625621181814,3.387737113054627,0.07679354572213512,1.355815859051754
356,4.732325022281352,74.97625621181814,3.3787785541043664,0.07689800885266848,1.3569725802484407
357,4.745618070096749,74.97625621181814,3.370468783106149,0.07701476277771112,1.3582898787055493
358,4.758911117912146,74.97625621181814,3.363598133044782,0.07713197996451843,1.3597052362669122
359,4.772204165727543,74.97625621181814,3.358947360636241,0.07723484549389402,1.3611346661241115
360,4.78549721354294,74.97625621181814,3.357204408014933,0.07730696351559424,1.3624786013016175
361,4.798790261358338,74.97625621181814,3.3588848630559927,0.07733226594771145,1.3636301931193189
362,4.812083309173735,74.97625621181814,3.3642667386729275,0.07729723928713625,1.3644855137360756
363,4.825376356989132,74.97625621181814,3.3733483396332504,0.07719318629193794,1.3649547009941827
364,4.838669404804529,74.97625621181814,3.385835337407975,0.07701814852510898,1.3649723027896306
365,4.851962452619926,74.97625621181814,3.401159366440182,0.07677811461481635,1.3645050207042466
366,4.865255500435323,74.97625621181814,3.4185260636697747,0.07648723624093866,1.3635557451559457
367,4.87854854825072,74.97625621181814,3.4369863239674827,0.07616691660731034,1.3621634384673666
368,4.891841596066117,74.97625621181814,3.4555213589751865,0.07584380365708922,1.3603989402432393
369,4.905134643881514,74.97625621181814,3.473130493860351,0.07554690200956286,1.358357311459769
370,4.918427691696911,74.97625621181814,3.4889108020482453,0.07530418157564825,1.3561478188882943
371,4.931720739512309,74.97625621181814,3.5021196074898766,0.07513918039634081,1.3538829752352637
372,4.945013787327706,74.97625621181814,3.5122141579220565,0.07506814547144329,1.3516681372487265
373,4.958306835143103,74.97625621181814,3.518866714030401,0.07509815074737754,1.3495930080767997
374,4.9715998829585,74.97625621181814,3.521956869970366,0.07522639315478057,1.3477260217429592
375,4.9848929307738965,74.97625621181814,3.5215455143433485,0.07544070364784757,1.346112075255113
376,4.9981859785892935,74.97625621181814,3.5178380502650928,0.07572124898897335,1.3447735117148145
377,5.0114790264046905,74.97625621181814,3.5111477392775914,0.0760432283802084,1.3437137475417165
378,5.024772074220087,74.97625621181814,3.5018674972430412,0.07638011880913466,1.3429225681560788
379,5.038065122035484,74.97625621181814,3.490450822905146,0.0767069079681586,1.3423819492244986
380,5.051358169850881,74.97625621181814,3.477398599280919,0.07700279714758355,1.3420713138137756
381,5.064651217666278,74.97625621181814,3.4632491877182336,0.07725298559793771,1.3419713870223917
382,5.077944265481676,74.97625621181814,3.4485691538417234,0.07744933406660377,1.342066198233398
383,5.091237313297073,74.97625621181814,3.433941100690177,0.07758991947179943,1.3423432483525684
384,5.10453036111247,74.97625621181814,3.4199456021619827,0.07767769326962093,1.342792301680922
385,5.117823408927867,74.97625621181814,3.4071360071896564,0.07771860467531766,1.3434033806264214
386,5.131116456743264,74.97625621181814,3.3960071914893293,0.07771961889700969,1.344164329034962
387,5.144409504558661,74.97625621181814,3.3869615730219165,0.07768704013573699,1.3450583850159277
388,5.157702552374058,74.97625621181814,3.3802773084885924,0.077625447815642,1.3460625690012629
389,5.170995600189455,74.97625621181814,3.376084156637977,0.0775373958270351,1.3471475384529894
390,5.184288648004852,74.97625621181814,3.3743518696374006,0.07742384502005649,1.3482789283644485
391,5.197581695820249,74.97625621181814,3.3748942608939125,0.07728514041447694,1.3494197767005545
392,5.210874743635646,74.97625621181814,3.3773896384471036,0.07712223887188006,1.3505335116148551
393,5.224167791451044,74.97625621181814,3.381415590218734,0.07693785715008378,1.3515869519421702
394,5.237460839266441,74.97625621181814,3.3864937123623604,0.07673724678035317,1.3525528272051484
395,5.250753887081838,74.97625621181814,3.3921382634887087,0.07652839881280127,1.3534114598597429
396,5.264046934897235,74.97625621181814,3.3979022068941735,0.07632161371802841,1.354151433842841
397,5.277339982712632,74.97625621181814,3.4034147493677627,0.07612850972201657,1.354769260398011
398,5.290633030528029,74.97625621181814,3.4084061190676547,0.07596065805692453,1.3552682092592723
399,5.303926078343426,74.97625621181814,3.412717468226651,0.07582810437701076,1.3556565777949656
400,5.317219126158823,74.97625621181814,3.4162960102138342,0.07573805087623943,1.3559457142925464
401,5.33051217397422,74.97625621181814,3.4191777050340026,0.07569393424774523,1.356148098477003
402,5.343805221789617,74.97625621181814,3.4214616314884934,0.07569505268202881,1.3562757254146847
403,5.357098269605014,74.97625621181814,3.4232809608215136,0.07573678954728719,1.356338955137016
404,5.370391317420411,74.97625621181814,3.4247751378501294,0.07581136978687117,1.3563458972016305
405,5.383684365235808,74.97625621181814,3.4260669532653307,0.07590898934721617,1.3563023126697102
406,5.396977413051205,74.97625621181814,3.4272469132637107,0.07601910756596744,1.3562119476701255
407,5.410270460866602,74.97625621181814,3.4283658444080407,0.07613169388410075,1.3560771700385599
408,5.423563508681999,74.97625621181814,3.429435281728253,0.07623825213413182,1.3558997651083275
409,5.436856556497396,74.97625621181814,3.4304341085980057,0.07633249759908806,1.355681754852574
410,5.450149604312793,74.97625621181814,3.4313192739376026,0.07641063328677805,1.3554261284361064
411,5.46344265212819,74.97625621181814,3.4320382329934667,0.07647124715791591,1.3551374023595741
412,5.476735699943587,74.97625621181814,3.432540959394676,0.07651491239392391,1.354821956512684
413,5.490028747758984,74.97625621181814,3.432789844588927,0.07654360863852012,1.3544881140057965
414,5.503321795574381,74.97625621181814,3.4327665590288987,0.07656009087186734,1.3541459478236442
415,5.516614843389779,74.97625621181814,3.432475820399769,0.07656731685636711,1.3538068104845435
416,5.529907891205176,74.97625621181814,3.4319463915053925,0.0765680111089256,1.353482600244487
417,5.543200939020573,74.97625621181814,3.431229473595369,0.07656440255740306,1.3531848041000085
418,5.55649398683597,74.97625621181814,3.4303946469238964,0.0765581338487571,1.3529233952175648
419,5.569787034651367,74.97625621181814,3.4295237081989973,0.07655031007958109,1.3527057064059023
420,5.583080082466764,74.97625621181814,3.4287027552537355,0.07654163765051562,1.3525354427046061
421,5.596373130282161,74.97625621181814,3.428012739697279,0.07653260060863046,1.3524120228004393
422,5.609666178097558,74.97625621181814,3.4275187096678743,0.07652362987227712,1.3523304385167358
423,5.622959225912955,74.97625621181814,3.4272581592778337,0.0765152358837181,1.352281785179518
424,5.636252273728352,74.97625621181814,3.4272292700516127,0.07650809259979673,1.352254540522557
425,5.64954532154375,74.97625621181814,3.4273803176917883,0.07650307580094116,1.3522365607568272
426,5.662838369359147,74.97625621181814,3.4276020165977727,0.07650126810408778,1.3522176317504782
427,5.676131417174544,74.97625621181814,3.427724938863787,0.07650394501366078,1.3521922794374759
428,5.689424464989941,74.97625621181814,3.4275242123607392,0.07651255084041518,1.352162429393985
429,5.702717512805338,74.97625621181814,3.426733330120718,0.07652866220965036,1.352139435485175
430,5.716010560620735,74.97625621181814,3.4250680043976565,0.07655392370145052,1.3521449942189494
431,5.729303608436132,74.97625621181814,3.422259584318954,0.07658992965045473,1.3522105410257734
432,5.7425966562515285,74.97625621181814,3.4180957619676167,0.07663802331435321,1.3523748913975013
433,5.7558897040669255,74.97625621181814,3.4124643846425737,0.07669899354279117,1.3526801318110546
434,5.769182751882322,74.97625621181814,3.405394540616147,0.07677267135108339,1.353166053127936
435,5.782475799697719,74.97625621181814,3.3970881071525394,0.07685746239116815,1.3538637082017098
436,5.795768847513117,74.97625621181814,3.387935007317212,0.07694989005574276,1.3547889131987263
437,5.809061895328514,74.97625621181814,3.3785067826573205,0.07704425806354766,1.3559366477698194
438,5.822354943143911,74.97625621181814,3.3695257094441735,0.07713255942112839,1.3572773041397161
439,5.835647990959308,74.97625621181814,3.36180984119576,0.07720474915547726,1.3587555707462247
440,5.848941038774705,74.97625621181814,3.3561976025152336,0.07724945585159543,1.3602924215703234
441,5.862234086590102,74.97625621181814,3.3534594551475876,0.07725514325487122,1.3617902396978165
442,5.875527134405499,74.97625621181814,3.354207951345764,0.07721165551044666,1.3631406053185466
443,5.888820182220896,74.97625621181814,3.358818883901475,0.07711197564403545,1.3642339458914383
444,5.902113230036293,74.97625621181814,3.367374855738952,0.07695391948049041,1.3649701316382892
445,5.91540627785169,74.97625621181814,3.379639674295775,0.07674143844880121,1.3652688591075195
446,5.928699325667087,74.97625621181814,3.3950679568717987,0.07648523237388638,1.3650783465430312
447,5.941992373482485,74.97625621181814,3.412849418950215,0.0762024547195509,1.3643810190629768
448,5.955285421297882,74.97625621181814,3.4319823157162244,0.075915419740564,1.3631954675457583
449,5.968578469113279,74.97625621181814,3.451366337259094,0.0756493856083065,1.3615745556604204
450,5.981871516928676,74.97625621181814,3.4699026570205227,0.07542966172638185,1.3596000242048443
451,5.995164564744073,74.97625621181814,3.486588257472903,0.07527844556242384,1.3573743692012747
452,6.00845761255947,74.97625621181814,3.5005931808677513,0.07521189850459008,1.3550110943448492
453,6.021750660374867,74.97625621181814,3.5113126192209694,0.0752379284288561,1.3526245972986708
454,6.035043708190264,74.97625621181814,3.5183900844557296,0.07535496346405075,1.350320922507032
455,6.048336756005661,74.97625621181814,3.5217120870016436,0.07555188489344651,1.3481904081143838
456,6.061629803821058,74.97625621181814,3.521378109617005,0.07580925447062961,1.3463029081916666
457,6.074922851636455,74.97625621181814,3.51765437883021,0.07610178554602001,1.3447058439114261
458,6.0882158994518525,74.97625621181814,3.510925124947876,0.07640170048192485,1.3434249025557656
459,6.1015089472672495,74.97625621181814,3.5016525838305146,0.076682423899633,1.3424668357399616
460,6.114801995082646,74.97625621181814,3.490347602641836,0.07692202063910214,1.3418235683491158
461,6.128095042898043,74.97625621181814,3.4775481175863314,0.07710583910393705,1.3414767510343941
462,6.14138809071344,74.97625621181814,3.463804042965808,0.07722795453656875,1.3414019738006768
463,6.154681138528837,74.97625621181814,3.4496668577331335,0.07729120723399176,1.3415720753351805
464,6.167974186344234,74.97625621181814,3.4356803928412716,0.07730586407662457,1.341959298285046
465,6.181267234159631,74.97625621181814,3.4223690730406013,0.0772871711876484,1.3425363781083512
466,6.194560281975028,74.97625621181814,3.4102211731476495,0.07725226745263371,1.3432767701542376
467,6.207853329790425,74.97625621181814,3.399666737594861,0.0772170218843931,1.3441541055487825
468,6.221146377605823,74.97625621181814,3.391052081251431,0.07719332612988172,1.3451411151225556
469,6.23443942542122,74.97625621181814,3.3846146239118777,0.07718726171975156,1.3462086581057375
470,6.247732473236617,74.97625621181814,3.3804627587925253,0.07719839370804511,1.3473254602592373
471,6.261025521052014,74.97625621181814,3.378565289978885,0.0772202458983853,1.3484587208517296
472,6.274318568867411,74.97625621181814,3.378753730904763,0.07724182575011125,1.3495754401612188
473,6.287611616682808,74.97625621181814,3.3807387106644837,0.07724989645163778,1.3506442141242505
474,6.300904664498205,74.97625621181814,3.3841393305296448,0.07723156687890691,1.351637181286063
475,6.314197712313602,74.97625621181814,3.3885220571086236,0.07717673423428788,1.3525317884300565
476,6.327490760128999,74.97625621181814,3.3934440906664958,0.0770799722128545,1.3533120842216013
477,6.340783807944396,74.97625621181814,3.398495422229308,0.07694158115507123,1.3539693423087673
478,6.354076855759793,74.97625621181814,3.4033341021197283,0.0767676765343555,1.3545019369299203
479,6.367369903575191,74.97625621181814,3.407710480738048,0.07656935889045273,1.354914520286228
480,6.380662951390588,74.97625621181814,3.4114780665524482,0.07636115393068696,1.3552166583480478
481,6.393955999205985,74.97625621181814,3.4145907877043933,0.0761590139700511,1.3554211526309825
482,6.407249047021382,74.97625621181814,3.4170884455468076,0.07597821833978322,1.3555423007710004
483,6.420542094836779,74.97625621181814,3.4190736750382804,0.07583149839777181,1.3555943291556132
484,6.433835142652176,74.97625621181814,3.4206845212811103,0.075727649395419,1.3555901757623003
485,6.447128190467573,74.97625621181814,3.4220667645184104,0.07567079137615149,1.3555407256511514
486,6.4604212382829695,74.97625621181814,3.423349622099976,0.07566032425379182,1.355454521692894
487,6.473714286098367,74.97625621181814,3.42462760448703,0.07569150920628887,1.355337903048476
488,6.487007333913764,74.97625621181814,3.425950117379636,0.0757565167034433,1.3551954724618027
489,6.5003003817291605,74.97625621181814,3.4273190960781137,0.07584572485473944,1.3550307635606327
490,6.513593429544558,74.97625621181814,3.4286938602829995,0.0759490414411397,1.354846969504726
491,6.526886477359955,74.97625621181814,3.430001605307317,0.07605705615550447,1.3546476007961075
492,6.540179525175352,74.97625621181814,3.431151488899336,0.07616188896672833,1.354436959495538
493,6.553472572990749,74.97625621181814,3.4320500853322202,0.0762576710602632,1.3542203475811299
494,6.566765620806146,74.97625621181814,3.43261603885708,0.07634066565320743,1.3540039677628715
495,6.580058668621543,74.97625621181814,3.4327922869443235,0.07640909382593712,1.3537945237691338
496,6.59335171643694,74.97625621181814,3.4325551087076884,0.07646276494603395,1.3535985790720908
497,6.606644764252337,74.97625621181814,3.4319195666480655,0.07650261987140083,1.353421779962385
498,6.619937812067734,74.97625621181814,3.4309406189021256,0.07653028165754491,1.3532680809478206
499,6.633230859883131,74.97625621181814,3.429709399106977,0.07654768058237317,1.3531391195784988
500,6.646523907698528,74.97625621181814,3.4283449122681104,0.07655678718515066,1.3530338711302103
501,6.659816955513926,74.97625621181814,3.426981852817076,0.07655945706017099,1.3529486748948947
502,6.673110003329323,74.97625621181814,3.4257554004929345,0.07655737001341847,1.3528776721784168
503,6.68640305114472,74.97625621181814,3.42478403316644,0.0765520360164974,1.352813642232954
504,6.699696098960117,74.97625621181814,3.4241516622153547,0.0765448400243039,1.3527491747656886
505,6.712989146775514,74.97625621181814,3.4238907112308765,0.07653710376113325,1.3526780802633234
506,6.726282194590911,74.97625621181814,3.4239680819993445,0.07653015076048741,1.3525969114913308
507,6.739575242406308,74.97625621181814,3.424276199528202,0.07652536742589126,1.3525064480243751
508,6.752868290221705,74.97625621181814,3.424631388261373,0.07652425515227954,1.352412977736086
509,6.766161338037102,74.97625621181814,3.424781581547984,0.07652846588536945,1.3523291946626352
510,6.779454385852499,74.97625621181814,3.424424703295998,0.07653980703841103,1.352274525160207
511,6.792747433667897,74.97625621181814,3.4232379388992715,0.07656019421092551,1.3522747010322809
512,6.8060404814832935,74.97625621181814,3.420916577734659,0.07659152556790268,1.3523604289019815
513,6.8193335292986905,74.97625621181814,3.4172193216626234,0.07663545421758775,1.3525650691528521
514,6.832626577114088,74.97625621181814,3.4120151859606094,0.07669304773109686,1.352921341470083
515,6.8459196249294845,74.97625621181814,3.4053257329077598,0.07676434807669386,1.3534572161264906
516,6.8592126727448814,74.97625621181814,3.3973557512915447,0.07684787831272141,1.3541913183098486
517,6.872505720560278,74.97625621181814,3.3885060140592764,0.07694017823406443,1.3551283417124944
518,6.885798768375675,74.97625621181814,3.3793635152535746,0.07703548046708393,1.3562551012792032
519,6.899091816191072,74.97625621181814,3.3706668371280264,0.07712565076236122,1.3575379107144685
520,6.912384864006469,74.97625621181814,3.3632468205218107,0.07720050157173562,1.358921912318979
521,6.925677911821866,74.97625621181814,3.3579469015321184,0.07724854251441964,1.360332771045959
522,6.938970959637264,74.97625621181814,3.3555325926739306,0.07725816563185621,1.361680795305576
523,6.952264007452661,74.97625621181814,3.356602301869584,0.07721918589030241,1.3628673322775726
524,6.965557055268058,74.97625621181814,3.3615114045000483,0.07712456149356055,1.363793227850394
525,6.978850103083455,74.97625621181814,3.3703198949007525,0.0769720252947517,1.3643686700185256
526,6.992143150898852,74.97625621181814,3.3827712383593616,0.07676531941790206,1.3645229450006593
527,7.005436198714249,74.97625621181814,3.3983059395121837,0.07651475523102318,1.364212465002331
528,7.018729246529646,74.97625621181814,3.41610846882771,0.07623690163149857,1.3634259224376257
529,7.032022294345043,74.97625621181814,3.4351814478267833,0.07595332777127434,1.3621859296300798
530,7.04531534216044,74.97625621181814,3.454437205666496,0.07568848209949648,1.3605469284398064
531,7.058608389975837,74.97625621181814,3.4727946473484788,0.07546695121851468,1.3585896557729027
532,7.071901437791234,74.97625621181814,3.4892691822482753,0.07531048440762364,1.3564129524176314
533,7.085194485606632,74.97625621181814,3.5030452491934074,0.0752352597410626,1.354124086788279
534,7.098487533422029,74.97625621181814,3.5135243491874664,0.0752498227439314,1.3518289582085674
535,7.111780581237426,74.97625621181814,3.520345770761532,0.07535395365440496,1.3496235055026655
536,7.125073629052823,74.97625621181814,3.523381348242371,0.07553860150482684,1.3475873814608612
537,7.13836667686822,74.97625621181814,3.5227088958513075,0.07578698145342508,1.3457805128655975
538,7.151659724683617,74.97625621181814,3.518572259734928,0.07607676011484052,1.3442426358901223
539,7.164952772499014,74.97625621181814,3.511338654981582,0.07638298379803331,1.342995382305691
540,7.178245820314411,74.97625621181814,3.5014620017161286,0.07668124600870001,1.3420460925066815
541,7.191538868129808,74.97625621181814,3.489454921409538,0.07695057569044352,1.3413923195965658
542,7.204831915945205,74.97625621181814,3.475868287534696,0.0771755992149102,1.3410259955195534
543,7.2181249637606015,74.97625621181814,3.461276644416497,0.077347671526381,1.3409364412272382
544,7.231418011575999,74.97625621181814,3.4462668913447456,0.07746486513278122,1.3411117629421465
545,7.244711059391396,74.97625621181814,3.4314265284799803,0.07753091326133454,1.3415386197425687
546,7.258004107206793,74.97625621181814,3.4173280552506524,0.07755339028800984,1.342200776119966
547,7.27129715502219,74.97625621181814,3.404507670352031,0.07754154195605878,1.3430770527892804
548,7.284590202837587,74.97625621181814,3.3934386051711445,0.0775042134367157,1.344139230070563
549,7.297883250652984,74.97625621181814,3.384501639671118,0.07744826036070397,1.3453505012421345
550,7.311176298468381,74.97625621181814,3.3779570300518142,0.0773776990653845,1.3466652178562581
551,7.324469346283778,74.97625621181814,3.3739228120310627,0.0772936877097242,1.3480304357516488
552,7.337762394099175,74.97625621181814,3.3723640516510747,0.07719525437689831,1.3493892082233159
553,7.351055441914572,74.97625621181814,3.3730961735989555,0.07708053864931991,1.3506851333631202
554,7.36434848972997,74.97625621181814,3.3758033104102556,0.07694822287853939,1.3518674347164021
555,7.377641537545367,74.97625621181814,3.3800701451612016,0.07679881280151538,1.3528957498864838
556,7.390934585360764,74.97625621181814,3.3854234740166844,0.0766354813089824,1.3537438330400013
557,7.404227633176161,74.97625621181814,3.3913781531337004,0.07646429734261218,1.3544015516144692
558,7.417520680991558,74.97625621181814,3.397481499550482,0.07629379806419771,1.354874839904978
559,7.430813728806955,74.97625621181814,3.403350546359873,0.0761339975861478,1.3551836094164262
560,7.444106776622352,74.97625621181814,3.4086977023098712,0.07599503358686195,1.3553579462569567
561,7.457399824437749,74.97625621181814,3.4133423876118996,0.07588571546997482,1.3554331928536039
562,7.470692872253146,74.97625621181814,3.417208705139766,0.07581224593519588,1.355444673005471
563,7.483985920068543,74.97625621181814,3.4203112781115514,0.07577734419954908,1.3554228542275224
564,7.49727896788394,74.97625621181814,3.422732699224205,0.07577991566762501,1.3553896496220719
565,7.510572015699338,74.97625621181814,3.4245967411529104,0.07581530787683355,1.3553563628400573
566,7.523865063514735,74.97625621181814,3.4260415471811845,0.07587608491537463,1.355323508887979
567,7.537158111330132,74.97625621181814,3.4271964220665163,0.075953162613017,1.355282444780926
568,7.550451159145529,74.97625621181814,3.4281647667868196,0.07603709624411605,1.3552184643251801
569,7.563744206960925,74.97625621181814,3.4290144094423147,0.07611930793091787,1.3551147935849275
570,7.577037254776322,74.97625621181814,3.4297753227537298,0.07619307122892614,1.3549568002943069
571,7.590330302591719,74.97625621181814,3.4304436793232482,0.07625412581647449,1.3547357184734594
572,7.6036233504071165,74.97625621181814,3.4309904968731737,0.07630086825666099,1.3544512874232806
573,7.616916398222513,74.97625621181814,3.4313727746874516,0.07633414014999579,1.3541128930712025
574,7.63020944603791,74.97625621181814,3.431545005243877,0.07635669661091024,1.3537390464008965
575,7.643502493853307,74.97625621181814,3.431469446415627,0.07637247674683117,1.3533552978200958
576,7.656795541668705,74.97625621181814,3.431124407524317,0.07638581069860019,1.3529909267003914
577,7.670088589484102,74.97625621181814,3.43051018241138,0.07640068687213293,1.3526749269248999
578,7.683381637299499,74.97625621181814,3.4296520863262843,0.07642017422283431,1.35243190784646
579,7.696674685114896,74.97625621181814,3.4286002729134037,0.07644605581246446,1.3522785344821195
580,7.709967732930293,74.97625621181814,3.427426618214511,0.07647868952635864,1.3522210434090074
581,7.72326078074569,74.97625621181814,3.4262192218288403,0.07651707681005328,1.3522542064584422
582,7.736553828561087,74.97625621181814,3.425074985315871,0.0765590954463925,1.3523618982067667
583,7.749846876376484,74.97625621181814,3.4240906138907707,0.0766018400610108,1.352519188401625
584,7.763139924191881,74.97625621181814,3.4233523394889582,0.07664201387947733,1.3526956633504097
585,7.776432972007278,74.97625621181814,3.4229247151159914,0.07667632458725664,1.3528595152276723
586,7.789726019822675,74.97625621181814,3.422839019767775,0.07670185165355038,1.352981850563232
587,7.803019067638073,74.97625621181814,3.4230821368748985,0.0767163672652357,1.353040669224173
588,7.81631211545347,74.97625621181814,3.423587178656016,0.07671860375502117,1.3530240454787679
589,7.829605163268867,74.97625621181814,3.4242275281212864,0.07670846439825763,1.3529321796719131
590,7.842898211084264,74.97625621181814,3.4248162289446427,0.0766871712393775,1.352778149726336
591,7.856191258899661,74.97625621181814,3.425112628827736,0.07665733504015283,1.3525873432665854
592,7.869484306715058,74.97625621181814,3.424837753591347,0.0766229221978689,1.3523956698185067
593,7.882777354530455,74.97625621181814,3.423698994503029,0.07658908622384941,1.3522467288301985
594,7.896070402345852,74.97625621181814,3.4214233587345797,0.07656183171224186,1.3521881484124991
595,7.909363450161249,74.97625621181814,3.4177969025823884,0.07654749017013197,1.3522673272259462
596,7.922656497976646,74.97625621181814,3.412706289379954,0.07655201106323964,1.3525268266653563
597,7.9359495457920435,74.97625621181814,3.4061770284945463,0.07658010658925701,1.3529996873287624
598,7.94924259360744,74.97625621181814,3.398402217317065,0.07663433047349812,1.3537049882988605
599,7.962535641422837,74.97625621181814,3.3897559194513884,0.07671421193608464,1.3546440234818915
600,7.975828689238234,74.97625621181814,3.38078677699229,0.07681559624373129,1.3557975181366593
601,7.989121737053631,74.97625621181814,3.372189206915213,0.0769303528041135,1.3571243225229366
602,8.002414784869028,74.97625621181814,3.364751444629603,0.07704659225364255,1.3585619697200997
603,8.015707832684425,74.97625621181814,3.359283612915241,0.07714948131350167,1.3600293237680585
604,8.029000880499822,74.97625621181814,3.356534227222002,0.07722266070446017,1.3614312820709016
605,8.04229392831522,74.97625621181814,3.3571063156382164,0.07725016742103274,1.362665379803057
606,8.055586976130616,74.97625621181814,3.3613840469730834,0.07721865493123983,1.3636301711253243
607,8.068880023946013,74.97625621181814,3.3694794594018354,0.07711961355607737,1.3642348368284574
608,8.08217307176141,74.97625621181814,3.3812067258477723,0.07695124052315128,1.3644086772891497
609,8.095466119576807,74.97625621181814,3.3960878821958715,0.07671961438016049,1.364108942086488
610,8.108759167392204,74.97625621181814,3.4133896099416408,0.07643889973997912,1.3633258861895812
611,8.122052215207601,74.97625621181814,3.432186335506995,0.07613043953558025,1.3620843854825602
612,8.135345263022998,74.97625621181814,3.451441334629916,0.07582076440651908,1.3604418233321318
613,8.148638310838397,74.97625621181814,3.4700953348539607,0.07553873353747748,1.3584824436177636
614,8.161931358653794,74.97625621181814,3.487151652677422,0.07531218303862328,1.3563088811469997
615,8.17522440646919,74.97625621181814,3.501748217662812,0.07516456752965987,1.3540320051142054
616,8.188517454284588,74.97625621181814,3.5132095950729165,0.07511211201580881,1.351760461169565
617,8.201810502099985,74.97625621181814,3.521075723616812,0.0751619004500643,1.349591319099494
618,8.215103549915382,74.97625621181814,3.525107539913694,0.0753111307875408,1.3476030185401624
619,8.228396597730779,74.97625621181814,3.525272371507228,0.07554759087044406,1.3458513934819618
620,8.241689645546176,74.97625621181814,3.521715561633914,0.0758512878045869,1.3443690256472556
621,8.254982693361573,74.97625621181814,3.5147285812219873,0.07619699618777899,1.343167627929377
622,8.26827574117697,74.97625621181814,3.504721813166913,0.0765573074729301,1.3422426940013168
623,8.281568788992367,74.97625621181814,3.492202856548364,0.07690568669369026,1.3415793509084006
624,8.294861836807764,74.97625621181814,3.477757579833947,0.07721908628111251,1.3411582634001389
625,8.30815488462316,74.97625621181814,3.462032139385732,0.07747978358751172,1.3409605669399893
626,8.321447932438558,74.97625621181814,3.4457142244757413,0.07767627236188329,1.340971113176342
627,8.334740980253954,74.97625621181814,3.4295108865966712,0.0778032172549664,1.341179764799564
628,8.348034028069351,74.97625621181814,3.41412072594841,0.07786063906735989,1.341580971387541
629,8.361327075884748,74.97625621181814,3.4001998630401187,0.0778526219603084,1.3421719923716304
630,8.374620123700145,74.97625621181814,3.388323305350755,0.07778589950102595,1.3429498997249327
631,8.387913171515542,74.97625621181814,3.378945436242354,0.07766863454826939,1.3439077554139958
632,8.40120621933094,74.97625621181814,3.3723648269070337,0.07750957410729825,1.3450310822086247
633,8.414499267146336,74.97625621181814,3.3686990007917847,0.07731762494145705,1.3462957285126678
634,8.427792314961733,74.97625621181814,3.3678740077388007,0.07710179356216414,1.34766748580893
635,8.441085362777132,74.97625621181814,3.369631811946461,0.07687134919395965,1.3491033091420654
636,8.454378410592529,74.97625621181814,3.373555929400107,0.07663601803952517,1.3505538262640102
637,8.467671458407926,74.97625621181814,3.379112981819065,0.07640602468202715,1.3519667162089901
638,8.480964506223323,74.97625621181814,3.3857054776845064,0.07619185515282718,1.3532904855377972
639,8.49425755403872,74.97625621181814,3.3927296109614904,0.07600370554414268,1.3544781967640647
640,8.507550601854117,74.97625621181814,3.3996308995596802,0.07585067590203488,1.355490782280617
641,8.520843649669514,74.97625621181814,3.405950225698955,0.07573984782258404,1.3562996776077147
642,8.53413669748491,74.97625621181814,3.4113547228727295,0.07567542817136957,1.3568886017974344
643,8.547429745300308,74.97625621181814,3.415651585820358,0.07565814225920613,1.3572543865293705
644,8.560722793115705,74.97625621181814,3.4187856459829735,0.07568502160370079,1.3574068108421655
645,8.574015840931102,74.97625621181814,3.4208229627533875,0.0757496638876678,1.3573674484538
646,8.587308888746499,74.97625621181814,3.4219239688872967,0.07584294466238987,1.3571675937095367
647,8.600601936561896,74.97625621181814,3.422310753931107,0.07595405367783134,1.356845407510793
648,8.613894984377293,74.97625621181814,3.4222332466470093,0.07607168080291245,1.3564425111896465
649,8.62718803219269,74.97625621181814,3.42193842991835,0.076185195578341,1.356000338256697
650,8.640481080008087,74.97625621181814,3.4216455755091837,0.07628568275582186,1.3555566101304437
651,8.653774127823484,74.97625621181814,3.421529104750572,0.0763667066144275,1.3551423136779457
652,8.66706717563888,74.97625621181814,3.421709346502535,0.07642471988250481,1.3547795157029592
653,8.680360223454278,74.97625621181814,3.422250392365731,0.07645909889291333,1.354480254045223
654,8.693653271269675,74.97625621181814,3.423163565246167,0.07647184484980275,1.354246609213416
655,8.706946319085072,74.97625621181814,3.4244147445156523,0.0764670318951343,1.3540719047230674
656,8.72023936690047,74.97625621181814,3.4259338681558806,0.07645010397014963,1.3539428325910408
657,8.733532414715867,74.97625621181814,3.427625245099094,0.07642712459876616,1.3538421768100508
658,8.746825462531264,74.97625621181814,3.4293777281366222,0.0764040704584523,1.3537517327942397
659,8.760118510346661,74.97625621181814,3.4310742027501973,0.07638623645737713,1.3536550088245607
660,8.773411558162058,74.97625621181814,3.432600158391679,0.07637779297933762,1.3535393506465232
661,8.786704605977455,74.97625621181814,3.433851288468194,0.07638151023052213,1.3533972444666205
662,8.799997653792852,74.97625621181814,3.4347401066912067,0.07639864393131719,1.3532267058632097
663,8.81329070160825,74.97625621181814,3.4352015076812408,0.07642896272873932,1.3530308221508272
664,8.826583749423646,74.97625621181814,3.435197169032447,0.07647089058606071,1.3528166500805137
665,8.839876797239043,74.97625621181814,3.4347187225928884,0.07652173556170162,1.3525937516613167
666,8.85316984505444,74.97625621181814,3.433789515331839,0.07657797768073454,1.352372664183888
667,8.866462892869837,74.97625621181814,3.4324645647058074,0.07663559101211537,1.3521635498296003
668,8.879755940685234,74.97625621181814,3.4308283178319883,0.07669037728902074,1.3519751756721468
669,8.893048988500631,74.97625621181814,3.4289900480873556,0.0767382900870976,1.351814266670761
670,8.906342036316028,74.97625621181814,3.427076915452258,0.07677573013594963,1.3516851836155181
671,8.919635084131425,74.97625621181814,3.425224848540596,0.07679979459756617,1.3515898281791296
672,8.932928131946822,74.97625621181814,3.4235675528741587,0.07680846683318338,1.3515276776172522
673,8.946221179762219,74.97625621181814,3.4222241186076263,0.07680073858187694,1.351495895991015
674,8.959514227577616,74.97625621181814,3.4212858908803185,0.07677666325080923,1.3514895376823621
675,8.972807275393013,74.97625621181814,3.42080348591693,0.07673734621884601,1.3515019255502405
676,8.98610032320841,74.97625621181814,3.42077508325782,0.07668488429218476,1.351525323203796
677,8.999393371023807,74.97625621181814,3.4211373752289576,0.0766222701836212,1.3515520084541077
678,9.012686418839206,74.97625621181814,3.4217607562617736,0.07655327780626157,1.3515757857538897
679,9.025979466654602,74.97625621181814,3.4224504070268926,0.07648233960811977,1.3515938577967752
680,9.03927251447,74.97625621181814,3.4229547766523276,0.0764144184517212,1.3516088339533063
681,9.052565562285396,74.97625621181814,3.4229825032614047,0.0763548651749459,1.3516305201315493
682,9.065858610100792,74.97625621181814,3.422227988417636,0.07630924159189653,1.3516770487286964
683,9.07915165791619,74.97625621181814,3.42040467151791,0.0762830807095985,1.351774901205841
684,9.092444705731587,74.97625621181814,3.4172836417415393,0.07628155489866295,1.3519574687145552
685,9.105737753546984,74.97625621181814,3.412733778483108,0.07630903155375951,1.352261987941591
686,9.11903080136238,74.97625621181814,3.4067584046010277,0.07636851576333434,1.3527249578299108
687,9.132323849177778,74.97625621181814,3.3995227786921,0.07646100968469045,1.353376446037876
688,9.145616896993175,74.97625621181814,3.391366932951884,0.07658485482520834,1.3542339763420912
689,9.158909944808572,74.97625621181814,3.382799532030725,0.07673515948219502,1.3552968904460194
690,9.17220299262397,74.97625621181814,3.37447041182615,0.0769034402342032,1.3565421488953517
691,9.185496040439366,74.97625621181814,3.3671220628983063,0.07707761374789202,1.3579224429773296
692,9.198789088254763,74.97625621181814,3.3615235880523127,0.07724245525128676,1.3593672285330551
693,9.21208213607016,74.97625621181814,3.3583940333260505,0.07738058585905695,1.3607868721811707
694,9.225375183885555,74.97625621181814,3.358324289786446,0.0774739671161978,1.3620795893726874
695,9.238668231700954,74.97625621181814,3.361707502890071,0.07750580650546049,1.363140501827402
696,9.251961279516353,74.97625621181814,3.3686872807514106,0.07746272320497803,1.3638720035757532
697,9.265254327331748,74.97625621181814,3.3791309816708006,0.07733692718263707,1.3641942919856982
698,9.278547375147143,74.97625621181814,3.3926320981415232,0.07712804907422705,1.3640544612422179
699,9.291840422962544,74.97625621181814,3.408541743318983,0.07684424967810405,1.363432648441708
700,9.30513347077794,74.97625621181814,3.4260251713972942,0.07650234605743504,1.362344362429164
701,9.318426518593338,74.97625621181814,3.4441358223960057,0.07612683088859099,1.3608387722395512
702,9.331719566408736,74.97625621181814,3.461897170036552,0.07574781269576752,1.358993271613485
703,9.345012614224132,74.97625621181814,3.4783820427853067,0.07539807190092793,1.3569051446188136
704,9.358305662039529,74.97625621181814,3.492780160178751,0.07510958296541433,1.3546815553736946
705,9.371598709854926,74.97625621181814,3.5044471254336482,0.07490996999598437,1.3524292837411245
706,9.384891757670324,74.97625621181814,3.5129315200791837,0.07481941412645232,1.3502455946753427
707,9.39818480548572,74.97625621181814,3.5179802212676736,0.0748484406134685,1.3482113691956388
708,9.411477853301117,74.97625621181814,3.519524981356918,0.07499679803920714,1.3463871901802686
709,9.424770901116512,74.97625621181814,3.5176563934774183,0.07525350127527262,1.3448125485338003
710,9.43806394893191,74.97625621181814,3.5125940492439827,0.07559806941826792,1.3435078130962201
711,9.451356996747307,74.97625621181814,3.5046602803700466,0.07600284039099085,1.342478185842026
712,9.464650044562704,74.97625621181814,3.4942597924684375,0.07643601092113735,1.3417186153387002
713,9.4779430923781,74.97625621181814,3.481864311727505,0.07686493488646451,1.3412186026028687
714,9.491236140193498,74.97625621181814,3.468000855120418,0.07725923266135185,1.3409660013339397
715,9.504529188008895,74.97625621181814,3.453241335633705,0.07759334706214602,1.3409492449849714
716,9.517822235824292,74.97625621181814,3.4381901242266375,0.07784830380882149,1.3411578853724553
717,9.53111528363969,74.97625621181814,3.4234663722858714,0.07801257119109758,1.3415817964586316
718,9.544408331455086,74.97625621181814,3.40967929639251,0.0780820405171754,1.3422095147636213
719,9.557701379270483,74.97625621181814,3.397396703075137,0.07805929236733912,1.3430259449601523
720,9.57099442708588,74.97625621181814,3.387109248730805,0.07795244987591589,1.3440098333161652
721,9.58428747490128,74.97625621181814,3.37919473248736,0.07777390603562329,1.3451319806843753
722,9.597580522716676,74.97625621181814,3.37388767311023,0.07753905901427546,1.3463550658694845
723,9.610873570532071,74.97625621181814,3.371259290567771,0.07726510305605942,1.3476352085262686
724,9.62416661834747,74.97625621181814,3.3712118071564365,0.07696992739807744,1.3489248891725711
725,9.637459666162869,74.97625621181814,3.373488941390504,0.07667115195179915,1.3501766710927579
726,9.650752713978264,74.97625621181814,3.3777019999495717,0.07638528161470924,1.3513470887213004
727,9.66404576179366,74.97625621181814,3.3833685681317176,0.07612694620973441,1.3524000767660778
728,9.677338809609058,74.97625621181814,3.389958918675112,0.07590821019412888,1.3533094363975733
729,9.690631857424457,74.97625621181814,3.3969442646480417,0.07573796919662845,1.3540600374439906
730,9.703924905239852,74.97625621181814,3.4038410159046095,0.0756214845995533,1.3546476942214063
731,9.717217953055249,74.97625621181814,3.4102460125736123,0.07556012856256816,1.3550778772943575
732,9.730511000870646,74.97625621181814,3.415859096549487,0.07555141080680836,1.3553635924385719
733,9.743804048686044,74.97625621181814,3.420491544114671,0.07558933283501865,1.3555228459682884
734,9.75709709650144,74.97625621181814,3.4240614695397484,0.07566506997352153,1.3555761167429627
735,9.770390144316837,74.97625621181814,3.426579197435545,0.07576792661350673,1.3555441819809924
736,9.783683192132234,74.97625621181814,3.4281263344654134,0.07588645877787231,1.355446521545835
737,9.79697623994763,74.97625621181814,3.428832303047382,0.07600962511697157,1.3553003841835085
738,9.810269287763028,74.97625621181814,3.428851764394592,0.07612782060231768,1.3551204683480766
739,9.823562335578425,74.97625621181814,3.4283456287129086,0.07623366548998195,1.3549190720202995
740,9.83685538339382,74.97625621181814,3.4274672609683665,0.07632246121835806,1.3547065127865408
741,9.850148431209218,74.97625621181814,3.426354301577252,0.07639227802530554,1.3544916134761167
742,9.863441479024615,74.97625621181814,3.425125511839936,0.07644369529093442,1.3542820828980366
743,9.876734526840014,74.97625621181814,3.4238813680433435,0.07647926375387641,1.3540846824939399
744,9.890027574655411,74.97625621181814,3.4227068084924963,0.07650279123484638,1.3539051422118666
745,9.903320622470808,74.97625621181814,3.421674554696479,0.07651856694520065,1.3537478577119335
746,9.916613670286203,74.97625621181814,3.420847695704919,0.07653063444868408,1.353615454949092
747,9.929906718101602,74.97625621181814,3.4202806336880527,0.07654220361933196,1.3535083411364364
748,9.943199765917,74.97625621181814,3.4200179359047906,0.07655526296016398,1.3534243718832006
749,9.956492813732396,74.97625621181814,3.420091048711718,0.07657042116277331,1.353358755254769
750,9.969785861547791,74.97625621181814,3.4205131683751273,0.07658697569947683,1.3533042885878719
751,9.98307890936319,74.97625621181814,3.421272833678038,0.07660317998203299,1.3532519871205368
752,9.996371957178589,74.97625621181814,3.42232703286193,0.07661666104817468,1.3531921180807704
753,10.009665004993984,74.97625621181814,3.423594831223503,0.0766249273864153,1.3531156022681277
754,10.02295805280938,74.97625621181814,3.4249527351569506,0.0766259010341292,1.353015689653579
755,10.036251100624778,74.97625621181814,3.4262331871167566,0.07661840866248212,1.3528897591130973
756,10.049544148440177,74.97625621181814,3.42722766699368,0.07660257197623813,1.3527410396001154
757,10.062837196255572,74.97625621181814,3.4276957628596216,0.0765800473474859,1.3525800074047165
758,10.076130244070969,74.97625621181814,3.4273811700637458,0.07655407718819758,1.3524251903497921
759,10.089423291886366,74.97625621181814,3.4260348197145842,0.0765293303956545,1.3523031150775144
760,10.102716339701765,74.97625621181814,3.423444236226589,0.07651152591814714,1.3522471781297096
761,10.11600938751716,74.97625621181814,3.4194668886099384,0.07650685216592201,1.3522953126376722
762,10.129302435332557,74.97625621181814,3.4140639431705018,0.0765212159348897,1.3524864610948548
763,10.142595483147954,74.97625621181814,3.4073297350390805,0.07655937770666454,1.3528560421653686
764,10.155888530963352,74.97625621181814,3.3995117597664257,0.0766240545927516,1.353430795400827
765,10.16918157877875,74.97625621181814,3.3910163203072448,0.07671509510234982,1.354223570655295
766,10.182474626594146,74.97625621181814,3.3823962580561884,0.07682884679118962,1.3552287606564946
767,10.195767674409543,74.97625621181814,3.37431917737302,0.07695784282487307,1.3564191163013037
768,10.20906072222494,74.97625621181814,3.367517015558633,0.07709092056923866,1.3577446062720995
769,10.222353770040336,74.97625621181814,3.3627208727883375,0.07721385023430632,1.3591337580429865
770,10.235646817855734,74.97625621181814,3.360588150638521,0.07731049314956664,1.3604975729857411
771,10.248939865671131,74.97625621181814,3.3616309288959094,0.07736443210151911,1.3617358478545556
772,10.262232913486528,74.97625621181814,3.366154723214655,0.07736093479951159,1.3627455904930204
773,10.275525961301923,74.97625621181814,3.3742157212976744,0.0772890393629674,1.3634308013001546
774,10.288819009117322,74.97625621181814,3.3856024107694687,0.0771434908554671,1.3637122832455881
775,10.30211205693272,74.97625621181814,3.3998443149400823,0.07692622583352926,1.3635360111789852
776,10.315405104748116,74.97625621181814,3.4162468638088717,0.0766471257961134,1.362878969567105
777,10.328698152563511,74.97625621181814,3.4339479016627625,0.07632384295439225,1.361751786032926
778,10.34199120037891,74.97625621181814,3.4519885757675395,0.0759806223972741,1.3601978737886615
779,10.355284248194309,74.97625621181814,3.469389826879099,0.07564618635721766,1.3582892452058295
780,10.368577296009704,74.97625621181814,3.4852256368864003,0.07535089109526538,1.3561196044805146
781,10.3818703438251,74.97625621181814,3.498685523682355,0.07512349012566578,1.3537956764037733
782,10.395163391640498,74.97625621181814,3.509121165909121,0.0749879201200144,1.3514279222010328
783,10.408456439455897,74.97625621181814,3.5160749495571046,0.07496054985521852,1.3491218009467472
784,10.421749487271292,74.97625621181814,3.519290915969928,0.07504825544705651,1.3469705605378357
785,10.435042535086689,74.97625621181814,3.518710560348738,0.07524752075772889,1.3450502234762434
786,10.448335582902088,74.97625621181814,3.514457827751697,0.07554463438304078,1.3434170338364617
787,10.461628630717485,74.97625621181814,3.5068191937086874,0.07591698535420628,1.3421072297260515
788,10.474921678532882,74.97625621181814,3.496223202144012,0.07633533043722987,1.3411386742141147
789,10.48821472634828,74.97625621181814,3.4832197719744578,0.07676673568110276,1.340513672614426
790,10.501507774163676,74.97625621181814,3.468457429074278,0.07717780429268106,1.3402222547526776
791,10.514800821979073,74.97625621181814,3.452656982369968,0.07753780263735142,1.3402453026776266
792,10.52809386979447,74.97625621181814,3.4365805309906645,0.07782134329407517,1.3405571561524359
793,10.541386917609866,74.97625621181814,3.4209950132187887,0.07801035759142667,1.3411276545250297
794,10.554679965425263,74.97625621181814,3.406630676557941,0.07809518202742341,1.3419236102626317
795,10.56797301324066,74.97625621181814,3.3941365731128097,0.07807473373493382,1.342909453250028
796,10.581266061056056,74.97625621181814,3.3840368680656168,0.07795593490289093,1.3440470441644963
797,10.594559108871454,74.97625621181814,3.376692908325892,0.0777525931443615,1.345295387696324
798,10.607852156686851,74.97625621181814,3.3722762666564563,0.07748385336713554,1.346611038584623
799,10.621145204502248,74.97625621181814,3.370757202393245,0.07717232479971536,1.3479493859028981
800,10.634438252317644,74.97625621181814,3.3719112476659663,0.0768420647468445,1.349266608369422
801,10.647731300133042,74.97625621181814,3.3753442348293006,0.07651661674483341,1.3505220065683141
802,10.66102434794844,74.97625621181814,3.3805334678285996,0.07621725472857352,1.3516803658125067
803,10.674317395763836,74.97625621181814,3.386880397045562,0.07596154158930109,1.3527139832474797
804,10.687610443579231,74.97625621181814,3.393768524104561,0.07576227815784416,1.353604041543985
805,10.70090349139463,74.97625621181814,3.4006196317758497,0.07562689083788536,1.3543411185318601
806,10.714196539210027,74.97625621181814,3.4069418609075113,0.07555728001682135,1.3549247669270348
807,10.727489587025426,74.97625621181814,3.412364531340331,0.07555012320686044,1.355362251020642
808,10.740782634840825,74.97625621181814,3.4166567305543687,0.07559759648890388,1.3556666578771641
809,10.75407568265622,74.97625621181814,3.4197291684694036,0.0756884458437463,1.3558546852222901
810,10.767368730471617,74.97625621181814,3.4216211199506184,0.07580929803913335,1.3559444337277395
811,10.780661778287014,74.97625621181814,3.422476082550821,0.07594605732645987,1.355953497804653
812,10.79395482610241,74.97625621181814,3.4225107317980092,0.0760852311066926,1.3558975682925893
813,10.807247873917808,74.97625621181814,3.421981714926313,0.07621506709431522,1.3557896527167201
814,10.820540921733205,74.97625621181814,3.4211541377837316,0.07632641688438868,1.3556399069386948
815,10.833833969548602,74.97625621181814,3.420274740268959,0.07641326093637352,1.35545597630885
816,10.847127017364,74.97625621181814,3.419551771114571,0.07647286707130281,1.3552436787925128
817,10.860420065179396,74.97625621181814,3.4191423488594546,0.07650560305802,1.3550078332533084
818,10.873713112994793,74.97625621181814,3.4191469020363487,0.07651446387271585,1.3547530424242504
819,10.88700616081019,74.97625621181814,3.4196095068663728,0.07650440003512567,1.3544842763002969
820,10.900299208625588,74.97625621181814,3.420522624254265,0.07648154448367585,1.3542071588824485
821,10.913592256440984,74.97625621181814,3.4218347400617914,0.07645243249953172,1.3539279289095973
822,10.92688530425638,74.97625621181814,3.4234596302180953,0.07642329512601247,1.3536531122688764
823,10.940178352071776,74.97625621181814,3.425286299985622,0.07639948530385464,1.3533889992559047
824,10.953471399887174,74.97625621181814,3.4271889784278398,0.07638507177060347,1.353141054416921
825,10.966764447702571,74.97625621181814,3.4290368078219475,0.0763826123801397,1.3529133943277665
826,10.980057495517968,74.97625621181814,3.430703015805385,0.07639309863540941,1.3527084483001308
827,10.993350543333364,74.97625621181814,3.432073380932107,0.07641604845553851,1.3525268733397058
828,11.006643591148762,74.97625621181814,3.4330537375246157,0.07644971495373641,1.352367737484
829,11.01993663896416,74.97625621181814,3.4335762898535442,0.0764913748615702,1.352228927666623
830,11.033229686779558,74.97625621181814,3.4336046360010495,0.07653766027590582,1.3521076921790465
831,11.046522734594957,74.97625621181814,3.4331372895989047,0.07658490053472096,1.3520012031820872
832,11.059815782410352,74.97625621181814,3.4322091621989137,0.07662944619954824,1.3519070257738734
833,11.073108830225747,74.97625621181814,3.4308904515271026,0.07666795342433352,1.3518234050641433
834,11.086401878041146,74.97625621181814,3.429282680832657,0.07669761367195548,1.3517493247727688
835,11.099694925856545,74.97625621181814,3.427511867946638,0.07671632022971626,1.351684340607542
836,11.11298797367194,74.97625621181814,3.4257189435212494,0.07672276891654992,1.3516282396138162
837,11.126281021487337,74.97625621181814,3.424047722412911,0.07671649562976428,1.3515806154261014
838,11.139574069302734,74.97625621181814,3.422630971849773,0.0766978579537049,1.3515404743573611
839,11.15286711711813,74.97625621181814,3.4215753984722523,0.0766679719334011,1.3515059963350784
840,11.166160164933528,74.97625621181814,3.420946682087672,0.07662861809112341,1.3514745666821277
841,11.179453212748925,74.97625621181814,3.420755988848755,0.07658213233897168,1.3514431684557164
842,11.192746260564322,74.97625621181814,3.4209496537862774,0.07653129693272077,1.3514091792058132
843,11.20603930837972,74.97625621181814,3.4214038658892316,0.07647924340646016,1.3513715504420463
844,11.219332356195116,74.97625621181814,3.4219261390743654,0.07642937330149183,1.3513322659397948
845,11.232625404010513,74.97625621181814,3.422265031130367,0.07638529388253051,1.351297884778443
846,11.24591845182591,74.97625621181814,3.422128923122564,0.07635075609338514,1.3512808914201886
847,11.259211499641308,74.97625621181814,3.4212136825720245,0.07632957259443045,1.3513005179038784
848,11.272504547456704,74.97625621181814,3.4192377622111816,0.07632548717521564,1.3513826934155424
849,11.2857975952721,74.97625621181814,3.4159818718629555,0.07634196566286622,1.3515588312565965
850,11.2990906430875,74.97625621181814,3.4113290222002233,0.07638188495101847,1.3518632901270504
851,11.312383690902896,74.97625621181814,3.4052997500044446,0.07644711248675032,1.3523295392276482
852,11.325676738718292,74.97625621181814,3.3980769706972414,0.07653799352550596,1.3529852926836456
853,11.33896978653369,74.97625621181814,3.3900154193371854,0.0766527955124028,1.3538471216829229
854,11.352262834349087,74.97625621181814,3.3816321005096754,0.07678719314824908,1.354915256548167
855,11.365555882164484,74.97625621181814,3.3735761319637336,0.07693390645167461,1.3561694083065212
856,11.37884892997988,74.97625621181814,3.3665786339943575,0.07708261828179526,1.3575664285922489
857,11.392141977795278,74.97625621181814,3.3613864698213276,0.07722028813306045,1.359040465621658
858,11.405435025610675,74.97625621181814,3.3586871467952055,0.07733194029237064,1.3605059413558591
859,11.418728073426072,74.97625621181814,3.3590341875357423,0.07740194134730574,1.361863220906849
860,11.432021121241467,74.97625621181814,3.362782354942289,0.07741570104076492,1.3630065600141363
861,11.445314169056866,74.97625621181814,3.3700410701574106,0.07736163296002933,1.3638338390176796
862,11.458607216872265,74.97625621181814,3.3806523050087556,0.07723311706642645,1.3642571615501389
863,11.47190026468766,74.97625621181814,3.3941960959426547,0.07703015230864664,1.3642127007929346
864,11.485193312503055,74.97625621181814,3.4100230893867454,0.076760391398434,1.3636681276117004
865,11.498486360318454,74.97625621181814,3.427309849319129,0.07643930686775033,1.362626575140662
866,11.511779408133853,74.97625621181814,3.4451296648970198,0.07608934469034384,1.3611267044579984
867,11.525072455949248,74.97625621181814,3.462529803735148,0.0757380697009527,1.3592389266404303
868,11.538365503764645,74.97625621181814,3.478605853269151,0.07541547277563902,1.3570583468840622
869,11.551658551580042,74.97625621181814,3.4925649831530676,0.07515076302747717,1.3546954485211982
870,11.56495159939544,74.97625621181814,3.503772342006546,0.07496908612614918,1.3522658227157183
871,11.578244647210836,74.97625621181814,3.5117778502382286,0.0748886639608227,1.34988032184769
872,11.591537695026236,74.97625621181814,3.516323508026125,0.07491876558907158,1.347636858650601
873,11.604830742841632,74.97625621181814,3.517333527183839,0.07505870964934254,1.3456147223408197
874,11.618123790657028,74.97625621181814,3.5148926610849607,0.07529796255611465,1.3438718079703342
875,11.631416838472424,74.97625621181814,3.5092214857775472,0.07561735986694548,1.3424446498165308
876,11.644709886287822,74.97625621181814,3.5006555275326354,0.07599133181551986,1.3413507105299396
877,11.65800293410322,74.97625621181814,3.4896285598937307,0.07639078447274711,1.34059208405089
878,11.671295981918616,74.97625621181814,3.476657287325817,0.0767861763484968,1.3401596669365283
879,11.684589029734012,74.97625621181814,3.4623257519631645,0.07715035516094088,1.3400369439531208
880,11.69788207754941,74.97625621181814,3.4472680179529718,0.07746080929490214,1.340202783419149
881,11.711175125364807,74.97625621181814,3.4321469657767723,0.0777011184863095,1.3406329942658644
882,11.724468173180204,74.97625621181814,3.4176274295243125,0.07786153395774402,1.341300773854407
883,11.7377612209956,74.97625621181814,3.4043433725150862,0.0779387521845752,1.3421763775721072
884,11.751054268810998,74.97625621181814,3.3928606988551846,0.07793507655798892,1.3432263349337394
885,11.764347316626395,74.97625621181814,3.3836391394134395,0.07785726533848136,1.3444126387127209
886,11.777640364441792,74.97625621181814,3.3769979373496084,0.07771534608237658,1.3456925352585303
887,11.79093341225719,74.97625621181814,3.3730904443901544,0.07752154759092043,1.3470194074597472
888,11.804226460072586,74.97625621181814,3.3718920799259666,0.07728940435477857,1.3483448036478765
889,11.817519507887985,74.97625621181814,3.3732044882487475,0.07703305166483723,1.349621325409934
890,11.83081255570338,74.97625621181814,3.376676450924172,0.07676668204307528,1.3508059183330952
891,11.844105603518775,74.97625621181814,3.3818396089055405,0.0765040858589581,1.3518630279168538
892,11.857398651334174,74.97625621181814,3.388154804906012,0.07625819044723874,1.3527670967833811
893,11.870691699149573,74.97625621181814,3.3950632948542205,0.07604054121067094,1.3535039957350177
894,11.88398474696497,74.97625621181814,3.4020364769887825,0.07586071907316883,1.3540711724411587
895,11.897277794780369,74.97625621181814,3.4086182305623822,0.07572574412106894,1.3544765266258036
896,11.910570842595764,74.97625621181814,3.4144553216456965,0.07563955820778691,1.3547362334332465
897,11.92386389041116,74.97625621181814,3.41931333216178,0.07560269719031254,1.3548718971643976
898,11.937156938226558,74.97625621181814,3.423077812587344,0.07561225314677436,1.354907499519578
899,11.950449986041956,74.97625621181814,3.425742446677062,0.07566219027680263,1.3548666011354817
900,11.963743033857352,74.97625621181814,3.427387610880928,0.07574400729846882,1.3547701709575228
901,11.977036081672749,74.97625621181814,3.4281535979055393,0.07584765125572411,1.3546352766277845
902,11.990329129488146,74.97625621181814,3.428212889802804,0.07596254749036087,1.354474700215811
903,12.003622177303544,74.97625621181814,3.427745292258265,0.0760786270401765,1.354297378785088
904,12.01691522511894,74.97625621181814,3.426918669824958,0.07618724163131847,1.354109436521714
905,12.030208272934336,74.97625621181814,3.4258767015754295,0.07628185425054021,1.3539154948502512
906,12.043501320749732,74.97625621181814,3.4247337603515966,0.07635842348771912,1.353719929153474
907,12.05679436856513,74.97625621181814,3.423575913749786,0.07641545551397502,1.3535277840881685
908,12.070087416380527,74.97625621181814,3.4224662834724167,0.07645375038574471,1.3533451523690285
909,12.083380464195924,74.97625621181814,3.4214526303934565,0.07647590984409904,1.353178945024684
910,12.09667351201132,74.97625621181814,3.4205750313857237,0.07648569898636483,1.3530361117073746
911,12.109966559826718,74.97625621181814,3.4198718070263676,0.0764873627614754,1.352922485522773
912,12.123259607642115,74.97625621181814,3.419382351695519,0.07648499185026916,1.352841509966534
913,12.136552655457512,74.97625621181814,3.419146117388211,0.07648201452931068,1.3527931439017327
914,12.14984570327291,74.97625621181814,3.4191976366718952,0.07648086582029234,1.3527732288332843
915,12.163138751088308,74.97625621181814,3.4195580891302577,0.07648285684157934,1.3527735424308789
916,12.176431798903703,74.97625621181814,3.420224488219955,0.07648823955299161,1.3527826609530664
917,12.189724846719102,74.97625621181814,3.421158067234011,0.07649643800068735,1.3527876241305758
918,12.2030178945345,74.97625621181814,3.4222738426172814,0.07650639879828068,1.3527762567304331
919,12.216310942349896,74.97625621181814,3.4234335818626445,0.07651700201152568,1.3527398713038328
920,12.229603990165293,74.97625621181814,3.424444434302598,0.07652746897792237,1.3526759759195277
921,12.24289703798069,74.97625621181814,3.425065218915987,0.07653770526612524,1.3525905550773367
922,12.256190085796089,74.97625621181814,3.4250217365227926,0.07654852398132297,1.352499492089926
923,12.269483133611484,74.97625621181814,3.424031455724336,0.07656170608566458,1.352428761215164
924,12.28277618142688,74.97625621181814,3.4218365526744146,0.07657986991336835,1.3524131356341254
925,12.296069229242278,74.97625621181814,3.418242695786333,0.07660614165322716,1.3524933251315179
926,12.309362277057676,74.97625621181814,3.413159385431494,0.07664364232311845,1.3527116615145327
927,12.322655324873072,74.97625621181814,3.4066363903421726,0.07669483410333733,1.3531066707532773
928,12.335948372688469,74.97625621181814,3.3988901946112615,0.07676079791734473,1.3537070823671706
929,12.349241420503866,74.97625621181814,3.3903146880176744,0.07684054117850919,1.3545259967607668
930,12.362534468319264,74.97625621181814,3.381471730254436,0.07693045433546786,1.3555560256332375
931,12.37582751613466,74.97625621181814,3.373059403863444,0.07702404091359834,1.3567662072572104
932,12.389120563950057,74.97625621181814,3.365858514383537,0.077112032261485,1.3581013576873595
933,12.402413611765454,74.97625621181814,3.360661420846072,0.07718296049656094,1.3594842372959286
934,12.41570665958085,74.97625621181814,3.3581909671951506,0.07722420184867436,1.36082052245202
935,12.428999707396247,74.97625621181814,3.359019589297014,0.07722343100530672,1.3620062456590551
936,12.442292755211646,74.97625621181814,3.363499090367993,0.07717035462732391,1.3629371488741528
937,12.455585803027043,74.97625621181814,3.371710557626861,0.07705851188951866,1.3635190128235752
938,12.46887885084244,74.97625621181814,3.3834415333170744,0.07688685972923176,1.3636775547974163
939,12.482171898657835,74.97625621181814,3.398193964465055,0.0766608464693201,1.3633664379564776
940,12.495464946473234,74.97625621181814,3.4152222168596835,0.07639272998349568,1.36257232799551
941,12.508757994288633,74.97625621181814,3.4335962983966275,0.07610099356721446,1.3613163995345043
942,12.522051042104028,74.97625621181814,3.452282102834051,0.0758088421477602,1.3596521559801729
943,12.535344089919423,74.97625621181814,3.4702285167828784,0.07554191125054438,1.3576599251815484
944,12.548637137734822,74.97625621181814,3.4864509315190726,0.07532546462549483,1.355438849676215
945,12.56193018555022,74.97625621181814,3.5001020548076163,0.07518147141125388,1.3530975121688076
946,12.575223233365616,74.97625621181814,3.5105235973471274,0.07512601265212021,1.3507444691183734
947,12.588516281181011,74.97625621181814,3.517275840928881,0.07516739413124601,1.3484798871765498
948,12.60180932899641,74.97625621181814,3.5201455186740556,0.07530515110183524,1.346389208179899
949,12.615102376811809,74.97625621181814,3.5191352114727796,0.07553001528306923,1.3445393634697878
950,12.628395424627204,74.97625621181814,3.5144396374444686,0.07582489679988716,1.3429775975114848
951,12.6416884724426,74.97625621181814,3.5064154618654304,0.07616680257239619,1.3417325329201237
952,12.654981520257998,74.97625621181814,3.495550126705622,0.07652939137064783,1.340816793490558
953,12.668274568073397,74.97625621181814,3.4824321322417178,0.07688575314782202,1.3402303520004961
954,12.681567615888792,74.97625621181814,3.4677228885535296,0.07721101563751016,1.339963804880867
955,12.694860663704189,74.97625621181814,3.4521293374484108,0.07748445590126488,1.340000975574562
956,12.708153711519586,74.97625621181814,3.4363759380025005,0.07769090761090262,1.3403205896279542
957,12.721446759334984,74.97625621181814,3.421174452043907,0.07782138833679966,1.3408971556327973
958,12.73473980715038,74.97625621181814,3.4071907729634003,0.07787299887156239,1.3417012768545618
959,12.748032854965778,74.97625621181814,3.3950095550575785,0.07784825321899512,1.3426993944977448
960,12.761325902781175,74.97625621181814,3.3850990978337063,0.07775406556359868,1.3438531593171759
961,12.774618950596572,74.97625621181814,3.3777803151121533,0.07760062136961589,1.3451192135484378
962,12.78791199841197,74.97625621181814,3.3732042485854015,0.07740030066446268,1.3464501156998714
963,12.801205046227366,74.97625621181814,3.3713422366939088,0.07716674894957244,1.3477964798209614
964,12.814498094042763,74.97625621181814,3.3719915263556106,0.07691412666318359,1.3491099576677488
965,12.82779114185816,74.97625621181814,3.3747970528571303,0.07665650969356083,1.3503465685055587
966,12.841084189673555,74.97625621181814,3.3792877193882207,0.07640737478018203,1.3514698392548123
967,12.854377237488954,74.97625621181814,3.384923265164055,0.07617909901274102,1.3524532509128835
968,12.867670285304351,74.97625621181814,3.3911461686032176,0.07598242913837247,1.353281613847247
969,12.880963333119748,74.97625621181814,3.3974323086409717,0.07582592168806901,1.3539511832826547
970,12.894256380935143,74.97625621181814,3.4033344240327614,0.07571540326884942,1.3544685374321457
971,12.907549428750542,74.97625621181814,3.408513661908301,0.07565353622619984,1.354848432619681
972,12.92084247656594,74.97625621181814,3.4127564226145872,0.07563958713097879,1.3551109901125653
973,12.934135524381336,74.97625621181814,3.415975943811035,0.0756694811076435,1.3552786398128633
974,12.947428572196731,74.97625621181814,3.4182002116594403,0.07573618693083865,1.355373242965433
975,12.96072162001213,74.97625621181814,3.419549436576906,0.07583041702963318,1.355413748928662
976,12.974014667827529,74.97625621181814,3.420207262417327,0.07594155789313534,1.3554146281326558
977,12.987307715642924,74.97625621181814,3.4203900659668953,0.07605870804712905,1.3553851875646183
978,13.00060076345832,74.97625621181814,3.420318231114586,0.07617170118093032,1.3553297398316702
979,13.01389381127372,74.97625621181814,3.4201923237933514,0.07627200024103287,1.3552484822088091
980,13.027186859089117,74.97625621181814,3.4201758933061246,0.07635336099200382,1.3551388623513616
981,13.040479906904514,74.97625621181814,3.420385427254298,0.0764121986034957,1.3549971694700744
982,13.05377295471991,74.97625621181814,3.4208869851188854,0.0764476400686892,1.354820093267165
983,13.067066002535308,74.97625621181814,3.4216983470411857,0.07646129020014346,1.3546060311934816
984,13.080359050350705,74.97625621181814,3.4227951729324335,0.076456771924635,1.3543559870171853
985,13.093652098166102,74.97625621181814,3.4241196340943274,0.07643912014783065,1.354073978232233
986,13.1069451459815,74.97625621181814,3.4255901686917505,0.07641411266916182,1.3537669451257008
987,13.120238193796895,74.97625621181814,3.4271113191737963,0.07638761424728868,1.353444221099511
988,13.133531241612292,74.97625621181814,3.4285829351437513,0.07636499491935357,1.3531166754251978
989,13.14682428942769,74.97625621181814,3.429908299345965,0.07635066514776065,1.3527956718026932
990,13.160117337243086,74.97625621181814,3.431000889765215,0.0763477516915167,1.352491996907585
991,13.173410385058483,74.97625621181814,3.4317895474815714,0.07635792160393638,1.3522149026638608
992,13.18670343287388,74.97625621181814,3.432222102869076,0.076381348678343,1.3519713766223307
993,13.199996480689276,74.97625621181814,3.4322679978146153,0.07641680727441479,1.3517657112944033
994,13.213289528504674,74.97625621181814,3.4319203001472065,0.07646187230978178,1.3515993925548366
995,13.226582576320071,74.97625621181814,3.431196776717985,0.07651320043208959,1.3514712777733469
996,13.239875624135468,74.97625621181814,3.4301395323159087,0.07656686510694602,1.3513779948424052
997,13.253168671950863,74.97625621181814,3.428813154589944,0.07661871702564185,1.3513144708663867
998,13.266461719766262,74.97625621181814,3.4273014775855373,0.07666474088093095,1.3512744978219247
999,13.27975476758166,74.97625621181814,3.4257029476367555,0.07670138072476967,1.3512512614103194
1000,13.293047815397056,74.97625621181814,3.4241244767109964,0.07672580954532224,1.3512377934464361
1001,13.306340863212457,74.97625621181814,3.422673660401109,0.07673612484584535,1.3512273488191138
1002,13.319633911027852,74.97625621181814,3.4214493283182765,0.07673146067582315,1.3512137452348725
1003,13.332926958843249,74.97625621181814,3.4205306134743947,0.07671201674318515,1.3511917284866743
1004,13.346220006658646,74.97625621181814,3.419965077774481,0.07667901524511045,1.3511574315975765
1005,13.359513054474045,74.97625621181814,3.419756883957105,0.07663460390991655,1.3511089803454623
1006,13.37280610228944,74.97625621181814,3.4198564910334865,0.07658172761656669,1.3510472614587143
1007,13.386099150104837,74.97625621181814,3.420153765156483,0.07652398962327715,1.3509768172309855
1008,13.399392197920234,74.97625621181814,3.4204766128341793,0.07646551662249079,1.3509067679666023
1009,13.41268524573563,74.97625621181814,3.4205971308123324,0.07641083047024463,1.3508516005263915
1010,13.425978293551028,74.97625621181814,3.4202467297012613,0.0763647156982673,1.350831608872505
1011,13.439271341366425,74.97625621181814,3.4191406926150583,0.07633205908122459,1.3508727445891344
1012,13.452564389181822,74.97625621181814,3.417011232743626,0.07631762949653446,1.3510056458763269
1013,13.46585743699722,74.97625621181814,3.4136464775935353,0.07632576683633006,1.3512636735682013
1014,13.479150484812616,74.97625621181814,3.4089311934300133,0.07635996045976882,1.3516798965368815
1015,13.492443532628013,74.97625621181814,3.402883801500697,0.07642232117567967,1.3522831302701788
1016,13.50573658044341,74.97625621181814,3.3956836601876206,0.07651298377416452,1.3530933232372198
1017,13.519029628258806,74.97625621181814,3.387683012004008,0.07662951438475908,1.3541167765303923
1018,13.532322676074203,74.97625621181814,3.3793995000880606,0.07676643053938323,1.3553418364919516
1019,13.5456157238896,74.97625621181814,3.3714871457399407,0.07691496242666633,1.3567357797466586
1020,13.558908771704996,74.97625621181814,3.364685940979657,0.07706318261727971,1.3582435836013114
1021,13.572201819520394,74.97625621181814,3.3597537239303437,0.0771966017614304,1.359789124725026
1022,13.585494867335791,74.97625621181814,3.3573881585175656,0.07729926858888059,1.361279075770358
1023,13.59878791515119,74.97625621181814,3.358148913817399,0.0773553350283544,1.3626094017967834
1024,13.612080962966589,74.97625621181814,3.3623900602641505,0.07735096209524664,1.3636739703176746
1025,13.625374010781984,74.97625621181814,3.370211506750366,0.07727634974988178,1.3643744430628764
1026,13.63866705859738,74.97625621181814,3.3814361412026925,0.07712759420743705,1.3646303182848514
1027,13.651960106412778,74.97625621181814,3.3956160156614295,0.07690804976947452,1.3643878054134169
1028,13.665253154228177,74.97625621181814,3.412066940271674,0.07662891174944422,1.3636262720224614
1029,13.678546202043572,74.97625621181814,3.4299269415226536,0.0763088284093482,1.3623613138926018
1030,13.691839249858967,74.97625621181814,3.4482308684705463,0.0759724830914982,1.3606439604270937
1031,13.705132297674366,74.97625621181814,3.4659915448227046,0.07564824881592974,1.358556066975555
1032,13.718425345489765,74.97625621181814,3.482277569722352,0.07536517892914997,1.3562024956029854
1033,13.73171839330516,74.97625621181814,3.496279165733472,0.07514972712139488,1.3537011511398191
1034,13.745011441120557,74.97625621181814,3.507356018452915,0.07502266352741586,1.351172233641171
1035,13.758304488935954,74.97625621181814,3.515064276287596,0.07499665132575335,1.3487281382314853
1036,13.77159753675135,74.97625621181814,3.5191627787562987,0.07507484168547787,1.346465266462139
1037,13.784890584566748,74.97625621181814,3.5196006967446403,0.075250652279757,1.3444586421453921
1038,13.798183632382145,74.97625621181814,3.516492439995644,0.07550871618590499,1.3427597201025465
1039,13.811476680197542,74.97625621181814,3.5100902272624257,0.0758268571930175,1.341397234099555
1040,13.82476972801294,74.97625621181814,3.5007623328594413,0.07617880142265405,1.3403804517848406
1041,13.838062775828336,74.97625621181814,3.4889763651930563,0.0765371999280286,1.3397038761134816
1042,13.851355823643733,74.97625621181814,3.4752833266884866,0.07687650061764278,1.339352309239912
1043,13.86464887145913,74.97625621181814,3.4603005171478163,0.07717527462455953,1.3393052879727745
1044,13.877941919274528,74.97625621181814,3.4446921839495825,0.07741773070425498,1.3395401837355405
1045,13.891234967089924,74.97625621181814,3.429146006602399,0.07759431269774673,1.3400336632579835
1046,13.904528014905322,74.97625621181814,3.4143438817759164,0.07770143807275592,1.3407615862734903
1047,13.91782106272072,74.97625621181814,3.4009270104079556,0.07774056910382263,1.34169769472984
1048,13.931114110536116,74.97625621181814,3.389457235286542,0.0777169022224464,1.3428117087647855
1049,13.944407158351511,74.97625621181814,3.380378408431762,0.07763800056343421,1.3440676434619347
1050,13.95770020616691,74.97625621181814,3.373982772614121,0.07751264186271623,1.3454230841293184
1051,13.970993253982307,74.97625621181814,3.370387579755298,0.07735002611017261,1.346829834806204
1052,13.984286301797704,74.97625621181814,3.369526315332183,0.07715936523008775,1.3482359991814008
1053,13.9975793496131,74.97625621181814,3.3711570710326484,0.07694979041361016,1.3495892457321088
1054,14.010872397428498,74.97625621181814,3.374888142960708,0.07673044580886101,1.3508407612022864
1055,14.024165445243897,74.97625621181814,3.380218307598998,0.07651060263710988,1.351949253299301
1056,14.037458493059292,74.97625621181814,3.3865869572727547,0.0762996426362248,1.3528843523016685
1057,14.050751540874687,74.97625621181814,3.393427799662892,0.07610681605303572,1.3536288744555658
1058,14.064044588690086,74.97625621181814,3.400219411460669,0.07594075802329996,1.354179615665822
1059,14.077337636505485,74.97625621181814,3.406526633330796,0.07580882672538013,1.3545465947025004
1060,14.09063068432088,74.97625621181814,3.412028430281496,0.07571638731320265,1.3547509103903526
1061,14.103923732136275,74.97625621181814,3.4165300749663627,0.07566619357786841,1.3548215738339897
1062,14.117216779951674,74.97625621181814,3.4199599088279062,0.07565801016934019,1.3547917961875446
1063,14.13050982776707,74.97625621181814,3.422353070273637,0.07568857589907836,1.3546952441349256
1064,14.143802875582468,74.97625621181814,3.4238261130278365,0.07575193931602274,1.3545627253237054
1065,14.157095923397868,74.97625621181814,3.424547180524154,0.07584011844663224,1.3544196536918147
1066,14.170388971213264,74.97625621181814,3.4247063286824315,0.07594397932202805,1.3542844965528191
1067,14.18368201902866,74.97625621181814,3.424489823777864,0.07605420441912285,1.3541682495705736
1068,14.196975066844058,74.97625621181814,3.4240610132672096,0.0761622165887909,1.3540748468361006
1069,14.210268114659454,74.97625621181814,3.423548950444511,0.07626093464905252,1.354002308503937
1070,14.223561162474851,74.97625621181814,3.423044611161879,0.07634527230934349,1.3539443665985371
1071,14.236854210290248,74.97625621181814,3.422603475519714,0.07641234287464907,1.3538922913042752
1072,14.250147258105644,74.97625621181814,3.4222525750816724,0.07646138165178579,1.35383665975275
1073,14.263440305921042,74.97625621181814,3.4219998494661983,0.07649343706538025,1.3537688578062141
1074,14.27673335373644,74.97625621181814,3.4218437590534116,0.07651090587166487,1.3536821721077816
1075,14.290026401551836,74.97625621181814,3.4217814568121687,0.07651699653404175,1.3535724046380828
1076,14.303319449367232,74.97625621181814,3.421814310164961,0.0765151999271048,1.353438016367368
1077,14.31661249718263,74.97625621181814,3.421950078023532,0.07650883190571967,1.3532798729803457
1078,14.329905544998027,74.97625621181814,3.4222015214034016,0.07650069223196904,1.3531007180916692
1079,14.343198592813424,74.97625621181814,3.4225816362290673,0.07649286279048678,1.3529045331006115
1080,14.35649164062882,74.97625621181814,3.423096058758998,0.07648664796639995,1.3526959543350796
1081,14.369784688444218,74.97625621181814,3.4237335388175243,0.07648264351992179,1.3524799052976875
1082,14.383077736259615,74.97625621181814,3.4244557262259523,0.07648090825362504,1.352261564205378
1083,14.396370784075012,74.97625621181814,3.425187862538326,0.07648120524492993,1.35204672619467
1084,14.40966383189041,74.97625621181814,3.4258122607613646,0.0764832756113543,1.3518425397386515
1085,14.422956879705806,74.97625621181814,3.426166596860906,0.07648710645563035,1.351658505597276
1086,14.436249927521205,74.97625621181814,3.426048913930672,0.0764931547019835,1.3515075357844233
1087,14.449542975336602,74.97625621181814,3.4252307495135286,0.07650248962717568,1.351406795587022
1088,14.462836023152,74.97625621181814,3.423478885122138,0.0765168197699539,1.3513780123434735
1089,14.476129070967396,74.97625621181814,3.4205849158909194,0.07653837634070489,1.3514469484660523
1090,14.489422118782793,74.97625621181814,3.4164002856158504,0.07656963738342847,1.3516418152650884
1091,14.50271516659819,74.97625621181814,3.410872871032164,0.07661289624612468,1.3519905496206555
1092,14.516008214413588,74.97625621181814,3.404079950928079,0.07666970418489842,1.3525170738676198
1093,14.529301262228984,74.97625621181814,3.3962517957752896,0.07674024757806168,1.353236881786838
1094,14.54259431004438,74.97625621181814,3.387780486683979,0.07682275024020976,1.354152500202337
1095,14.555887357859778,74.97625621181814,3.379210017223537,0.07691301385259985,1.3552495218664264
1096,14.569180405675176,74.97625621181814,3.371205708743775,0.0770042171936269,1.356493950298287
1097,14.582473453490572,74.97625621181814,3.3645032709577536,0.07708708104471255,1.3578315146357125
1098,14.595766501305969,74.97625621181814,3.3598413036473653,0.07715046729672441,1.3591893870050913
1099,14.609059549121366,74.97625621181814,3.3578850376238614,0.07718242252325098,1.3604803933664131
1100,14.622352596936762,74.97625621181814,3.359151290998347,0.0771716041288515,1.3616094903689133
1101,14.63564564475216,74.97625621181814,3.3639444928926996,0.07710894335449031,1.3624820327738216
1102,14.648938692567556,74.97625621181814,3.372312318962292,0.07698931991835826,1.3630129862053963
1103,14.662231740382952,74.97625621181814,3.384027164768786,0.07681297773195211,1.3631358225093309
1104,14.67552478819835,74.97625621181814,3.3985962588053553,0.07658641437000899,1.3628097745469776
1105,14.688817836013747,74.97625621181814,3.4152992433531804,0.07632252685289348,1.3620244469421716
1106,14.702110883829144,74.97625621181814,3.433248271413196,0.07603989062310038,1.3608011938198339
1107,14.71540393164454,74.97625621181814,3.451462740242484,0.0757611786910093,1.3591911125027998
1108,14.72869697945994,74.97625621181814,3.4689492052732094,0.07551087286003773,1.357269978800395
1109,14.741990027275335,74.97625621181814,3.484777025545187,0.07531255135175097,1.355130884286759
1110,14.755283075090734,74.97625621181814,3.4981418088889074,0.07518613282091557,1.3528756400754538
1111,14.768576122906133,74.97625621181814,3.508411375470029,0.07514549275903443,1.3506061311489532
1112,14.781869170721528,74.97625621181814,3.5151521539373567,0.07519680849652331,1.3484167213283347
1113,14.795162218536923,74.97625621181814,3.518136893041529,0.07533784284620922,1.3463885428041562
1114,14.808455266352322,74.97625621181814,3.517336759718628,0.07555823702271139,1.3445861125365381
1115,14.82174831416772,74.97625621181814,3.5129027585592048,0.07584077700994288,1.3430562816132798
1116,14.835041361983116,74.97625621181814,3.5051426772463965,0.07616345484781109,1.3418291307456631
1117,14.848334409798513,74.97625621181814,3.49449819526333,0.07650199375410242,1.340920151636378
1118,14.86162745761391,74.97625621181814,3.481522912478645,0.0768324374781421,1.3403329475237515
1119,14.874920505429309,74.97625621181814,3.466859751055166,0.07713343084934297,1.3400617584973071
1120,14.888213553244704,74.97625621181814,3.451216094067733,0.07738790585958241,1.340093339206629
1121,14.9015066010601,74.97625621181814,3.43533511242775,0.07758401456641392,1.3404080581306117
1122,14.914799648875498,74.97625621181814,3.4199619993957056,0.07771528856497154,1.340980454505206
1123,14.928092696690896,74.97625621181814,3.405805024226947,0.077780128091856,1.341779539429427
1124,14.941385744506292,74.97625621181814,3.393493134657235,0.0777808425675517,1.3427688543411527
1125,14.954678792321689,74.97625621181814,3.383533685434789,0.07772255639427512,1.3439064328324293
1126,14.967971840137086,74.97625621181814,3.3762752286994595,0.07761225605485837,1.3451453339235397
1127,14.981264887952484,74.97625621181814,3.3718807565447797,0.07745810027065088,1.3464353347307911
1128,14.99455793576788,74.97625621181814,3.370316134059675,0.0772690006889061,1.347725716487016
1129,15.007850983583277,74.97625621181814,3.3713567508305866,0.07705443537454297,1.3489686615825247
1130,15.021144031398675,74.97625621181814,3.3746129388280663,0.07682440605347941,1.3501226951297214
1131,15.034437079214072,74.97625621181814,3.3795719180813175,0.07658940383768943,1.3511556117329204
1132,15.04773012702947,74.97625621181814,3.385651474485401,0.07636024915016196,1.3520464120662428
1133,15.061023174844866,74.97625621181814,3.392258739621399,0.07614771703653653,1.3527859451790747
1134,15.074316222660263,74.97625621181814,3.3988466781808766,0.07596193037531493,1.3533761749748696
1135,15.08760927047566,74.97625621181814,3.4049613282809745,0.07581158080635184,1.3538282200378244
1136,15.100902318291055,74.97625621181814,3.4102743833339355,0.07570310037805207,1.35415951088568
1137,15.114195366106454,74.97625621181814,3.414598046534698,0.07563994097499738,1.3543905340019546
1138,15.127488413921853,74.97625621181814,3.417881792087166,0.07562211613686255,1.3545416694272125
1139,15.140781461737248,74.97625621181814,3.420193253024251,0.07564612442022536,1.3546305777834977
1140,15.154074509552643,74.97625621181814,3.4216875006727188,0.0757053130057122,1.3546704690761755
1141,15.167367557368042,74.97625621181814,3.4225701965147133,0.07579065070643927,1.3546694169486353
1142,15.18066060518344,74.97625621181814,3.4230603614254305,0.07589178044841383,1.3546307011929828
1143,15.193953652998836,74.97625621181814,3.4233578440904515,0.07599817942995646,1.3545539998094385
1144,15.207246700814231,74.97625621181814,3.423619190032234,0.07610027808607725,1.354437134236371
1145,15.22053974862963,74.97625621181814,3.423943905958158,0.0761904078199158,1.354278011584997
1146,15.233832796445029,74.97625621181814,3.424371403099182,0.0762634563904382,1.354076408838966
1147,15.247125844260424,74.97625621181814,3.424887352683023,0.07631715201158167,1.3538352996183782
1148,15.26041889207582,74.97625621181814,3.425437003312145,0.07635196388384212,1.3535615209783332
1149,15.273711939891218,74.97625621181814,3.425942397689266,0.07637066751100598,1.353265698171213
1150,15.287004987706617,74.97625621181814,3.426320421545002,0.07637766720818082,1.352961469562294
1151,15.300298035522014,74.97625621181814,3.4264990897674608,0.07637819251773262,1.35266416231756
1152,15.31359108333741,74.97625621181814,3.4264301804614945,0.07637748888038975,1.3523891454165775
1153,15.326884131152807,74.97625621181814,3.426097096981569,0.07638010861097368,1.352150119423771
1154,15.340177178968204,74.97625621181814,3.4255176265886154,0.07638938092654272,1.3519575903213237
1155,15.3534702267836,74.97625621181814,3.424741952608872,0.07640710544791601,1.3518177248306276
1156,15.366763274598998,74.97625621181814,3.4238467119928737,0.07643347818619094,1.351731711578088
1157,15.380056322414395,74.97625621181814,3.4229260627597484,0.07646722770511313,1.3516956739526222
1158,15.393349370229792,74.97625621181814,3.4220807160031916,0.07650591582289343,1.3517011126635092
1159,15.40664241804519,74.97625621181814,3.421405780593605,0.07654634417351897,1.3517358093124332
1160,15.419935465860586,74.97625621181814,3.420978157231607,0.07658500562938178,1.3517850996218157
1161,15.433228513675983,74.97625621181814,3.4208441847290354,0.07661852655424334,1.3518334219050943
1162,15.44652156149138,74.97625621181814,3.4210083331527286,0.07664405907811757,1.35186605330548
1163,15.459814609306775,74.97625621181814,3.421423953331569,0.07665959810082955,1.3518709515032785
1164,15.473107657122174,74.97625621181814,3.4219873710647675,0.0766642115561628,1.3518406124667728
1165,15.486400704937571,74.97625621181814,3.4225368481551866,0.07665818153717341,1.351773829316097
1166,15.499693752752968,74.97625621181814,3.4228579830740635,0.07664305675680083,1.3516771944364723
1167,15.512986800568363,74.97625621181814,3.422696857653606,0.07662161401257976,1.3515661359384012
1168,15.526279848383762,74.97625621181814,3.4217815625255934,0.07659772021251794,1.3514652374828007
1169,15.53957289619916,74.97625621181814,3.4198516443098934,0.07657608084419085,1.3514075791203253
1170,15.552865944014556,74.97625621181814,3.416693609995488,0.07656185983564247,1.3514328772499407
1171,15.566158991829951,74.97625621181814,3.4121791068282263,0.07656016337600392,1.3515843079653787
1172,15.57945203964535,74.97625621181814,3.4063010677737355,0.07657539858090806,1.35190407041955
1173,15.592745087460749,74.97625621181814,3.3992023034477086,0.07661054632012909,1.3524279686583944
1174,15.606038135276146,74.97625621181814,3.3911910703043167,0.07666642211334834,1.3531795277333936
1175,15.619331183091544,74.97625621181814,3.38273919888011,0.07674103251897176,1.3541643660886054
1176,15.63262423090694,74.97625621181814,3.37445999713306,0.07682915731609831,1.3553656704502297
1177,15.645917278722337,74.97625621181814,3.367065217659548,0.07692229022704937,1.356741616311611
1178,15.659210326537734,74.97625621181814,3.361303689472026,0.07700904409442379,1.3582254207511193
1179,15.67250337435313,74.97625621181814,3.3578881974491868,0.07707606851721986,1.3597283877951103
1180,15.685796422168528,74.97625621181814,3.3574196601889676,0.0771094553214781,1.3611458557019087
1181,15.699089469983925,74.97625621181814,3.360318102549156,0.07709652923094384,1.3623656151980341
1182,15.71238251779932,74.97625621181814,3.3667692625725394,0.07702782103326591,1.363278188867072
1183,15.725675565614718,74.97625621181814,3.3766939707472945,0.0768989203327109,1.363787945423263
1184,15.738968613430115,74.97625621181814,3.3897445219632356,0.07671187095611516,1.3638234534169398
1185,15.752261661245512,74.97625621181814,3.4053285836700504,0.07647581880660345,1.3633454542213017
1186,15.76555470906091,74.97625621181814,3.4226574208675697,0.0762067182762391,1.3623513704594623
1187,15.778847756876306,74.97625621181814,3.4408120165968685,0.07592603764738089,1.3608758412183104
1188,15.792140804691703,74.97625621181814,3.458818571153444,0.07565856734846606,1.3589872872060769
1189,15.8054338525071,74.97625621181814,3.4757242054438158,0.07542959843137807,1.3567810377142495
1190,15.818726900322496,74.97625621181814,3.490664528741328,0.07526187303558926,1.3543700144442323
1191,15.832019948137894,74.97625621181814,3.502916809808313,0.07517278300150472,1.3518742668037986
1192,15.845312995953291,74.97625621181814,3.511935328737345,0.07517224789048096,1.349410740037463
1193,15.858606043768688,74.97625621181814,3.5173683118598262,0.07526154563396253,1.3470845208101332
1194,15.871899091584089,74.97625621181814,3.519058135105672,0.0754332320578063,1.3449824766345106
1195,15.885192139399484,74.97625621181814,3.5170291013319246,0.07567219420023542,1.343169752467351
1196,15.89848518721488,74.97625621181814,3.511469588144076,0.07595771036557543,1.3416890978631382
1197,15.911778235030278,74.97625621181814,3.5027139799238176,0.07626616920213133,1.34056256248714
1198,15.925071282845677,74.97625621181814,3.491225007240384,0.07657397849170755,1.3397947925470317
1199,15.938364330661072,74.97625621181814,3.4775746326335297,0.07686019508732873,1.3393770316662807
1200,15.951657378476469,74.97625621181814,3.4624221300672655,0.077108488299984,1.3392909854950403
1201,15.964950426291866,74.97625621181814,3.446488154136753,0.07730819133118705,1.339511921065932
1202,15.978243474107265,74.97625621181814,3.430523398791065,0.07745437520705885,1.3400106887874672
1203,15.99153652192266,74.97625621181814,3.415271248978781,0.07754705867441333,1.340754699990101
1204,16.004829569738057,74.97625621181814,3.401425458476868,0.07758981103740456,1.3417081318552269
1205,16.018122617553455,74.97625621181814,3.389585746273651,0.07758810526567496,1.3428317184386087
1206,16.03141566536885,74.97625621181814,3.3802157817216796,0.0775478173731301,1.3440825651798287
1207,16.04470871318425,74.97625621181814,3.3736088697797064,0.07747418813331544,1.3454144897864178
1208,16.058001760999645,74.97625621181814,3.369866476753865,0.07737138622264937,1.3467792371895448
1209,16.071294808815043,74.97625621181814,3.368893506380583,0.07724265054222999,1.3481285852579854
1210,16.08458785663044,74.97625621181814,3.37041213456483,0.07709088088502569,1.3494170835211856
1211,16.097880904445837,74.97625621181814,3.3739934183729643,0.0769194610488245,1.3506050114963815
1212,16.111173952261233,74.97625621181814,3.3791032992088965,0.07673305228401484,1.3516610775998656
1213,16.12446700007663,74.97625621181814,3.3851575115286856,0.0765381132272212,1.352564409458198
1214,16.137760047892026,74.97625621181814,3.391578690804252,0.07634297686243866,1.3533055052188143
1215,16.151053095707425,74.97625621181814,3.3978488501616035,0.07615742293385347,1.3538859925907074
1216,16.16434614352282,74.97625621181814,3.4035512327475463,0.07599180026506748,1.3543172390485123
1217,16.17763919133822,74.97625621181814,3.4083971578068786,0.07585585279549481,1.354618034151252
1218,16.190932239153614,74.97625621181814,3.4122358557968027,0.07575746661842953,1.3548116926554068
1219,16.204225286969013,74.97625621181814,3.4150479919386707,0.07570157255321844,1.3549229872614108
1220,16.21751833478441,74.97625621181814,3.416925721893926,0.07568940934579167,1.354975309131845
1221,16.230811382599807,74.97625621181814,3.418043393141011,0.07571828787464327,1.3549883826998879
1222,16.244104430415202,74.97625621181814,3.418623599549714,0.07578191098235924,1.354976748385633
1223,16.2573974782306,74.97625621181814,3.4189032372822656,0.07587119299475067,1.3549490970273836
1224,16.270690526045996,74.97625621181814,3.419103504685245,0.07597540967257631,1.3549084169290762
1225,16.283983573861395,74.97625621181814,3.419406648176675,0.07608347063660593,1.3548528171880208
1226,16.297276621676794,74.97625621181814,3.4199409441163717,0.07618514656249131,1.3547768302940428
1227,16.31056966949219,74.97625621181814,3.4207741517256287,0.07627211443842324,1.3546729751336635
1228,16.323862717307588,74.97625621181814,3.4219146446872597,0.07633869625819899,1.3545333732069755
