,time,sample_rate,Red,Green,Blue
0,0.0,74.44181549706052,9.954804837381051,0.03078100649674676,1.221427060678124
1,0.0132928506794362,74.44181549706052,9.969242605161526,0.03084359412245623,1.2234805856926418
2,0.0265857013588724,74.44181549706052,9.981198916057295,0.03089781322199427,1.225220770317904
3,0.0398785520383086,74.44181549706052,9.98903942560654,0.03093739627493869,1.2264303161677277
4,0.0531714027177448,74.44181549706052,9.99214713277666,0.030959397327531144,1.2270192176669514
5,0.066464253397181,74.44181549706052,9.990970392120072,0.030964383850477353,1.227031288621587
6,0.0797571040766172,74.44181549706052,9.986853705386455,0.0309559132651167,1.2266234034071302
7,0.0930499547560534,74.44181549706052,9.981736544496002,0.030939584344791445,1.226028236420666
8,0.1063428054354896,74.44181549706052,9.977765669062546,0.03092181716276149,1.2255061727780723
9,0.1196356561149258,74.44181549706052,9.976867763818985,0.030908505650779107,1.2252920125996893
10,0.132928506794362,74.44181549706052,9.98036912905929,0.03090381949036281,1.2255473588831516
11,0.1462213574737982,74.44181549706052,9.988777228089189,0.03090954744639671,1.2263338392319594
12,0.1595142081532344,74.44181549706052,10.001782523646144,0.03092518564259408,1.2276149883810377
13,0.1728070588326706,74.44181549706052,10.018426338612421,0.03094856663070355,1.2292792171712021
14,0.1860999095121068,74.44181549706052,10.037327984180594,0.030976641783951455,1.231169412038646
15,0.199392760191543,74.44181549706052,10.056898973908915,0.03100616342500731,1.2331097915273683
16,0.2126856108709792,74.44181549706052,10.075521612989668,0.031034185701010058,1.2349272272952392
17,0.2259784615504154,74.44181549706052,10.09169236793958,0.031058381278832252,1.236467187631203
18,0.2392713122298516,74.44181549706052,10.104135523296952,0.031077197646378004,1.2376053154459876
19,0.2525641629092878,74.44181549706052,10.111891962587485,0.031089885487716195,1.238255562798029
20,0.265857013588724,74.44181549706052,10.11438585925295,0.031096431735825145,1.2383752556413135
21,0.2791498642681602,74.44181549706052,10.111467992097634,0.031097427194719685,1.2379670635133784
22,0.2924427149475964,74.44181549706052,10.103429775625322,0.03109389539856375,1.2370777541046103
23,0.3057355656270326,74.44181549706052,10.090981875629478,0.031087106543470158,1.2357936572997308
24,0.3190284163064688,74.44181549706052,10.075195490010401,0.031078397738759034,1.2342329288637222
25,0.332321266985905,74.44181549706052,10.057409216180123,0.031069017824207342,1.2325350166891502
26,0.3456141176653413,74.44181549706052,10.039108799793944,0.031060011043213553,1.2308481111376843
27,0.3589069683447775,74.44181549706052,10.021791103784388,0.031052148917930022,1.229315704628079
28,0.3721998190242137,74.44181549706052,10.006826522619203,0.031045913917838053,1.2280636136518535
29,0.3854926697036498,74.44181549706052,9.995335030364783,0.03104153213085887,1.2271889011252288
30,0.398785520383086,74.44181549706052,9.98808981845792,0.031039045638011936,1.2267520399760408
31,0.4120783710625222,74.44181549706052,9.985459245401996,0.031038409412172292,1.226773144859821
32,0.4253712217419584,74.44181549706052,9.987393052772997,0.03103959307701317,1.2272322544093617
33,0.4386640724213946,74.44181549706052,9.993452648109415,0.031042665718331034,1.2280732352628596
34,0.4519569231008308,74.44181549706052,10.002878755204842,0.031047843229266854,1.2292109620074525
35,0.465249773780267,74.44181549706052,10.014685580651088,0.03105548315334346,1.2305411392363288
36,0.4785426244597032,74.44181549706052,10.027769453995319,0.031066021537290538,1.2319515130190895
37,0.4918354751391395,74.44181549706052,10.041019526593116,0.031079858572295962,1.233332993786413
38,0.5051283258185757,74.44181549706052,10.053418421763102,0.03109721232385818,1.2345894156002342
39,0.5184211764980119,74.44181549706052,10.06412308370802,0.031117969631511467,1.2356449984644442
40,0.5317140271774481,74.44181549706052,10.072519913038311,0.03114156763862269,1.2364489790653896
41,0.5450068778568843,74.44181549706052,10.078252223746127,0.03116693687611305,1.2369772859795898
42,0.5582997285363205,74.44181549706052,10.08122143502087,0.03119252747620722,1.2372314934392903
43,0.5715925792157567,74.44181549706052,10.081565881522698,0.031216425635288363,1.2372355502737606
44,0.5848854298951929,74.44181549706052,10.079622542115196,0.031236550728961976,1.2370309285208112
45,0.5981782805746291,74.44181549706052,10.075877445457879,0.03125090778286368,1.2366708754870637
46,0.6114711312540653,74.44181549706052,10.070910257618687,0.03125785832551765,1.23621440766774
47,0.6247639819335015,74.44181549706052,10.065337892821775,0.03125636690729679,1.2357205867399623
48,0.6380568326129377,74.44181549706052,10.05976117706376,0.03124618187003007,1.235243496788357
49,0.6513496832923739,74.44181549706052,10.054717805376015,0.031227919135144278,1.2348282196688896
50,0.6646425339718101,74.44181549706052,10.050644129095156,0.03120303503060018,1.2345079932396483
51,0.6779353846512463,74.44181549706052,10.047847666498486,0.031173690174037046,1.2343026377056965
52,0.6912282353306826,74.44181549706052,10.046491582755735,0.031142518583355868,1.2342182463488958
53,0.7045210860101188,74.44181549706052,10.046591669779584,0.031112329884681326,1.2342480554859332
54,0.717813936689555,74.44181549706052,10.04802554574599,0.03108578554659864,1.2343743337660413
55,0.7311067873689912,74.44181549706052,10.050552912526982,0.03106509495410942,1.2345710651959019
56,0.7443996380484273,74.44181549706052,10.05384483174969,0.031051773056981934,1.234807148559389
57,0.7576924887278635,74.44181549706052,10.057519214299754,0.03104649150062789,1.2350498036379307
58,0.7709853394072997,74.44181549706052,10.061179177825315,0.031049041353429917,1.2352678667834214
59,0.7842781900867359,74.44181549706052,10.064450704251009,0.031058407349405723,1.2354346704337267
60,0.7975710407661721,74.44181549706052,10.067016167790191,0.031072934137514538,1.2355302363341463
61,0.8108638914456083,74.44181549706052,10.068640791434428,0.03109055430079032,1.2355426288655893
62,0.8241567421250445,74.44181549706052,10.06918982237847,0.031109047246546267,1.235468494321123
63,0.8374495928044807,74.44181549706052,10.068635113706762,0.03112629756003659,1.2353128676859444
64,0.8507424434839169,74.44181549706052,10.067051085527561,0.031140520506322694,1.2350882565090322
65,0.8640352941633531,74.44181549706052,10.064601544338908,0.031150429058784755,1.234813045129939
66,0.8773281448427893,74.44181549706052,10.061519514296382,0.031155329678582765,1.234509403543222
67,0.8906209955222255,74.44181549706052,10.058082045359924,0.03115514413817599,1.2342009562894436
68,0.9039138462016616,74.44181549706052,10.054582179034378,0.03115036054285922,1.2339104588613738
69,0.917206696881098,74.44181549706052,10.051300885491928,0.031141923886969177,1.233657707070013
70,0.930499547560534,74.44181549706052,10.048481872665649,0.031131084557578244,1.233457873490007
71,0.9437923982399704,74.44181549706052,10.046311714097214,0.031119227354094597,1.2333204172122374
72,0.9570852489194064,74.44181549706052,10.044907107800263,0.031107703476166013,1.2332486493417292
73,0.9703780995988428,74.44181549706052,10.044309947575512,0.031097685277684108,1.2332399606580329
74,0.983670950278279,74.44181549706052,10.044489398139866,0.031090058834503873,1.2332866385066512
75,0.9969638009577152,74.44181549706052,10.045349597307723,0.03108536297816142,1.2333771298775034
76,1.0102566516371514,74.44181549706052,10.046742029840301,0.031083776341940275,1.2334975598866078
77,1.0235495023165877,74.44181549706052,10.048481514659382,0.031085147266115925,1.2336332990735615
78,1.0368423529960238,74.44181549706052,10.05036409806091,0.031089056213432352,1.2337703917908733
79,1.05013520367546,74.44181549706052,10.052185071280864,0.031094897445836656,1.2338967063703765
80,1.0634280543548962,74.44181549706052,10.053755814200587,0.031101966389633792,1.2340027342635265
81,1.0767209050343325,74.44181549706052,10.054918683469166,0.031109541076143606,1.234082035423869
82,1.0900137557137686,74.44181549706052,10.055559577885148,0.031116949537110687,1.2341313866957426
83,1.1033066063932049,74.44181549706052,10.055618086695537,0.031123619088664067,1.2341507278007242
84,1.116599457072641,74.44181549706052,10.055095204104052,0.03112910713903188,1.2341430090107939
85,1.1298923077520773,74.44181549706052,10.054058463502017,0.031133115848734325,1.234114024038893
86,1.1431851584315134,74.44181549706052,10.052644035860878,0.03113549434974216,1.234072264520309
87,1.1564780091109497,74.44181549706052,10.051054925930446,0.0311362323066642,1.2340287676325137
88,1.1697708597903858,74.44181549706052,10.049554014670989,0.031135447636060548,1.2339968603180194
89,1.183063710469822,74.44181549706052,10.04845050356473,0.031133369614203286,1.233991651037777
90,1.196356561149258,74.44181549706052,10.048078494830019,0.031130316939139962,1.2340291032212283
91,1.2096494118286945,74.44181549706052,10.048767135736068,0.031126669171774125,1.2341245602725908
92,1.2229422625081303,74.44181549706052,10.050803018598609,0.031122829925831267,1.2342906871887425
93,1.2362351131875668,74.44181549706052,10.054387270206982,0.031119181563405755,1.2345349406581245
94,1.249527963867003,74.44181549706052,10.059591724028204,0.03111603393046305,1.2348568529056283
95,1.2628208145464392,74.44181549706052,10.066320329150727,0.03111357324086777,1.23524557498541
96,1.276113665225875,74.44181549706052,10.074283011115618,0.031111820479126497,1.2356782265796207
97,1.2894065159053116,74.44181549706052,10.082989079360466,0.03111061027226889,1.2361196006713193
98,1.3026993665847475,74.44181549706052,10.091765669099141,0.031109599901399766,1.2365236494001521
99,1.315992217264184,74.44181549706052,10.099803447292967,0.031108313503729845,1.2368369357044027
100,1.32928506794362,74.44181549706052,10.106227337697762,0.031106219140141868,1.237003907798899
101,1.3425779186230564,74.44181549706052,10.11018637057274,0.031102827945597187,1.236973499011746
102,1.3558707693024925,74.44181549706052,10.110954585604436,0.03109779740581729,1.236706245708293
103,1.3691636199819288,74.44181549706052,10.108031272433637,0.031091017235189103,1.2361809190434203
104,1.3824564706613651,74.44181549706052,10.10122456068568,0.03108265783093726,1.2353996303778427
105,1.3957493213408012,74.44181549706052,10.090703063990373,0.031073167890659666,1.2343905124351402
106,1.4090421720202375,74.44181549706052,10.077005985082307,0.031063218086688826,1.2332073808021529
107,1.4223350226996736,74.44181549706052,10.061008451686638,0.031053599263367416,1.2319261948940177
108,1.43562787337911,74.44181549706052,10.043844798505337,0.0310450939790495,1.230638595868991
109,1.448920724058546,74.44181549706052,10.02679839000303,0.031038347111330453,1.2294432272699094
110,1.4622135747379823,74.44181549706052,10.011171473701046,0.03103376194155923,1.2284358746474833
111,1.4755064254174184,74.44181549706052,9.99815149477307,0.031031442572139117,1.2276996495492678
112,1.4887992760968547,74.44181549706052,9.988690800338029,0.03103119632186254,1.2272964600355414
113,1.5020921267762908,74.44181549706052,9.983414695851513,0.031032601690424527,1.2272607904442212
114,1.515384977455727,74.44181549706052,9.9825687156398,0.03103513435220268,1.2275963986182663
115,1.5286778281351632,74.44181549706052,9.986009931422721,0.031038327558497558,1.2282761665342132
116,1.5419706788145997,74.44181549706052,9.993240206932107,0.0310419314837262,1.2292450720324017
117,1.5552635294940356,74.44181549706052,10.003474036288015,0.031046031868033258,1.2304259028383846
118,1.568556380173472,74.44181549706052,10.015730793962804,0.031051092695967255,1.2317269565233788
119,1.581849230852908,74.44181549706052,10.028939365312171,0.03105790108148457,1.2330507732719274
120,1.5951420815323445,74.44181549706052,10.042042298370855,0.031067413201606726,1.2343029440850775
121,1.6084349322117804,74.44181549706052,10.054088048651368,0.031080523655675454,1.235400137932929
122,1.6217277828912169,74.44181549706052,10.06430309104596,0.031097801303893217,1.2362766586674945
123,1.6350206335706527,74.44181549706052,10.072139390746466,0.03111924701889666,1.2368890478106565
124,1.648313484250089,74.44181549706052,10.077296238065369,0.031144129343631026,1.2372184636440404
125,1.6616063349295254,74.44181549706052,10.07971830777763,0.031170942177569983,1.2372707717689948
126,1.6748991856089614,74.44181549706052,10.07957373542028,0.031197506688359602,1.237074467599334
127,1.6881920362883978,74.44181549706052,10.077216994500978,0.03122121226906009,1.2366767133629049
128,1.7014848869678338,74.44181549706052,10.073141579313658,0.031239364064539317,1.2361379094846974
129,1.7147777376472702,74.44181549706052,10.067927218371286,0.031249582651744396,1.2355253297650794
130,1.7280705883267062,74.44181549706052,10.062185837189844,0.031250188306145094,1.234906425288895
131,1.7413634390061423,74.44181549706052,10.056509956509151,0.031240500492600323,1.2343424339166535
132,1.7546562896855786,74.44181549706052,10.051426739234017,0.031220998347058212,1.2338829097939559
133,1.767949140365015,74.44181549706052,10.047360461817238,0.031193317271664512,1.2335617026309544
134,1.781241991044451,74.44181549706052,10.04460568815282,0.031160081800090552,1.233394768850767
135,1.794534841723887,74.44181549706052,10.043312760329767,0.031124591375118527,1.2333799959899447
136,1.807827692403324,74.44181549706052,10.043486332397384,0.03109039895099686,1.233498989318149
137,1.82112054308276,74.44181549706052,10.04499658646807,0.031060848121391108,1.2337205360375396
138,1.834413393762196,74.44181549706052,10.047601599221933,0.031038644579331046,1.2340052621631814
139,1.847706244441632,74.44181549706052,10.050978245487693,0.03102552995831487,1.2343108620475463
140,1.860999095121068,74.44181549706052,10.054758219037597,0.03102210545704702,1.234597232741923
141,1.8742919458005045,74.44181549706052,10.058565361618545,0.03102782346684325,1.234830892146428
142,1.8875847964799408,74.44181549706052,10.062050580195299,0.031041137311529424,1.2349881917913421
143,1.900877647159377,74.44181549706052,10.064921165326346,0.031059777552142315,1.2350570230769449
144,1.914170497838813,74.44181549706052,10.066962181326467,0.031081105898186502,1.235036928271075
145,1.9274633485182493,74.44181549706052,10.068048621079054,0.03110248724909869,1.2349377687395497
146,1.9407561991976856,74.44181549706052,10.068147983844549,0.031121622249297275,1.2347773341102484
147,1.9540490498771217,74.44181549706052,10.067313750510257,0.03113679544668828,1.234578361601618
148,1.967341900556558,74.44181549706052,10.06567135435081,0.031147012626743784,1.2343653711816116
149,1.980634751235994,74.44181549706052,10.063399551127597,0.03115202183603257,1.2341616718751698
150,1.9939276019154304,74.44181549706052,10.060710073334961,0.03115223228502954,1.2339868757281651
151,2.0072204525948667,74.44181549706052,10.057827173219481,0.031148558577817044,1.2338551724957898
152,2.020513303274303,74.44181549706052,10.054968193225688,0.031142223117462488,1.233774482011905
153,2.033806153953739,74.44181549706052,10.052326735649917,0.031134550048377185,1.233746469962152
154,2.047099004633175,74.44181549706052,10.050059884228821,0.03112678072956229,1.2337673026222211
155,2.0603918553126115,74.44181549706052,10.048280234908844,0.031119932854927673,1.2338289332781867
156,2.073684705992048,74.44181549706052,10.047052857488987,0.031114714833981174,1.2339206658983686
157,2.086977556671484,74.44181549706052,10.046396825840393,0.031111496725632203,1.2340307350282302
158,2.10027040735092,74.44181549706052,10.046290394521204,0.031110330552970574,1.2341476748921667
159,2.1135632580303563,74.44181549706052,10.046678331228085,0.03111100715777562,1.2342613184287106
160,2.1268561087097924,74.44181549706052,10.047479960674515,0.031113134231839725,1.234363354596468
161,2.1401489593892284,74.44181549706052,10.048597101843837,0.03111622050588815,1.2344474613794365
162,2.1534418100686645,74.44181549706052,10.049921410933182,0.031119753562169367,1.234509104238738
163,2.166734660748101,74.44181549706052,10.051340617507847,0.03112326244199911,1.2345451323632184
164,2.180027511427537,74.44181549706052,10.05274333782194,0.03112636026952057,1.2345533139173077
165,2.193320362106973,74.44181549706052,10.054022556761748,0.031128765842357714,1.23453193187459
166,2.2066132127864098,74.44181549706052,10.055078218553067,0.031130306147658382,1.2344795257963803
167,2.219906063465846,74.44181549706052,10.055819596336407,0.031130903877509223,1.2343948255867419
168,2.233198914145282,74.44181549706052,10.056168209026746,0.031130555228278567,1.2342768911219038
169,2.246491764824718,74.44181549706052,10.05606199461174,0.031129303654055793,1.2341254506037749
170,2.2597846155041545,74.44181549706052,10.055461222205087,0.031127214934055545,1.2339414175410128
171,2.27307746618359,74.44181549706052,10.054356235660803,0.031124358054556395,1.2337275537355217
172,2.2863703168630267,74.44181549706052,10.052776594073336,0.031120795131009637,1.2334892251047473
173,2.299663167542463,74.44181549706052,10.050800557631332,0.031116581999864383,1.2332351637389865
174,2.3129560182219,74.44181549706052,10.048563239220533,0.03111177925229031,1.2329781052938855
175,2.3262488689013354,74.44181549706052,10.046261214098353,0.031106471439708742,1.2327351256278538
176,2.3395417195807715,74.44181549706052,10.044151091911251,0.031100790130085845,1.232527470762378
177,2.352834570260208,74.44181549706052,10.042539658490073,0.031094934776381557,1.2323796782061909
178,2.366127420939644,74.44181549706052,10.04176381862225,0.0310891844713254,1.2323178405435968
179,2.37942027161908,74.44181549706052,10.042159778851673,0.031083894137549653,1.232366971059084
180,2.3927131222985163,74.44181549706052,10.044022654343449,0.03107947089728794,1.2325475904820957
181,2.4060059729779524,74.44181549706052,10.047559778167871,0.031076330240829248,1.232871851465054
182,2.419298823657389,74.44181549706052,10.052843104558841,0.031074836581585046,1.2333397173854825
183,2.432591674336825,74.44181549706052,10.059767792863944,0.031075237731362285,1.2339358114333956
184,2.445884525016261,74.44181549706052,10.068024868515284,0.03107760632256678,1.2346275203205632
185,2.459177375695697,74.44181549706052,10.077095385051843,0.03108180189796599,1.2353649170590482
186,2.4724702263751337,74.44181549706052,10.08627155024533,0.031087464499283426,1.2360830349617533
187,2.48576307705457,74.44181549706052,10.09470686781951,0.031094044299994805,1.2367067361474464
188,2.499055927734006,74.44181549706052,10.101492901727381,0.03110086346385229,1.237157906016015
189,2.5123487784134424,74.44181549706052,10.105755799882122,0.031107198202567864,1.2373642811803875
190,2.5256416290928785,74.44181549706052,10.106762021884686,0.03111236349566364,1.2372689597397848
191,2.5389344797723146,74.44181549706052,10.104019752720488,0.03111578212842458,1.2368393660597798
192,2.5522273304517507,74.44181549706052,10.09736094750904,0.031117024282247028,1.2360742140609997
193,2.565520181131187,74.44181549706052,10.086990390958592,0.0311158128358201,1.2350071461090466
194,2.578813031810624,74.44181549706052,10.07349247720242,0.03111200025014291,1.2337062153285046
195,2.59210588249006,74.44181549706052,10.057792172513475,0.03110553212705923,1.2322689754834273
196,2.6053987331694954,74.44181549706052,10.041072902375843,0.031096417301522006,1.2308135489113405
197,2.618691583848932,74.44181549706052,10.024660222208288,0.031084722996154314,1.2294666343742389
198,2.631984434528368,74.44181549706052,10.009885132940461,0.03107060623407961,1.22834990201168
199,2.645277285207804,74.44181549706052,9.997944000905045,0.031054381184119597,1.2275665423158784
200,2.65857013588724,74.44181549706052,9.989772779574194,0.03103660921161122,1.2271898265149142
201,2.6718629865666768,74.44181549706052,9.985951871920493,0.031018186801086662,1.2272551494049104
202,2.685155837246113,74.44181549706052,9.986654607102308,0.031000399246810265,1.2277562323976146
203,2.698448687925549,74.44181549706052,9.991644440750374,0.030984908775970266,1.2286456933923988
204,2.711741538604985,74.44181549706052,10.00031503045581,0.03097365545459556,1.2298401099589518
205,2.725034389284421,74.44181549706052,10.01176302142223,0.03096866507286372,1.231229208170876
206,2.7383272399638576,74.44181549706052,10.024886292993942,0.030971777778348013,1.232687969848746
207,2.7516200906432937,74.44181549706052,10.038499228508421,0.030984332104997275,1.2340899938203693
208,2.7649129413227302,74.44181549706052,10.051451231500117,0.031006856420519945,1.2353204399529363
209,2.7782057920021663,74.44181549706052,10.062733823734286,0.03103882839759055,1.236287080476797
210,2.7914986426816024,74.44181549706052,10.071565261037698,0.031078559603202556,1.236928322558967
211,2.8047914933610385,74.44181549706052,10.077445876177874,0.031123246032671928,1.237217511584792
212,2.818084344040475,74.44181549706052,10.080181404735034,0.0311691986581925,1.2371633058448055
213,2.831377194719911,74.44181549706052,10.079875052676933,0.03121223573093911,1.236806363116632
214,2.844670045399347,74.44181549706052,10.076891744451462,0.031248187100806544,1.2362129505759425
215,2.857962896078784,74.44181549706052,10.071800718404237,0.03127343673509719,1.235466387980034
216,2.87125574675822,74.44181549706052,10.065305269517337,0.03128541756092961,1.2346574448625889
217,2.884548597437656,74.44181549706052,10.058168342608193,0.03128297565874031,1.23387482905921
218,2.897841448117092,74.44181549706052,10.051140077542616,0.03126654282658074,1.2331967025585742
219,2.911134298796528,74.44181549706052,10.044892181061384,0.031238093507113283,1.2326839082021785
220,2.9244271494759646,74.44181549706052,10.039964321334956,0.031200895723404818,1.2323754189796832
221,2.9377200001554007,74.44181549706052,10.036726840417996,0.03115908975594357,1.2322863497990448
222,2.9510128508348368,74.44181549706052,10.03536191864375,0.03111715375325611,1.2324085810939467
223,2.964305701514273,74.44181549706052,10.03586333341951,0.03107933788440973,1.2327137026686437
224,2.9775985521937094,74.44181549706052,10.038053371153843,0.03104915297174662,1.2331577348504392
225,2.990891402873145,74.44181549706052,10.041613948665082,0.031028985830263315,1.2336869483507253
226,3.0041842535525816,74.44181549706052,10.046127729420096,0.031019889447714485,1.234244058051585
227,3.017477104232018,74.44181549706052,10.051124371908406,0.031021565123139506,1.2347741044190512
228,3.030769954911454,74.44181549706052,10.05612706453273,0.031032521103637665,1.2352294491780371
229,3.0440628055908903,74.44181549706052,10.060695021821106,0.03105036822605554,1.2355734766408948
230,3.0573556562703263,74.44181549706052,10.064458515694598,0.031072200852487547,1.235782779010611
231,3.070648506949763,74.44181549706052,10.067144150117489,0.031095005522284027,1.2358477889233432
232,3.083941357629199,74.44181549706052,10.068589294994135,0.031116039817672622,1.2357720137822084
233,3.097234208308635,74.44181549706052,10.068745726096646,0.031133133133943003,1.2355702008148135
234,3.110527058988071,74.44181549706052,10.067673461261814,0.031144877166778717,1.2352658202008762
235,3.123819909667508,74.44181549706052,10.065526502487106,0.03115069453190155,1.2348881962158706
236,3.137112760346944,74.44181549706052,10.062532659760503,0.031150795486253668,1.23446956920578
237,3.15040561102638,74.44181549706052,10.058969770979212,0.031146046022427102,1.2340423508825078
238,3.163698461705816,74.44181549706052,10.05514049183504,0.03113777425294123,1.2336367720827937
239,3.1769913123852525,74.44181549706052,10.051347597716775,0.03112754482773095,1.2332790289508946
240,3.1902841630646885,74.44181549706052,10.047871480758698,0.03111693370138599,1.2329899565540028
241,3.2035770137441246,74.44181549706052,10.044951232553501,0.031107332053394252,1.232784208333787
242,3.2168698644235607,74.44181549706052,10.042770384302571,0.031099799678830975,1.232669892798129
243,3.230162715102997,74.44181549706052,10.041447771369317,0.031094978772370826,1.2326486104741765
244,3.2434555657824333,74.44181549706052,10.04103316514254,0.03109307022998035,1.23271583614793
245,3.2567484164618694,74.44181549706052,10.041507152976395,0.031093867050379472,1.2328615965807403
246,3.270041267141305,74.44181549706052,10.042785228944478,0.031096833657590386,1.2330713962664372
247,3.283334117820742,74.44181549706052,10.044726002285795,0.03110121618023925,1.2333273348977758
248,3.296626968500178,74.44181549706052,10.047142817278774,0.03110616693050367,1.233609342663164
249,3.309919819179614,74.44181549706052,10.049817786756511,0.031110866432034402,1.2338964525349698
250,3.3232126698590507,74.44181549706052,10.05251732083617,0.031114628186944656,1.2341680376355078
251,3.336505520538487,74.44181549706052,10.055008357650845,0.031116974704091274,1.2344049676799607
252,3.349798371217923,74.44181549706052,10.05707462976869,0.03111767778805193,1.2345906774746216
253,3.363091221897359,74.44181549706052,10.058532428200687,0.0311167612383727,1.234712144860067
254,3.3763840725767955,74.44181549706052,10.059245410065396,0.03111446933301023,1.234760742611199
255,3.389676923256232,74.44181549706052,10.059137989668363,0.031111209077397867,1.2347329301517223
256,3.402969773935668,74.44181549706052,10.05820671735007,0.031107477488929624,1.2346307811612165
257,3.416262624615104,74.44181549706052,10.05652877891207,0.031103786569479503,1.2344623367309677
258,3.4295554752945403,74.44181549706052,10.054266370630938,0.03110059777706132,1.2342417293098054
259,3.4428483259739764,74.44181549706052,10.051665325735899,0.031098274822383323,1.23398897241063
260,3.4561411766534125,74.44181549706052,10.049046236815698,0.031097059025435792,1.2337292725442308
261,3.469434027332849,74.44181549706052,10.046786593447022,0.03109706621633808,1.2334917098516684
262,3.482726878012285,74.44181549706052,10.045293007719398,0.031098299437950318,1.2333071695518487
263,3.496019728691721,74.44181549706052,10.044963568413754,0.03110066867619723,1.2332054967363189
264,3.5093125793711573,74.44181549706052,10.04614207693165,0.03110400837637339,1.2332119889052393
265,3.5226054300505933,74.44181549706052,10.049067834878127,0.031108085900621456,1.2333435156163486
266,3.53589828073003,74.44181549706052,10.05382620947851,0.031112598896066292,1.2336047304607316
267,3.549191131409466,74.44181549706052,10.060306937382103,0.031117165552943336,1.2339849758407744
268,3.562483982088902,74.44181549706052,10.068178613776505,0.031121317130322672,1.234456533098563
269,3.5757768327683386,74.44181549706052,10.076887262461684,0.03112450495136429,1.2349748058357595
270,3.5890696834477747,74.44181549706052,10.08568405099242,0.031126132815800234,1.235480828577702
271,3.6023625341272107,74.44181549706052,10.093683223598058,0.03112562002463181,1.2359061793075468
272,3.615655384806647,74.44181549706052,10.099946714849652,0.031122491017300826,1.2361799855242188
273,3.6289482354860834,74.44181549706052,10.103587211305838,0.03111647743969319,1.2362373165638296
274,3.64224108616552,74.44181549706052,10.103877539036912,0.031107610509980923,1.2360279288905163
275,3.655533936844956,74.44181549706052,10.100351771783998,0.031096278767286076,1.2355241487026294
276,3.668826787524392,74.44181549706052,10.092883018799338,0.03108323026081084,1.2347266861267285
277,3.682119638203828,74.44181549706052,10.081725126136067,0.031069508541399702,1.233667389187576
278,3.695412488883264,74.44181549706052,10.067510247161342,0.03105632608115386,1.232408334975597
279,3.7087053395627,74.44181549706052,10.051200373009296,0.031044893444691357,1.2310371576940136
280,3.721998190242136,74.44181549706052,10.033997453875104,0.03103623405963319,1.2296590465098693
281,3.735291040921573,74.44181549706052,10.017222729845944,0.031031020477220443,1.2283863271855906
282,3.748583891601009,74.44181549706052,10.002180362893254,0.031029467125156612,1.2273268977495986
283,3.761876742280445,74.44181549706052,9.990022727603398,0.031031303616985292,1.2265729908928569
284,3.775169592959881,74.44181549706052,9.981634455723324,0.03103583367444205,1.2261917478853903
285,3.7884624436393177,74.44181549706052,9.977549911577754,0.031042069323371262,1.2262187214472144
286,3.801755294318754,74.44181549706052,9.977914518889444,0.031048920922342533,1.2266547468669402
287,3.81504814499819,74.44181549706052,9.982492531976732,0.03105541142159222,1.227466239683235
288,3.828340995677626,74.44181549706052,9.990713866099169,0.03106087109521871,1.2285889515695303
289,3.841633846357064,74.44181549706052,10.001748577816523,0.03106506867556414,1.2299348728384338
290,3.8549266970364986,74.44181549706052,10.014600087264732,0.031068247473245172,1.2314013541570814
291,3.868219547715935,74.44181549706052,10.028208013723932,0.03107105539460921,1.2328812150679476
292,3.881512398395371,74.44181549706052,10.041548329758873,0.031074381252385524,1.234272650190878
293,3.8948052490748073,74.44181549706052,10.053719133680676,0.031079131167191697,1.2354879164130494
294,3.9080980997542434,74.44181549706052,10.064004436560388,0.031085992847767363,1.236460031149118
295,3.92139095043368,74.44181549706052,10.071912634413192,0.03109523866323929,1.2371470067984247
296,3.934683801113116,74.44181549706052,10.077189921886834,0.031106610039202377,1.237533446272842
297,3.947976651792552,74.44181549706052,10.07981160979538,0.03111930809943809,1.2376295969437372
298,3.961269502471988,74.44181549706052,10.079955939489723,0.031132093048248568,1.237468184196843
299,3.974562353151424,74.44181549706052,10.077965614698275,0.031143472783359702,1.2370995108127596
300,3.987855203830861,74.44181549706052,10.074302122427293,0.031151944338380796,1.2365854123213946
301,4.001148054510296,74.44181549706052,10.069497295636893,0.0311562430618561,1.2359927037648866
302,4.014440905189733,74.44181549706052,10.064105772848073,0.031155554957078058,1.2353867446990572
303,4.0277337558691695,74.44181549706052,10.058661243442632,0.031149656182866886,1.234825692555239
304,4.041026606548606,74.44181549706052,10.053638731433242,0.031138957998635176,1.2343559161843534
305,4.054319457228042,74.44181549706052,10.049424662013893,0.031124453745791945,1.2340089090951873
306,4.067612307907478,74.44181549706052,10.046296004558572,0.0311075832868543,1.2337998849365182
307,4.080905158586914,74.44181549706052,10.044409303377915,0.031090042798217615,1.2337280680459104
308,4.09419800926635,74.44181549706052,10.043799827498232,0.03107357204534539,1.2337785240988597
309,4.107490859945787,74.44181549706052,10.044390379327897,0.031059750984530406,1.2339252269379406
310,4.120783710625223,74.44181549706052,10.046008546528718,0.03104983324844692,1.2341349441644696
311,4.134076561304659,74.44181549706052,10.04841045839594,0.03104463595786009,1.234371460140674
312,4.147369411984095,74.44181549706052,10.051308537300333,0.03104449522245177,1.2345996431002284
313,4.160662262663531,74.44181549706052,10.054400426497239,0.03104928464771086,1.2347889061855268
314,4.173955113342967,74.44181549706052,10.057396295905164,0.031058482747339234,1.2349157520081757
315,4.187247964022403,74.44181549706052,10.060042082287632,0.03107126911917072,1.2349653012309834
316,4.20054081470184,74.44181549706052,10.06213685182662,0.031086629325016785,1.2349318238926754
317,4.2138336653812765,74.44181549706052,10.06354324981795,0.03110345271820373,1.2348183015636136
318,4.2271265160607125,74.44181549706052,10.06419080714053,0.031120614111266497,1.2346351269715392
319,4.240419366740149,74.44181549706052,10.064072795454718,0.0311370370966629,1.234398190424904
320,4.253712217419585,74.44181549706052,10.063238229691338,0.0311517421204661,1.2341266642272692
321,4.267005068099021,74.44181549706052,10.061780850523052,0.031163884958542783,1.2338407727482135
322,4.280297918778457,74.44181549706052,10.059826491476311,0.031172790913484866,1.2335597858392113
323,4.293590769457893,74.44181549706052,10.057519995697907,0.031177987525937662,1.2333004098403217
324,4.306883620137329,74.44181549706052,10.055012872009737,0.03117923501114856,1.2330756774921947
325,4.320176470816766,74.44181549706052,10.052452638110665,0.031176550244891597,1.2328943647875132
326,4.333469321496202,74.44181549706052,10.049974331342696,0.031170218173702476,1.2327608973839923
327,4.346762172175638,74.44181549706052,10.047694261304319,0.031160784543296145,1.2326756592878654
328,4.360055022855074,74.44181549706052,10.045705804399988,0.031149025246132042,1.2326355876089214
329,4.37334787353451,74.44181549706052,10.044076905802934,0.031135890122800932,1.2326349313709406
330,4.3866407242139465,74.44181549706052,10.042848959577444,0.031122423081878133,1.2326660672935323
331,4.399933574893383,74.44181549706052,10.04203685134245,0.031109665196484917,1.2327202944916618
332,4.41322642557282,74.44181549706052,10.041630112811202,0.031098551474478563,1.2327885637200906
333,4.426519276252256,74.44181549706052,10.041595303857966,0.03108981445558772,1.2328621254759864
334,4.439812126931692,74.44181549706052,10.041879828397683,0.031083908280855964,1.2329330979152768
335,4.453104977611128,74.44181549706052,10.042417181707988,0.031080965079246424,1.2329949576269734
336,4.466397828290564,74.44181549706052,10.043133150185621,0.031080791457676005,1.2330429462575556
337,4.47969067897,74.44181549706052,10.043952299172684,0.031082907098530985,1.2330743699216706
338,4.492983529649436,74.44181549706052,10.044804251181281,0.031086620924197138,1.2330887539729503
339,4.506276380328872,74.44181549706052,10.045629164139035,0.031091134194836566,1.233087810049361
340,4.519569231008309,74.44181549706052,10.046381530689747,0.031095655446698345,1.2330751800347093
341,4.532862081687745,74.44181549706052,10.047031495466474,0.031099510212578823,1.2330559442054672
342,4.546154932367181,74.44181549706052,10.047563351118349,0.031102229325839077,1.2330359165817344
343,4.559447783046617,74.44181549706052,10.047971478140804,0.03110360305972773,1.2330207942693745
344,4.572740633726053,74.44181549706052,10.04825461691405,0.03110369371178255,1.233015272482374
345,4.5860334844054895,74.44181549706052,10.04840988994745,0.031102805585939218,1.233022272389129
346,4.599326335084926,74.44181549706052,10.048428297391425,0.031101417691432164,1.2330424349325515
347,4.612619185764362,74.44181549706052,10.048293388630237,0.031100089998411105,1.2330740038696373
348,4.625912036443799,74.44181549706052,10.047984414847962,0.031099358042431777,1.2331131793324406
349,4.639204887123235,74.44181549706052,10.047484503180115,0.031099632498444617,1.2331549710208227
350,4.652497737802671,74.44181549706052,10.046793342426957,0.031101119703132566,1.2331944896486189
351,4.665790588482107,74.44181549706052,10.04594267943732,0.03110377593553734,1.2332285006119712
352,4.679083439161543,74.44181549706052,10.04501179535471,0.031107302897417453,1.2332569706563612
353,4.692376289840979,74.44181549706052,10.044139296966367,0.031111185029137435,1.2332842867078213
354,4.705669140520415,74.44181549706052,10.043527256065342,0.031114762198648255,1.233319820125978
355,4.718961991199852,74.44181549706052,10.043434150765416,0.031117325254300648,1.2333775595332912
356,4.732254841879288,74.44181549706052,10.04415430410599,0.031118218191158644,1.23347465839886
357,4.745547692558724,74.44181549706052,10.045983532356164,0.031116930085497863,1.2336289290567746
358,4.75884054323816,74.44181549706052,10.049173292247461,0.031113162669200816,1.2338555033320873
359,4.7721333939175965,74.44181549706052,10.05387836735481,0.031106864833529688,1.234163044390323
360,4.785426244597033,74.44181549706052,10.060105545745321,0.03109823219045377,1.2345500552527373
361,4.798719095276469,74.44181549706052,10.067672256427493,0.031087676439988193,1.2350019507048546
362,4.812011945955905,74.44181549706052,10.076184263056078,0.03107577412627549,1.235489567936589
363,4.825304796635342,74.44181549706052,10.08503996709289,0.03106320634891166,1.2359696654318109
364,4.838597647314778,74.44181549706052,10.093465642887995,0.03105069987179953,1.2363877148314177
365,4.851890497994214,74.44181549706052,10.100581377824238,0.03103897646985902,1.2366829528634442
366,4.86518334867365,74.44181549706052,10.105492415024738,0.031028712616194463,1.23679527691354
367,4.878476199353086,74.44181549706052,10.10739587753942,0.031020507383656182,1.2366732035679393
368,4.891769050032522,74.44181549706052,10.105689130169267,0.03101485416935651,1.236281834260455
369,4.905061900711958,74.44181549706052,10.100064111665082,0.031012112251501706,1.2356096460547317
370,4.918354751391394,74.44181549706052,10.090572727505672,0.031012476740292224,1.2346729852997658
371,4.931647602070831,74.44181549706052,10.077651856942715,0.031015949107492953,1.2335173917837032
372,4.944940452750267,74.44181549706052,10.062101942674229,0.031022314339403948,1.2322152908137294
373,4.958233303429704,74.44181549706052,10.045019652673803,0.031031133368767408,1.2308601004096928
374,4.97152615410914,74.44181549706052,10.027691786901002,0.03104175895454567,1.2295573311402936
375,4.984819004788576,74.44181549706052,10.011463359773098,0.03105337962457325,1.2284137239971382
376,4.998111855468012,74.44181549706052,9.99759666450464,0.03106509121458203,1.2275258012220527
377,5.011404706147448,74.44181549706052,9.987139494277217,0.031075990103784465,1.2269693645249502
378,5.024697556826885,74.44181549706052,9.980819345709373,0.031085277292304835,1.226791425590463
379,5.037990407506321,74.44181549706052,9.97897674968817,0.031092358850965344,1.2270055946218659
380,5.051283258185757,74.44181549706052,9.98154544770483,0.031096926700136085,1.227591166725742
381,5.064576108865193,74.44181549706052,9.988079675676508,0.03109900467552889,1.228495701998558
382,5.077868959544629,74.44181549706052,9.997820642318906,0.03109894876186773,1.2296408656421693
383,5.091161810224065,74.44181549706052,10.009789923281529,0.03109739713632631,1.230930960109671
384,5.104454660903501,74.44181549706052,10.022897542609318,0.031095174452090868,1.2322629893379553
385,5.117747511582937,74.44181549706052,10.036052482611677,0.031093163963852824,1.2335368687459125
386,5.131040362262374,74.44181549706052,10.048262979601633,0.031092168450293365,1.2346645600563162
387,5.1443332129418105,74.44181549706052,10.058716203392649,0.03109278431275054,1.235577211682712
388,5.157626063621247,74.44181549706052,10.066831227604101,0.03109531147203526,1.236229744927309
389,5.170918914300683,74.44181549706052,10.072283517299935,0.03109971488876575,1.236602699280019
390,5.184211764980119,74.44181549706052,10.075002742658706,0.03110564327041848,1.236701480155793
391,5.197504615659555,74.44181549706052,10.075148294856602,0.03111249931584617,1.2365534043109672
392,5.210797466338991,74.44181549706052,10.073068298882147,0.031119546338745734,1.2362030971933726
393,5.224090317018428,74.44181549706052,10.069248265318423,0.031126030317969615,1.2357068667226885
394,5.237383167697864,74.44181549706052,10.064255080600763,0.031131295245982328,1.2351266751988017
395,5.2506760183773,74.44181549706052,10.058681441078829,0.03113487282378262,1.2345242751844259
396,5.263968869056736,74.44181549706052,10.05309534102811,0.03113653393426548,1.2339559849272266
397,5.277261719736172,74.44181549706052,10.0479981038896,0.031136297314978405,1.2334684687275375
398,5.290554570415608,74.44181549706052,10.043792611269371,0.03113439879237049,1.2330957679077357
399,5.303847421095044,74.44181549706052,10.040762104962855,0.031131230915720932,1.2328577059308528
400,5.3171402717744805,74.44181549706052,10.039059774415682,0.031127266833694288,1.2327596723852692
401,5.330433122453917,74.44181549706052,10.038709325643778,0.0311229832979542,1.2327936800979356
402,5.3437259731333535,74.44181549706052,10.039616003027142,0.03111879583272885,1.2329404926925138
403,5.35701882381279,74.44181549706052,10.041586438845712,0.03111501500758596,1.2331725419014465
404,5.370311674492226,74.44181549706052,10.044354906531339,0.031111827451356745,1.2334573006069827
405,5.383604525171662,74.44181549706052,10.047613140649107,0.031109299999806647,1.2337607545832208
406,5.396897375851098,74.44181549706052,10.051040733990558,0.031107401241065757,1.2340506275437022
407,5.410190226530534,74.44181549706052,10.054333261076138,0.03110603245470552,1.234299061950388
408,5.42348307720997,74.44181549706052,10.057225729343202,0.031105060223313052,1.2344845366037727
409,5.436775927889407,74.44181549706052,10.059509669188564,0.031104345341218774,1.2345929037148677
410,5.450068778568843,74.44181549706052,10.061043041363071,0.031103764786579148,1.2346175597487172
411,5.463361629248279,74.44181549706052,10.061753035110705,0.031103224766279924,1.2345589037952103
412,5.476654479927715,74.44181549706052,10.061632610287601,0.031102664749281805,1.2344233059687417
413,5.489947330607151,74.44181549706052,10.060732194605093,0.031102054722422275,1.234221794782985
414,5.503240181286587,74.44181549706052,10.059148294846263,0.031101388988184438,1.2339686539294212
415,5.516533031966024,74.44181549706052,10.057010890007376,0.031100679614296307,1.2336801029119446
416,5.5298258826454605,74.44181549706052,10.054471158450118,0.0310999517887786,1.2333731771913512
417,5.543118733324897,74.44181549706052,10.051690446146184,0.031099242034613925,1.2330648387920031
418,5.556411584004333,74.44181549706052,10.048830834799094,0.03109859872137779,1.2327712797077104
419,5.569704434683769,74.44181549706052,10.046047338759191,0.031098082990719655,1.232507344061106
420,5.582997285363205,74.44181549706052,10.043481512850835,0.03109776753436889,1.232285993654288
421,5.596290136042641,74.44181549706052,10.041256124873227,0.03109773094497819,1.232117770904276
422,5.609582986722077,74.44181549706052,10.039470654394059,0.03109804662405062,1.2320102607516963
423,5.622875837401513,74.44181549706052,10.038197658728265,0.03109876714875032,1.2319676084649278
424,5.63616868808095,74.44181549706052,10.03748007279923,0.03109990698300519,1.2319901957454156
425,5.649461538760386,74.44181549706052,10.037329245287836,0.031101427823872308,1.232074557105225
426,5.662754389439822,74.44181549706052,10.037723813663616,0.03110323121674544,1.2322135364756965
427,5.676047240119258,74.44181549706052,10.03861030167876,0.031105162164906747,1.2323966726473115
428,5.689340090798694,74.44181549706052,10.03990629508685,0.03110702543451993,1.2326108646221876
429,5.7026329414781305,74.44181549706052,10.041506219269243,0.031108613509913046,1.2328413377705467
430,5.715925792157567,74.44181549706052,10.043289117298528,0.03110974224349439,1.233072815246458
431,5.729218642837003,74.44181549706052,10.045127558658935,0.031110287793352273,1.2332907352602884
432,5.74251149351644,74.44181549706052,10.046896652497995,0.031110217043181322,1.2334823576319087
433,5.755804344195876,74.44181549706052,10.04848213586195,0.03110960380920345,1.2336376283915194
434,5.769097194875312,74.44181549706052,10.049786713426032,0.031108624954107385,1.2337497133074775
435,5.782390045554748,74.44181549706052,10.050734209599948,0.031107533886279314,1.2338151682229488
436,5.795682896234184,74.44181549706052,10.051271582815719,0.031106613273834502,1.2338337758621942
437,5.80897574691362,74.44181549706052,10.051369340282813,0.03110611329511775,1.2338081343082061
438,5.822268597593056,74.44181549706052,10.05102126781254,0.031106185421753803,1.233743121160271
439,5.835561448272493,74.44181549706052,10.050244555248952,0.031106823770596786,1.2336453716889746
440,5.848854298951929,74.44181549706052,10.04908128581157,0.031107826005500303,1.2335228950848145
441,5.862147149631365,74.44181549706052,10.047601842691305,0.031108783607903187,1.2333849104596826
442,5.875440000310801,74.44181549706052,10.045910097352339,0.03110910745506026,1.2332419179064356
443,5.8887328509902375,74.44181549706052,10.044149370989462,0.031108089670736666,1.2331059393221881
444,5.9020257016696736,74.44181549706052,10.042507256612314,0.03110499731914048,1.232990787181487
445,5.91531855234911,74.44181549706052,10.041216661982348,0.031099188304720214,1.2329121629973137
446,5.928611403028546,74.44181549706052,10.040550119117945,0.031090235353723187,1.2328873554711566
447,5.941904253707983,74.44181549706052,10.040804721857386,0.031078040732490538,1.2329343175786032
448,5.955197104387419,74.44181549706052,10.042276135394708,0.031062923021048978,1.2330699797020488
449,5.968489955066855,74.44181549706052,10.045221961000868,0.031045658452872514,1.2333078015947705
450,5.981782805746291,74.44181549706052,10.049817133003968,0.031027463522216227,1.2336547509048403
451,5.995075656425727,74.44181549706052,10.056106573112208,0.031009912751719184,1.2341080895729906
452,6.008368507105163,74.44181549706052,10.063962479650863,0.030994794997515642,1.2346525151475671
453,6.021661357784599,74.44181549706052,10.073054793857011,0.03098392197564902,1.235258296942052
454,6.034954208464036,74.44181549706052,10.082843057084554,0.030978911850115348,1.2358810277150905
455,6.048247059143472,74.44181549706052,10.092595801788033,0.03098097666544546,1.2364634594603028
456,6.061539909822908,74.44181549706052,10.101439767060644,0.030990743373489758,1.2369396132682273
457,6.074832760502344,74.44181549706052,10.108436180755854,0.031008133778996444,1.2372409848002384
458,6.0881256111817805,74.44181549706052,10.112677236116838,0.03103232041852722,1.237304271409108
459,6.101418461861217,74.44181549706052,10.113393461541328,0.03106176496485293,1.2370797011453023
460,6.114711312540653,74.44181549706052,10.110059168960774,0.031094334500526986,1.236538821852144
461,6.128004163220089,74.44181549706052,10.102479345832709,0.031127481023759437,1.2356805642392812
462,6.141297013899526,74.44181549706052,10.090842502330084,0.03115846297221695,1.2345345470204732
463,6.154589864578962,74.44181549706052,10.075730009439951,0.03118458481058397,1.233160927308923
464,6.167882715258398,74.44181549706052,10.058079061374446,0.03120343115588975,1.2316465632743239
465,6.181175565937834,74.44181549706052,10.039102448187782,0.03121307406289991,1.2300977733089948
466,6.19446841661727,74.44181549706052,10.020174141715735,0.031212235408682724,1.228630463311961
467,6.207761267296706,74.44181549706052,10.002694425574509,0.0312003951656681,1.227358778397238
468,6.221054117976142,74.44181549706052,9.98795106127483,0.03117784920672806,1.2263836618690074
469,6.234346968655578,74.44181549706052,9.976993393836436,0.031145722084459912,1.225782780786351
470,6.247639819335015,74.44181549706052,9.970534342938874,0.03110593085420878,1.2256031813018295
471,6.260932670014451,74.44181549706052,9.968891533644067,0.031061094782801068,1.2258574606946842
472,6.274225520693888,74.44181549706052,9.971973936122524,0.031014393328567237,1.2265232975013165
473,6.287518371373324,74.44181549706052,9.979312893423439,0.030969377546412685,1.2275458789753626
474,6.30081122205276,74.44181549706052,9.990127638763054,0.03092973869784668,1.2288431485565057
475,6.314104072732196,74.44181549706052,10.003412586172617,0.03089903920744697,1.2303136406312887
476,6.327396923411632,74.44181549706052,10.018037090990124,0.03088041650152392,1.231845979547669
477,6.340689774091069,74.44181549706052,10.032849303632043,0.03087627798893356,1.2333288401969351
478,6.353982624770505,74.44181549706052,10.04677370038199,0.03088801384635023,1.2346603307460027
479,6.367275475449941,74.44181549706052,10.05889279756708,0.030915762754807032,1.2357559867058465
480,6.380568326129377,74.44181549706052,10.068507183226858,0.030958270957228497,1.236554793595492
481,6.393861176808813,74.44181549706052,10.075171428659289,0.0310128811990853,1.2370228862970514
482,6.407154027488249,74.44181549706052,10.078706084340173,0.03107567440898211,1.2371547863850632
483,6.420446878167685,74.44181549706052,10.079187870967878,0.03114176708558577,1.2369722287281275
484,6.433739728847121,74.44181549706052,10.076921262134148,0.031205744575663025,1.2365207887526524
485,6.447032579526558,74.44181549706052,10.072395121728889,0.03126218811565162,1.2358646563892501
486,6.4603254302059945,74.44181549706052,10.066228842499255,0.03130623583311623,1.2350800618991373
487,6.473618280885431,74.44181549706052,10.059113585304608,0.03133410833549322,1.2342480283683355
488,6.486911131564867,74.44181549706052,10.051753772327247,0.03134352937781946,1.233447154432797
489,6.500203982244303,74.44181549706052,10.044812049380964,0.03133398191789872,1.232747013239599
490,6.513496832923739,74.44181549706052,10.038860347066155,0.03130676324696251,1.2322026667036936
491,6.526789683603175,74.44181549706052,10.034340421483279,0.03126483619379691,1.2318507427711132
492,6.540082534282611,74.44181549706052,10.03153694754346,0.03121249877136308,1.2317074037010152
493,6.553375384962048,74.44181549706052,10.030564758776427,0.031154908400818186,1.231768349871583
494,6.566668235641484,74.44181549706052,10.031370628728055,0.03109751435774861,1.2320107833615925
495,6.57996108632092,74.44181549706052,10.033749199294691,0.03104547064828847,1.2323970285604855
496,6.593253937000356,74.44181549706052,10.037371434055967,0.031003105296622212,1.232879330188605
497,6.606546787679792,74.44181549706052,10.04182245981026,0.03097351032760927,1.233405247671765
498,6.619839638359228,74.44181549706052,10.046644680353559,0.030958297121090397,1.233923039325783
499,6.6331324890386645,74.44181549706052,10.05138175331727,0.030957537957437647,1.2343864786472158
500,6.6464253397181015,74.44181549706052,10.055619211034735,0.03096988638941843,1.2347586563021866
501,6.6597181903975375,74.44181549706052,10.05901812356702,0.03099284128294563,1.2350144633828484
502,6.673011041076974,74.44181549706052,10.061339166854964,0.03102310563806736,1.2351416035728153
503,6.68630389175641,74.44181549706052,10.062455624984471,0.03105699280100633,1.2351402031786671
504,6.699596742435846,74.44181549706052,10.062355066018068,0.031090834731579916,1.2350213455413013
505,6.712889593115282,74.44181549706052,10.061130544129167,0.031121347844930876,1.2348049046156804
506,6.726182443794718,74.44181549706052,10.058963096066812,0.03114591960315312,1.2345168965947149
507,6.739475294474154,74.44181549706052,10.05609794956686,0.03116279212022069,1.2341865327768216
508,6.752768145153591,74.44181549706052,10.052817198423034,0.03117113630160202,1.2338432582872785
509,6.766060995833027,74.44181549706052,10.049411733087886,0.031171028919786636,1.2335140759864152
510,6.779353846512463,74.44181549706052,10.04615500666074,0.031163352166539836,1.2332213784978014
511,6.792646697191899,74.44181549706052,10.043280849311817,0.031149630637008832,1.2329814343063772
512,6.805939547871335,74.44181549706052,10.04096704486242,0.031131821949256733,1.232803605519514
513,6.819232398550772,74.44181549706052,10.039325525456212,0.03111208500721331,1.2326903076718572
514,6.832525249230208,74.44181549706052,10.038398954568878,0.03109255190993351,1.2326376579777891
515,6.8458180999096445,74.44181549706052,10.038163053263755,0.031075125462560922,1.2326367009191987
516,6.859110950589081,74.44181549706052,10.038534299012348,0.031061319225080992,1.232675054311651
517,6.872403801268517,74.44181549706052,10.03938247691136,0.031052151703797715,1.2327387897880875
518,6.885696651947953,74.44181549706052,10.040546954230074,0.031048100386690047,1.2328143511022611
519,6.898989502627389,74.44181549706052,10.041855276954607,0.03104911510101151,1.2328903200001349
520,6.912282353306825,74.44181549706052,10.043142744850527,0.031054683989223078,1.2329588575872066
521,6.925575203986261,74.44181549706052,10.044271650470996,0.031063939851308692,1.233016673247035
522,6.938868054665697,74.44181549706052,10.045148801089487,0.031075790412139006,1.2330653997179453
523,6.952160905345134,74.44181549706052,10.045739803801032,0.0310890539393774,1.233111283159488
524,6.96545375602457,74.44181549706052,10.046078425591146,0.031102582027288907,1.2331641372064988
525,6.978746606704006,74.44181549706052,10.046269242414,0.031115354353394457,1.2332355689713004
526,6.992039457383442,74.44181549706052,10.046481903502304,0.031126535442449275,1.2333365696535736
527,7.005332308062878,74.44181549706052,10.046935805834726,0.031135490183086686,1.2334746728485875
528,7.0186251587423145,74.44181549706052,10.047874902808374,0.03114176203657164,1.2336510091463548
529,7.031918009421751,74.44181549706052,10.049533768765054,0.031145024475245104,1.2338577039334464
530,7.045210860101187,74.44181549706052,10.0520977784256,0.031145021181173186,1.2340761451019775
531,7.058503710780624,74.44181549706052,10.055662059956825,0.03114151308908711,1.2342766539780217
532,7.07179656146006,74.44181549706052,10.060195344317563,0.031134249879870908,1.2344199965195655
533,7.085089412139496,74.44181549706052,10.065515515864785,0.03112297973176195,1.2344609575811258
534,7.098382262818932,74.44181549706052,10.07128318346314,0.031107504118139305,1.234353877357142
535,7.111675113498368,74.44181549706052,10.077017734957291,0.03108777482753147,1.234059654365201
536,7.124967964177804,74.44181549706052,10.082137182493227,0.031064019447504358,1.2335533217655856
537,7.13826081485724,74.44181549706052,10.08601908001871,0.031036871246764824,1.2328309929427517
538,7.151553665536677,74.44181549706052,10.088075733149754,0.03100747213512057,1.2319148407246876
539,7.164846516216113,74.44181549706052,10.087833683900008,0.03097751558988448,1.230854893267576
540,7.178139366895549,74.44181549706052,10.085005538151592,0.0309492018648369,1.229726822021672
541,7.191432217574985,74.44181549706052,10.079542185337097,0.030925090706964958,1.2286255241014465
542,7.2047250682544215,74.44181549706052,10.071655910358707,0.03090785637434245,1.227655057525271
543,7.218017918933858,74.44181549706052,10.061809442401243,0.030899972111604782,1.2269162410975172
544,7.443996380484273,74.44181549706052,10.050671481456522,0.0309033647994688,1.2264938090216002
545,7.45728923116371,74.44181549706052,10.039044635058241,0.030919082216123495,1.2264451147182032
546,7.470582081843146,74.44181549706052,10.027776087179678,0.030947022403588584,1.2267919769636648
547,7.483874932522582,74.44181549706052,10.017663937684977,0.030985785233525603,1.2275168543348545
548,7.497167783202018,74.44181549706052,10.009372574069104,0.03103269370389337,1.228564199093161
549,7.510460633881454,74.44181549706052,10.003368680321527,0.031083998480325142,1.22984706587179
550,7.52375348456089,74.44181549706052,9.999885924024824,0.031135247289326356,1.2312579716738874
551,7.537046335240326,74.44181549706052,9.998921775105249,0.03118177612578509,1.23268223944626
552,7.550339185919762,74.44181549706052,10.000265054095589,0.031219258743148057,1.2340117410865388
553,7.563632036599199,74.44181549706052,10.003547432317387,0.031244237980733003,1.235156973774736
554,7.5769248872786354,74.44181549706052,10.008307198416292,0.03125456040515897,1.2360557472136269
555,7.590217737958071,74.44181549706052,10.01405289987889,0.031249646097414138,1.236677390771456
556,7.603510588637508,74.44181549706052,10.020318028877734,0.031230552105891048,1.2370221951819935
557,7.616803439316944,74.44181549706052,10.026701132815628,0.031199826461042097,1.2371166306515142
558,7.63009628999638,74.44181549706052,10.032887824618504,0.031161179905230135,1.2370055681781635
559,7.643389140675816,74.44181549706052,10.038654439658249,0.03111901904520585,1.2367431392499553
560,7.656681991355252,74.44181549706052,10.043856831344087,0.031077901876642267,1.2363839302028083
561,7.669974842034689,74.44181549706052,10.048410201081492,0.031041992202329945,1.2359759323601764
562,7.683267692714125,74.44181549706052,10.052266535187343,0.03101458901287982,1.235556144687568
563,7.696560543393561,74.44181549706052,10.055395392430569,0.03099779127676488,1.235149088903
564,7.709853394072997,74.44181549706052,10.057771872776778,0.030992334548781596,1.234767894769467
565,7.723146244752433,74.44181549706052,10.059373204333442,0.030997607778590102,1.2344171689635304
566,7.736439095431869,74.44181549706052,10.060183108808882,0.03101183422782778,1.2340966574426453
567,7.7497319461113054,74.44181549706052,10.060201407303916,0.031032382726420095,1.233804756090162
568,7.763024796790742,74.44181549706052,10.05945545293759,0.03105616135509626,1.2335411388823703
569,7.776317647470178,74.44181549706052,10.05800994540482,0.03108003646800789,1.2333080796215883
570,7.789610498149615,74.44181549706052,10.055972339804423,0.03110122037951448,1.233110400361018
571,7.802903348829051,74.44181549706052,10.053492154883376,0.031117580356850142,1.2329543088138428
572,7.816196199508487,74.44181549706052,10.050753741784021,0.031127836286277428,1.2328455990218126
573,7.829489050187923,74.44181549706052,10.047963258986007,0.03113163177976511,1.2327877591359206
574,7.842781900867359,74.44181549706052,10.045331543898737,0.031129481079403207,1.2327804768009563
575,7.856074751546795,74.44181549706052,10.043055176884748,0.031122610029105307,1.232818887392311
576,7.869367602226232,74.44181549706052,10.04129825797062,0.03111272183785255,1.2328937150248982
577,7.882660452905668,74.44181549706052,10.04017726437199,0.031101725108879753,1.232992256197389
578,7.895953303585104,74.44181549706052,10.039750870808295,0.031091462347072243,1.2330999896244506
579,7.90924615426454,74.44181549706052,10.04001587352668,0.031083473430772238,1.233202489312211
580,7.922539004943976,74.44181549706052,10.040909477191002,0.03107882115620407,1.23328728274061
581,7.935831855623412,74.44181549706052,10.042317322724985,0.031077996027743138,1.233345330030982
582,7.949124706302848,74.44181549706052,10.04408590386094,0.031080906290693575,1.233371890274722
583,7.962417556982285,74.44181549706052,10.046037570968762,0.031086947161594394,1.2333666675023653
584,7.975710407661722,74.44181549706052,10.047986232345327,0.03109513208400772,1.2333332669949566
585,7.989003258341158,74.44181549706052,10.049752140096784,0.031104261456599863,1.2332781183549533
586,8.002296109020593,74.44181549706052,10.051174711552918,0.031113101720643917,1.2332091135847456
587,8.01558895970003,74.44181549706052,10.05212303920274,0.031120549561847566,1.2331342511479402
588,8.028881810379467,74.44181549706052,10.052504395620279,0.031125761534332243,1.233060563914966
589,8.042174661058903,74.44181549706052,10.052271462693412,0.0311282378890971,1.2329935429094008
590,8.055467511738339,74.44181549706052,10.051429072492303,0.031127858844920527,1.2329371617508524
591,8.068760362417775,74.44181549706052,10.050040887448917,0.03112487839131633,1.2328944772796075
592,8.082053213097211,74.44181549706052,10.048235716198631,0.031119883793972934,1.2328686521230017
593,8.095346063776647,74.44181549706052,10.046212203254875,0.03111373031013346,1.2328641367927657
594,8.108638914456083,74.44181549706052,10.044239672274493,0.031107460489247323,1.2328876808821045
595,8.12193176513552,74.44181549706052,10.042652220389149,0.03110221480658586,1.2329488284351273
596,8.135224615814955,74.44181549706052,10.041833035040627,0.031099136422847888,1.2330595988721529
597,8.148517466494392,74.44181549706052,10.042186560827117,0.03109926971354003,1.2332331627453785
598,8.161810317173828,74.44181549706052,10.044097688730735,0.031103451249482945,1.2334814845479585
599,8.175103167853264,74.44181549706052,10.047879500752995,0.031112193914981514,1.233812107470888
600,8.1883960185327,74.44181549706052,10.053713987432928,0.03112556985920354,1.2342244716419613
601,8.201688869212136,74.44181549706052,10.061593057776472,0.031143104990808017,1.2347063517698635
602,8.214981719891574,74.44181549706052,10.071269414072344,0.031163704760287163,1.2352311290101747
603,8.22827457057101,74.44181549706052,10.082227780535282,0.031185635416983,1.235756632903946
604,8.241567421250446,74.44181549706052,10.093685904718766,0.031206584219618867,1.2362261722796213
605,8.254860271929882,74.44181549706052,10.104631529059647,0.03122381455956947,1.2365721127904654
606,8.268153122609318,74.44181549706052,10.113897318077127,0.031234417623885097,1.236721978504177
607,8.281445973288754,74.44181549706052,10.120271032354518,0.031235643132083463,1.2366066123002248
608,8.29473882396819,74.44181549706052,10.122631430256247,0.03122527173506661,1.2361695037034475
609,8.308031674647626,74.44181549706052,10.120092751147471,0.031201975792258495,1.2353760681263155
610,8.321324525327062,74.44181549706052,10.11213695966389,0.031165608086627505,1.2342215101250202
611,8.334617376006499,74.44181549706052,10.098714086813617,0.031117362575424242,1.232735967385508
612,8.347910226685935,74.44181549706052,10.080294589532599,0.031059767826760613,1.23098591473784
613,8.36120307736537,74.44181549706052,10.057863188240876,0.03099649976102932,1.229071272067766
614,8.374495928044807,74.44181549706052,10.032851239253574,0.030932030760352707,1.2271182379504597
615,8.387788778724243,74.44181549706052,10.007013203344219,0.03087116103230035,1.225268478248581
616,8.401081629403679,74.44181549706052,9.982260716363363,0.030818499515267574,1.2236658454544207
617,8.414374480083115,74.44181549706052,9.960473884654705,0.030777971268183314,1.2224422512246642
618,8.427667330762553,74.44181549706052,9.943312756648085,0.030752424582546553,1.2217045755803235
619,8.440960181441989,74.44181549706052,9.932051963123559,0.030743394365656714,1.2215241619596533
620,8.454253032121425,74.44181549706052,9.927458402754775,0.030751048196998757,1.2219295882241556
621,8.467545882800861,74.44181549706052,9.929726075655706,0.030774303695429182,1.2229031261512755
622,8.480838733480297,74.44181549706052,9.93847384499446,0.03081107705695295,1.2243816441303697
623,8.494131584159733,74.44181549706052,9.952802420974693,0.03085860888726151,1.2262623087496352
624,8.50742443483917,74.44181549706052,9.971399929054696,0.030913805781451413,1.2284123518703596
625,8.520717285518606,74.44181549706052,9.992682021409813,0.03097353624581155,1.2306815197319905
626,8.534010136198042,74.44181549706052,10.014949936749806,0.031034836198483524,1.232915708723159
627,8.547302986877478,74.44181549706052,10.036548305361318,0.03109500813142587,1.2349703410031407
628,8.560595837556914,74.44181549706052,10.05600599098733,0.031151628257176288,1.2367221918543763
629,8.57388868823635,74.44181549706052,10.072147350933921,0.031202499784477335,1.238078650639711
630,8.587181538915786,74.44181549706052,10.08416626265399,0.031245602326208845,1.2389837322544126
631,8.600474389595222,74.44181549706052,10.091660210795915,0.031279084585528465,1.2394205149450275
632,8.613767240274658,74.44181549706052,10.094626071481168,0.031301331010231415,1.2394100268165344
633,8.627060090954096,74.44181549706052,10.093422547470153,0.031311107489079656,1.2390069109217665
634,8.640352941633532,74.44181549706052,10.088706358888812,0.03130776307393119,1.238292450300927
635,8.653645792312968,74.44181549706052,10.081350363837856,0.0312914401335912,1.2373657198087142
636,8.666938642992404,74.44181549706052,10.072351998266557,0.03126323084806887,1.2363337459795285
637,8.68023149367184,74.44181549706052,10.062740047706287,0.03122522722105834,1.2353015972612982
638,8.693524344351276,74.44181549706052,10.053487007381671,0.03118044299544566,1.2343632939985485
639,8.706817195030712,74.44181549706052,10.045433270641196,0.031132606482552255,1.233594321625298
640,8.720110045710149,74.44181549706052,10.03922814064629,0.031085828635084686,1.2330463561505471
641,8.733402896389585,74.44181549706052,10.035291177960454,0.031044173875668855,1.2327445788372084
642,8.74669574706902,74.44181549706052,10.033795686811876,0.03101119700829253,1.2326876861725584
643,8.759988597748457,74.44181549706052,10.034674279183037,0.03098952490377786,1.232850419941463
644,8.773281448427893,74.44181549706052,10.037644588511276,0.03098055324230913,1.2331881847820558
645,8.786574299107329,74.44181549706052,10.04225153454483,0.030984305232098983,1.2336431216086694
646,8.799867149786765,74.44181549706052,10.047921269015957,0.030999466507391438,1.2341508920475825
647,8.813160000466201,74.44181549706052,10.05402120483039,0.031023582444849585,1.234647414463746
648,8.826452851145639,74.44181549706052,10.05992040570084,0.031053386340192,1.2350748725639658
649,8.839745701825075,74.44181549706052,10.065045037962035,0.031085210659815572,1.235386476839534
650,8.853038552504511,74.44181549706052,10.06892444296573,0.03111542096027058,1.23554966574923
651,8.866331403183947,74.44181549706052,10.071224409826419,0.031140812618805098,1.2355476423147647
652,8.879624253863383,74.44181549706052,10.071765334072094,0.03115892224316137,1.2353793227615442
653,8.89291710454282,74.44181549706052,10.070525043015193,0.031168222211285554,1.2350579205359977
654,8.906209955222256,74.44181549706052,10.067628879722973,0.031168189685778145,1.2346084908925377
655,8.919502805901692,74.44181549706052,10.06333019691006,0.031159266699658184,1.2340648060569919
656,8.932795656581128,74.44181549706052,10.057982744925438,0.031142737848645487,1.2334659243514703
657,8.946088507260564,74.44181549706052,10.052006426165976,0.031120546054565126,1.2328527735041315
658,8.95938135794,74.44181549706052,10.045849602812016,0.03109506561932369,1.232265002136812
659,8.972674208619436,74.44181549706052,10.039951720085325,0.031068857163934035,1.231738277283886
660,8.985967059298872,74.44181549706052,10.034709335787994,0.031044427866002235,1.2313021321980906
661,8.999259909978308,74.44181549706052,10.030447864610068,0.031024013822965473,1.2309784074885857
662,9.012552760657744,74.44181549706052,10.027400632708147,0.031009396489311294,1.2307802857977188
663,9.02584561133718,74.44181549706052,10.025696224445804,0.03100176284032439,1.2307118969443602
664,9.039138462016618,74.44181549706052,10.025354608096002,0.031001616808677312,1.230768463073001
665,9.052431312696054,74.44181549706052,10.026291671064971,0.03100874672555442,1.2309369543733413
666,9.06572416337549,74.44181549706052,10.028330647026607,0.031022252487516715,1.2311972262485809
667,9.079017014054926,74.44181549706052,10.031218814652378,0.03104063583552305,1.2315236004452004
668,9.092309864734364,74.44181549706052,10.034648736920554,0.031061951917382445,1.2318868314533145
669,9.1056027154138,74.44181549706052,10.038283347479654,0.031084010773298247,1.2322563666280895
670,9.118895566093236,74.44181549706052,10.04178334711617,0.03110460889394932,1.232602770230588
671,9.13218841677267,74.44181549706052,10.044835013238286,0.031121765548538613,1.2329001471717111
672,9.145481267452109,74.44181549706052,10.047176713215737,0.031133936330996648,1.233128380650826
673,9.158774118131545,74.44181549706052,10.04862261851814,0.031140177746735966,1.2332749947937494
674,9.17206696881098,74.44181549706052,10.049082246572384,0.03114024187703499,1.2333364695426319
675,9.185359819490415,74.44181549706052,10.048574510731363,0.031134591112054643,1.2333188666206354
676,9.198652670169851,74.44181549706052,10.047234917992292,0.031124337424550994,1.2332376662725557
677,9.211945520849287,74.44181549706052,10.045314463495336,0.031111118454916573,1.2331167593193497
678,9.225238371528723,74.44181549706052,10.04316873649527,0.031096922609407912,1.232986585843427
679,9.23853122220816,74.44181549706052,10.041235931325811,0.03108387811460542,1.2328814627935907
680,9.251824072887596,74.44181549706052,10.04000301697175,0.03107402687459143,1.2328362032391922
681,9.265116923567032,74.44181549706052,10.03996038439505,0.03106910536571728,1.2328822050204111
682,9.27840977424647,74.44181549706052,10.041546883212664,0.031070352099683257,1.2330432769156074
683,9.291702624925906,74.44181549706052,10.045089152106023,0.0310783581383431,1.2333315690087998
684,9.304995475605342,74.44181549706052,10.05074124927603,0.031092974335733988,1.233744064091486
685,9.318288326284778,74.44181549706052,10.058432370297618,0.031113285892969897,1.234260144407595
686,9.331581176964214,74.44181549706052,10.067831396722706,0.03113766045396408,1.2348407460169053
687,9.34487402764365,74.44181549706052,10.078336688938395,0.03116386991244568,1.2354295294333373
688,9.358166878323086,74.44181549706052,10.089097562385534,0.031189279658789433,1.2359563201671677
689,9.371459729002522,74.44181549706052,10.099070290999453,0.031211092414784536,1.2363428142129917
690,9.384752579681958,74.44181549706052,10.107107174037825,0.031226625716116622,1.23651022852813
691,9.398045430361394,74.44181549706052,10.11207274231614,0.031233593930762305,1.2363882488129354
692,9.41133828104083,74.44181549706052,10.11297583391401,0.03123036111477166,1.2359243399637991
693,9.424631131720266,74.44181549706052,10.109101056226669,0.03121613162918664,1.2350922925806544
694,9.437923982399704,74.44181549706052,10.100121127597433,0.031191051233710194,1.2338988266013755
695,9.45121683307914,74.44181549706052,10.086173335049285,0.03115620215323219,1.232387186713172
696,9.464509683758576,74.44181549706052,10.067887309496626,0.03111349030853851,1.230636944864783
697,9.477802534438013,74.44181549706052,10.046357008784925,0.031065439218770443,1.228759646925923
698,9.491095385117449,74.44181549706052,10.023056970468577,0.031014920102827925,1.2268904521998618
699,9.504388235796885,74.44181549706052,9.999710489516687,0.030964858513925154,1.2251764494321433
700,9.51768108647632,74.44181549706052,9.978124141792925,0.030917962092569314,1.2237628156651181
701,9.530973937155755,74.44181549706052,9.960008000836783,0.030876510514412186,1.2227783709054798
702,9.544266787835191,74.44181549706052,9.946803245577426,0.030842237546499875,1.2223223001657484
703,9.557559638514627,74.44181549706052,9.939538866039161,0.03081631883202978,1.2224535885328618
704,9.570852489194063,74.44181549706052,9.938736660898806,0.03079945997606408,1.2231840862364085
705,9.5841453398735,74.44181549706052,9.944374327014847,0.030792053139523528,1.2244758094390433
706,9.597438190552936,74.44181549706052,9.955901918101086,0.030794342579229594,1.2262431230124362
707,9.610731041232372,74.44181549706052,9.972302218689675,0.0308065384041144,1.2283599775427256
708,9.62402389191181,74.44181549706052,9.992191233277062,0.03082884486426333,1.2306714394941813
709,9.637316742591247,74.44181549706052,10.013952969136252,0.030861391837746346,1.2330081202629464
710,9.650609593270683,74.44181549706052,10.035892969167088,0.03090407188389593,1.2352018711896426
711,9.66390244395012,74.44181549706052,10.056391468316937,0.030956308516285877,1.2371010506978177
712,9.677195294629556,74.44181549706052,10.07404007678405,0.03101680845720875,1.2385837738641219
713,9.690488145308992,74.44181549706052,10.087750006607129,0.031083366194281332,1.2395678311778666
714,9.703780995988428,74.44181549706052,10.096824065332003,0.03115278809350238,1.240016371493793
715,9.717073846667864,74.44181549706052,10.100988906438381,0.03122098572469955,1.2399389325777699
716,9.7303666973473,74.44181549706052,10.1003878277925,0.03128325707647904,1.2393879003529473
717,9.743659548026736,74.44181549706052,10.095537556992644,0.03133473644718149,1.2384509341267627
718,9.756952398706172,74.44181549706052,10.087255599723665,0.03137095709225167,1.2372403614594183
719,9.770245249385608,74.44181549706052,10.076567689293295,0.03138844285707393,1.235880966593253
720,9.783538100065044,74.44181549706052,10.064605489133196,0.03138523193940105,1.2344976595597945
721,9.79683095074448,74.44181549706052,10.052503096434418,0.031361241798347324,1.2332042213361862
722,9.810123801423916,74.44181549706052,10.041300130152958,0.031318407953730705,1.2320940752237313
723,9.823416652103353,74.44181549706052,10.03185947116529,0.03126056278206528,1.231233880122167
724,9.836709502782789,74.44181549706052,10.02480685932547,0.031193057613856427,1.2306604335162983
725,9.850002353462228,74.44181549706052,10.02049669911717,0.031122171527025955,1.2303809022729306
726,9.863295204141664,74.44181549706052,10.019004632444615,0.031054386628044342,1.2303759342199023
727,9.8765880548211,74.44181549706052,10.020145164916292,0.03099563246474195,1.230604927895989
728,9.889880905500537,74.44181549706052,10.02351196232494,0.03095060765579473,1.2310126685170975
729,9.90317375617997,74.44181549706052,10.028536610094717,0.030922276533280058,1.2315365097260529
730,9.916466606859409,74.44181549706052,10.034558830995943,0.03091161383746024,1.2321132786683107
731,9.929759457538845,74.44181549706052,10.040899805812101,0.03091762526260889,1.23268520949136
732,9.94305230821828,74.44181549706052,10.046930569234886,0.030937614309352508,1.2332044380808922
733,9.956345158897715,74.44181549706052,10.052128636508451,0.0309676330426251,1.2336358328252686
734,9.969638009577151,74.44181549706052,10.05611784401545,0.031003051565358007,1.2339581548827656
735,9.982930860256587,74.44181549706052,10.058688685174921,0.031039172724175116,1.2341637170330544
736,9.996223710936023,74.44181549706052,10.05979886825913,0.031071804998108955,1.2342568299232342
737,10.00951656161546,74.44181549706052,10.05955609079296,0.031097714998057073,1.234251389619249
738,10.022809412294896,74.44181549706052,10.058186820884934,0.03111490859041258,1.2341679757937545
739,10.036102262974332,74.44181549706052,10.055996017049406,0.03112272053590661,1.2340307972012692
740,10.04939511365377,74.44181549706052,10.053323244656829,0.031121723575749955,1.2338647557983562
741,10.062687964333206,74.44181549706052,10.050500576513715,0.03111349544258166,1.2336928328400314
742,10.075980815012642,74.44181549706052,10.047816817607629,0.03110029528778951,1.233533944287323
743,10.089273665692078,74.44181549706052,10.045491152424388,0.031084699268343143,1.2334013681341944
744,10.102566516371514,74.44181549706052,10.043657781516636,0.031069241292554988,1.2333018136929734
745,10.11585936705095,74.44181549706052,10.042361713730509,0.03105610145962901,1.233235179839445
746,10.129152217730386,74.44181549706052,10.041564819219749,0.031046874486956637,1.2331950250832784
747,10.142445068409822,74.44181549706052,10.041160604931832,0.031042435236190036,1.2331697361414582
748,10.155737919089258,74.44181549706052,10.040995614591147,0.03104290560312934,1.2331443282010663
749,10.169030769768694,74.44181549706052,10.040894881294497,0.031047717706384835,1.2331027421277914
750,10.18232362044813,74.44181549706052,10.040688789096194,0.03105575925992195,1.2330304320083048
751,10.195616471127568,74.44181549706052,10.040238968637581,0.031065578535386263,1.2329169752283802
752,10.208909321807004,74.44181549706052,10.039461217493907,0.03107562121722612,1.2327584007740835
753,10.22220217248644,74.44181549706052,10.038343777413818,0.031084469996350814,1.2325589289383783
754,10.235495023165877,74.44181549706052,10.0369595466288,0.031091058911882758,1.2323318499112614
755,10.248787873845313,74.44181549706052,10.035470924794234,0.031094837813880456,1.232099336583343
756,10.262080724524749,74.44181549706052,10.034126025966415,0.031095867471431525,1.231891081208566
757,10.275373575204185,74.44181549706052,10.03324507297453,0.031094832151241494,1.231741758020976
758,10.28866642588362,74.44181549706052,10.033196080987858,0.03109296371365134,1.2316874367274488
759,10.301959276563055,74.44181549706052,10.034359630320141,0.0310918805784237,1.2317611981105383
760,10.315252127242491,74.44181549706052,10.037083737120302,0.031093356056645934,1.2319883254951718
761,10.32854497792193,74.44181549706052,10.041631542821863,0.03109903971850608,1.2323815548148491
762,10.341837828601363,74.44181549706052,10.048126568380487,0.031110162057375167,1.2329369475286798
763,10.3551306792808,74.44181549706052,10.056502244756462,0.031127260032068987,1.2336309865072803
764,10.368423529960236,74.44181549706052,10.06646383483649,0.03114996657796739,1.2344194652235194
765,10.381716380639674,74.44181549706052,10.07747117158942,0.031176905238314144,1.2352386282859222
766,10.39500923131911,74.44181549706052,10.088749440471153,0.0312057213769886,1.236008819229696
767,10.408302081998546,74.44181549706052,10.099332298558801,0.031233265064158508,1.2366406078061327
768,10.421594932677982,74.44181549706052,10.108137193628302,0.03125591846978813,1.2370430310691582
769,10.434887783357418,74.44181549706052,10.11406808585564,0.031270035711664326,1.2371332356889735
770,10.448180634036856,74.44181549706052,10.116136630351845,0.03127243875922896,1.2368465104661597
771,10.461473484716292,74.44181549706052,10.113588307003605,0.03126089473362043,1.2361455068756273
772,10.474766335395728,74.44181549706052,10.10601596023051,0.031234496198217457,1.2350274094452003
773,10.488059186075164,74.44181549706052,10.093443000774753,0.031193878697691742,1.2335279618253516
774,10.5013520367546,74.44181549706052,10.076362377715792,0.031141234213105887,1.2317215729811513
775,10.514644887434036,74.44181549706052,10.055723116550322,0.031080111114556414,1.2297171837438865
776,10.527937738113472,74.44181549706052,10.032862884394554,0.031015025928564637,1.2276501036516851
777,10.541230588792908,74.44181549706052,10.009392334595121,0.030950943352505755,1.2256705540103239
778,10.554523439472344,74.44181549706052,9.987043782546763,0.030892702554918,1.2239300970135816
779,10.56781629015178,74.44181549706052,9.967501910306893,0.03084447609165067,1.2225674325688898
780,10.581109140831217,74.44181549706052,9.952236871934977,0.030809341347716762,1.2216951590945517
781,10.594401991510653,74.44181549706052,9.942359948598932,0.030789025566790165,1.221388961220703
782,10.607694842190089,74.44181549706052,9.938518899633278,0.03078385727989628,1.2216803312501474
783,10.620987692869525,74.44181549706052,9.940844846426563,0.0307929154537123,1.2225535298272994
784,10.63428054354896,74.44181549706052,9.948955202062606,0.03081432099403649,1.2239471006791072
785,10.647573394228395,74.44181549706052,9.96200902693846,0.030845595788114792,1.225759759395395
786,10.660866244907837,74.44181549706052,9.978805039348506,0.030884026178150323,1.2278599387325224
787,10.674159095587273,74.44181549706052,9.997909210902524,0.030926977101684374,1.2300978819404025
788,10.687451946266709,74.44181549706052,10.017796718519742,0.030972108052541268,1.2323189749743804
789,10.700744796946145,74.44181549706052,10.036992081239836,0.031017464183437957,1.2343769636299422
790,10.71403764762558,74.44181549706052,10.054192957018838,0.031061450023884746,1.236145801064863
791,10.727330498305015,74.44181549706052,10.06836679860657,0.031102722473133323,1.237529093546646
792,10.740623348984451,74.44181549706052,10.078814002723453,0.03114005683204384,1.238466418800615
793,10.753916199663887,74.44181549706052,10.085195545391722,0.031172241998164405,1.2389361389138616
794,10.767209050343324,74.44181549706052,10.087526860766806,0.031198048600897196,1.2389546775789673
795,10.78050190102276,74.44181549706052,10.086142549601304,0.031216290550645138,1.2385725471578677
796,10.793794751702196,74.44181549706052,10.081638306986546,0.031225972478958912,1.2378676731316365
797,10.807087602381632,74.44181549706052,10.074797337036632,0.03122648999821252,1.2369367605423158
798,10.820380453061068,74.44181549706052,10.066508682038968,0.031217832714692816,1.2358855741826458
799,10.833673303740504,74.44181549706052,10.057684558286564,0.031200735229878353,1.2348190591491923
800,10.84696615441994,74.44181549706052,10.04918313097735,0.031176729966726217,1.2338322083346025
801,10.860259005099378,74.44181549706052,10.041742264742215,0.031148075162999445,1.2330024860234845
802,10.873551855778814,74.44181549706052,10.035928671760043,0.031117556215653593,1.2323844430316067
803,10.88684470645825,74.44181549706052,10.032105532237052,0.03108818343420028,1.2320069182079165
804,10.900137557137686,74.44181549706052,10.030420088109343,0.031062830529525434,1.2318729350266673
805,10.913430407817122,74.44181549706052,10.03081097590217,0.031043872473491975,1.2319621038871265
806,10.926723258496558,74.44181549706052,10.033033308720334,0.031032884958542003,1.2322350714620292
807,10.940016109175994,74.44181549706052,10.036697937554619,0.031030454608085112,1.232639357874776
808,10.95330895985543,74.44181549706052,10.041320130302918,0.03103612256460658,1.2331158200711902
809,10.966601810534868,74.44181549706052,10.046372275983575,0.031048463643786196,1.2336049869680692
810,10.979894661214304,74.44181549706052,10.05133523817526,0.031065292725540625,1.2340526196478354
811,10.99318751189374,74.44181549706052,10.055743621468606,0.03108397203094118,1.2344140298800654
812,11.006480362573177,74.44181549706052,10.059221341472654,0.031101770464274116,1.2346569050372838
813,11.019773213252613,74.44181549706052,10.061505294734106,0.031116217103709307,1.2347626057666752
814,11.033066063932049,74.44181549706052,10.062456316854885,0.031125396500567608,1.2347260904247062
815,11.046358914611483,74.44181549706052,10.06205782262284,0.031128148618832972,1.2345547336720037
816,11.05965176529092,74.44181549706052,10.060403930777866,0.03112415730331936,1.2342663415257809
817,11.072944615970355,74.44181549706052,10.057680329735934,0.031113928860758536,1.2338866618901536
818,11.086237466649791,74.44181549706052,10.05414114463461,0.031098673484401294,1.2334466651061682
819,11.09953031732923,74.44181549706052,10.050083731084351,0.031080112962153537,1.2329798185318697
820,11.112823168008664,74.44181549706052,10.045822785135538,0.03106024733841688,1.2325195179139536
821,11.1261160186881,74.44181549706052,10.04166556930384,0.03104111478693819,1.232096786387466
822,11.139408869367536,74.44181549706052,10.03788999582676,0.031024573758437705,1.2317383153383223
823,11.152701720046974,74.44181549706052,10.034726753196548,0.031012128765207127,1.2314648992684238
824,11.16599457072641,74.44181549706052,10.032346181721596,0.031004812859869824,1.2312903056698805
825,11.179287421405846,74.44181549706052,10.030850256997235,0.03100313052741686,1.2312206151257503
826,11.192580272085282,74.44181549706052,10.030269755299708,0.03100705549225007,1.23125406019096
827,11.205873122764718,74.44181549706052,10.030566337929574,0.03101607377476963,1.2313813783915328
828,11.219165973444154,74.44181549706052,10.031638910553164,0.031029263079641056,1.2315866711798578
829,11.23245882412359,74.44181549706052,10.033333483155046,0.0310453988690073,1.231848726572354
830,11.245751674803026,74.44181549706052,10.03545587705739,0.031063074969094124,1.232142722485977
831,11.259044525482464,74.44181549706052,10.037786612651006,0.031080826684994567,1.232442188431028
832,11.2723373761619,74.44181549706052,10.040097160441375,0.031097247118137182,1.232721074978176
833,11.285630226841336,74.44181549706052,10.042166731664794,0.03111109055078296,1.2329557715094868
834,11.298923077520772,74.44181549706052,10.043798916917822,0.031121359619017644,1.2331269264577345
835,11.312215928200208,74.44181549706052,10.04483760932054,0.031127375058583286,1.233220956958924
836,11.325508778879644,74.44181549706052,10.04518171662919,0.03112882761576172,1.233231176719892
837,11.33880162955908,74.44181549706052,10.044798135612204,0.031125811142920897,1.2331585087668337
838,11.352094480238517,74.44181549706052,10.043732293918529,0.031118834341401214,1.2330117715468207
839,11.365387330917953,74.44181549706052,10.042115252550595,0.03110880729117245,1.232807526022365
840,11.378680181597389,74.44181549706052,10.040165948199904,0.03109699859899942,1.2325694496989255
841,11.391973032276823,74.44181549706052,10.03818674722763,0.031084959063434583,1.2323271717244668
842,11.40526588295626,74.44181549706052,10.03655025683009,0.031074408647555528,1.2321144793207117
843,11.418558733635695,74.44181549706052,10.035675512031457,0.03106708715783404,1.2319668112384103
844,11.431851584315131,74.44181549706052,10.035992437876844,0.031064575067563417,1.2319180078334784
845,11.44514443499457,74.44181549706052,10.037894996004722,0.031068097463055284,1.2319964000262171
846,11.458437285674004,74.44181549706052,10.041685616323118,0.031078330314936658,1.232220485815604
847,11.471730136353443,74.44181549706052,10.047516113737556,0.031095233720196767,1.2325946386498348
848,11.48502298703288,74.44181549706052,10.05533279450282,0.031117940163694048,1.2331054732533917
849,11.498315837712315,74.44181549706052,10.06483520474501,0.031144725466329688,1.2337196059175284
850,11.511608688391751,74.44181549706052,10.075458299246002,0.031173084438370892,1.2343835336374334
851,11.524901539071188,74.44181549706052,10.086386168115434,0.031199922026136338,1.2350261841232424
852,11.538194389750624,74.44181549706052,10.096601770191992,0.031221854346564784,1.2355643547328024
853,11.55148724043006,74.44181549706052,10.104972288349243,0.031235593540700383,1.2359108025929695
854,11.564780091109496,74.44181549706052,10.110364454823447,0.031238369829742256,1.235984248483254
855,11.578072941788932,74.44181549706052,10.111778062525705,0.031228329763197275,1.235720113890655
856,11.591365792468368,74.44181549706052,10.108480131243963,0.031204845856592237,1.2350805235052933
857,11.604658643147804,74.44181549706052,10.100119957252476,0.03116868124445159,1.2340620482314166
858,11.61795149382724,74.44181549706052,10.086807165898543,0.03112197323213784,1.2326998663545483
859,11.631244344506676,74.44181549706052,10.069139365108631,0.03106802864226916,1.2310674610997325
860,11.644537195186112,74.44181549706052,10.048172406903563,0.03101095594806665,1.229271583410552
861,11.657830045865548,74.44181549706052,10.025334136407736,0.030955187741583873,1.227442889607462
862,11.671122896544986,74.44181549706052,10.002290597255744,0.03090496621101866,1.2257233071214209
863,11.684415747224422,74.44181549706052,9.98078059298953,0.030863870217044852,1.2242516861445025
864,11.697708597903858,74.44181549706052,9.96243918192778,0.030834454264408048,1.2231496280515117
865,11.711001448583296,74.44181549706052,9.948632374439395,0.03081804964314416,1.2225094738538906
866,11.72429429926273,74.44181549706052,9.94032405869992,0.03081475011397357,1.222385885159149
867,11.737587149942168,74.44181549706052,9.937992129423273,0.03082356890276339,1.2227913670428288
868,11.750880000621605,74.44181549706052,9.94160214030833,0.030842717377629295,1.2236956736928846
869,11.76417285130104,74.44181549706052,9.950635121568826,0.030869939216009293,1.225029368164389
870,11.777465701980477,74.44181549706052,9.964160008318455,0.030902840130388923,1.2266914430043354
871,11.790758552659913,74.44181549706052,9.980941355109858,0.030939162427362495,1.2285598956144446
872,11.804051403339349,74.44181549706052,9.999570652504941,0.03097696366708288,1.2305036655707715
873,11.817344254018783,74.44181549706052,10.018604717412702,0.03101468068741222,1.2323944518710686
874,11.83063710469822,74.44181549706052,10.03669433399217,0.031051089328029365,1.2341171969470912
875,11.843929955377655,74.44181549706052,10.05269038212414,0.031085194515803424,1.2355783612964473
876,11.857222806057091,74.44181549706052,10.065719644545505,0.031116099243546594,1.2367114909460932
877,11.87051565673653,74.44181549706052,10.075227249417534,0.03114290198268199,1.237479936094891
878,11.883808507415964,74.44181549706052,10.080986825555868,0.031164660356118166,1.237876871234064
879,11.8971013580954,74.44181549706052,10.08308246443178,0.03118043782058327,1.2379229731175667
880,11.910394208774838,74.44181549706052,10.081868366828035,0.031189425322972905,1.2376622337881897
881,11.923687059454274,74.44181549706052,10.07791271682186,0.03119110788250053,1.2371564371483492
882,11.93697991013371,74.44181549706052,10.071932159493649,0.031185432336996118,1.2364788313604556
883,11.950272760813146,74.44181549706052,10.064722608112614,0.031172930199819305,1.235707506089615
884,11.963565611492582,74.44181549706052,10.057091279366073,0.031154758689620667,1.2349189469882496
885,11.976858462172018,74.44181549706052,10.049794055536903,0.03113264068948131,1.2341821953208214
886,11.990151312851454,74.44181549706052,10.04348157900152,0.031108706261212548,1.2335539867573764
887,12.00344416353089,74.44181549706052,10.038656867482539,0.03108525920027767,1.2330751748379147
888,12.016737014210326,74.44181549706052,10.035646604723832,0.03106450698826531,1.2327686560409963
889,12.030029864889762,74.44181549706052,10.034587508325307,0.031048298741196693,1.2326389026705575
890,12.043322715569198,74.44181549706052,10.035428242693996,0.03103791290185193,1.232673080356978
891,12.056615566248636,74.44181549706052,10.037946240776465,0.031033925767634737,1.232843588818611
892,12.069908416928072,74.44181549706052,10.041777612100764,0.03103617754810068,1.2331117324026615
893,12.083201267607508,74.44181549706052,10.046457194430396,0.031043837456951207,1.2334321191219886
894,12.096494118286945,74.44181549706052,10.05146492170045,0.031055553483341373,1.233757311109947
895,12.10978696896638,74.44181549706052,10.056274174571499,0.03106965870189072,1.234042223487365
896,12.123079819645817,74.44181549706052,10.060397736216308,0.031084398665525228,1.234247882897697
897,12.136372670325253,74.44181549706052,10.063427349343133,0.03109814451840302,1.234344387825091
898,12.149665521004689,74.44181549706052,10.06506361350911,0.031109562580616583,1.2343129958286265
899,12.162958371684123,74.44181549706052,10.065134376043387,0.031117721564918124,1.2341471824331618
900,12.17625122236356,74.44181549706052,10.063601619857659,0.031122131006576185,1.233852585724915
901,12.189544073042995,74.44181549706052,10.060557759982716,0.031122716510891074,1.2334459630464665
902,12.202836923722431,74.44181549706052,10.056212151496666,0.031119746908761983,1.2329533916659272
903,12.21612977440187,74.44181549706052,10.050869088122967,0.031113733686204344,1.2324079351670072
904,12.229422625081304,74.44181549706052,10.044899657285868,0.031105323801747478,1.2318469717476273
905,12.24271547576074,74.44181549706052,10.038710310636409,0.031095204251652096,1.2313093588973358
906,12.256008326440178,74.44181549706052,10.032710874927862,0.031084031566560907,1.2308325912062272
907,12.269301177119614,74.44181549706052,10.027284445370858,0.031072392749636527,1.2304500985454256
908,12.282594027799052,74.44181549706052,10.022761237852357,0.031060797249241528,1.2301888287636207
909,12.295886878478488,74.44181549706052,10.019398007425455,0.031049693618986542,1.2300672577813332
910,12.309179729157924,74.44181549706052,10.017364120972669,0.031039500366252096,1.2300939643335869
911,12.32247257983736,74.44181549706052,10.016734823451156,0.03103063858542594,1.2302668918947324
912,12.335765430516796,74.44181549706052,10.0174914987865,0.031023554433136657,1.2305733914333263
913,12.349058281196232,74.44181549706052,10.019527894261289,0.03101872214300148,1.2309910832021345
914,12.362351131875668,74.44181549706052,10.022661004189473,0.03101662257504113,1.231489496427844
915,12.375643982555104,74.44181549706052,10.026645610954601,0.03101769725320767,1.2320323761097145
916,12.38893683323454,74.44181549706052,10.031191549830787,0.03102228272105319,1.2325804933519213
917,12.402229683913976,74.44181549706052,10.035982553133103,0.03103053487916508,1.2330947323604822
918,12.415522534593412,74.44181549706052,10.040695587734831,0.03104235699439773,1.2335391568437786
919,12.428815385272848,74.44181549706052,10.045019904687116,0.031057346545232286,1.2338837260749012
920,12.442108235952285,74.44181549706052,10.048675300411555,0.03107477458373847,1.2341064218784705
921,12.45540108663172,74.44181549706052,10.051429283689577,0.031093607614220743,1.2341947357673404
922,12.468693937311157,74.44181549706052,10.053112936162261,0.031112576443575377,1.234146518197933
923,12.481986787990596,74.44181549706052,10.05363521288579,0.0311302893636754,1.2339701004955521
924,12.49527963867003,74.44181549706052,10.052995228928856,0.031145379308957187,1.233683645391959
925,12.508572489349469,74.44181549706052,10.051291706384987,0.031156667091395415,1.2333138548345919
926,12.521865340028905,74.44181549706052,10.048728243609206,0.03116331687092837,1.232894233509462
927,12.53515819070834,74.44181549706052,10.045612465268176,0.031164960168148372,1.2324630598929873
928,12.548451041387777,74.44181549706052,10.04234660872552,0.031161771114070206,1.2320611433625899
929,12.561743892067213,74.44181549706052,10.039407300381454,0.031154478879920233,1.2317293728560956
930,12.575036742746647,74.44181549706052,10.037313350742544,0.031144303388872283,1.2315060095202177
931,12.588329593426083,74.44181549706052,10.036581466835939,0.031132809826709844,1.2314236712249742
932,12.60162244410552,74.44181549706052,10.037670955348162,0.031121695141007225,1.2315060197022962
933,12.614915294784955,74.44181549706052,10.040920991794005,0.031112534279139455,1.2317642929390402
934,12.628208145464392,74.44181549706052,10.04648702557761,0.031106522804498167,1.2321940041284636
935,12.641500996143828,74.44181549706052,10.054284794732434,0.031104257175452257,1.232772309218376
936,12.654793846823264,74.44181549706052,10.063951746802084,0.03110559286426078,1.2334566695354012
937,12.6680866975027,74.44181549706052,10.074836162428312,0.03110961221672401,1.2341854474986351
938,12.681379548182138,74.44181549706052,10.086021798801513,0.03111471864992587,1.2348809347458019
939,12.694672398861574,74.44181549706052,10.096390519070242,0.031118853116893767,1.2354550193278429
940,12.70796524954101,74.44181549706052,10.104720402208718,0.031119806021626877,1.2358172877602909
941,12.721258100220446,74.44181549706052,10.109812971630843,0.03111557741131502,1.2358848990330256
942,12.734550950899882,74.44181549706052,10.110637019954073,0.031104725044183358,1.2355931512693568
943,12.747843801579318,74.44181549706052,10.106469240328826,0.031086637622042328,1.2349053767606561
944,12.761136652258754,74.44181549706052,10.097009966549441,0.031061680752588486,1.2338207154004646
945,12.77442950293819,74.44181549706052,10.082456314403776,0.031031184891511077,1.2323784618773086
946,12.787722353617626,74.44181549706052,10.063520702957646,0.030997273632162578,1.2306580482621998
947,12.801015204297062,74.44181549706052,10.041389248316579,0.03096256131758656,1.22877426232313
948,12.814308054976498,74.44181549706052,10.017622312023185,0.030929774589298867,1.2268679357201655
949,12.827600905655936,74.44181549706052,9.994007429110141,0.03090136765332291,1.2250929756652993
950,12.84089375633537,74.44181549706052,9.972381548677832,0.030879203071751477,1.2236011656780645
951,12.854186607014809,74.44181549706052,9.954444011988036,0.030864358087938713,1.2225265798091314
952,12.867479457694245,74.44181549706052,9.941583305728255,0.03085708809985762,1.2219716583027165
953,12.88077230837368,74.44181549706052,9.934739734628808,0.03085693977210734,1.221996627071363
954,12.894065159053117,74.44181549706052,9.934322684544563,0.0308629777329345,1.2226130753411546
955,12.907358009732553,74.44181549706052,9.940190628658437,0.030874076613636066,1.2237821014492167
956,12.920650860411987,74.44181549706052,9.951686392858715,0.0308892188838691,1.2254175515980796
957,12.933943711091423,74.44181549706052,9.967715162507368,0.03090773094541444,1.2273943675447858
958,12.94723656177086,74.44181549706052,9.986858946407477,0.03092940052651528,1.2295609971691923
959,12.960529412450295,74.44181549706052,10.007519768619758,0.03095444582733987,1.231754197248855
960,12.973822263129732,74.44181549706052,10.028074634732691,0.03098334062535711,1.2338144643797722
961,12.98711511380917,74.44181549706052,10.047022687427802,0.031016532619105166,1.2356004383654846
962,13.000407964488604,74.44181549706052,10.063109231359626,0.0310541182670176,1.2370008729406712
963,13.013700815168042,74.44181549706052,10.075416472472854,0.03109555041035753,1.2379431396514733
964,13.026993665847478,74.44181549706052,10.083415697221374,0.031139451765832077,1.2383976599287196
965,13.040286516526914,74.44181549706052,10.086980112068229,0.031183588068440734,1.238378096145442
966,13.05357936720635,74.44181549706052,10.086361249763398,0.031225023008754953,1.2379375351331006
967,13.066872217885786,74.44181549706052,10.082134592306959,0.031260439797438484,1.2371612428344927
968,13.080165068565222,74.44181549706052,10.075121834600525,0.031286579155653686,1.2361568419792281
969,13.09345791924466,74.44181549706052,10.06629816275553,0.031300718249960745,1.2350429556924762
970,13.106750769924096,74.44181549706052,10.056693561195926,0.03130110393792945,1.2339374594648074
971,13.120043620603532,74.44181549706052,10.047297515815677,0.031287258965645444,1.2329464817290425
972,13.133336471282968,74.44181549706052,10.038975446347852,0.03126010710259134,1.2321551826720212
973,13.146629321962404,74.44181549706052,10.03240284510082,0.03122190627422504,1.2316211287704935
974,13.15992217264184,74.44181549706052,10.028021161130333,0.031176009500388777,1.231370787892036
975,13.173215023321276,74.44181549706052,10.026018076057607,0.03112648566448003,1.2313993259885248
976,13.186507874000712,74.44181549706052,10.026332722041074,0.03107764940371632,1.231673530881079
977,13.199800724680149,74.44181549706052,10.028683769169215,0.03103356964313907,1.2321373669795972
978,13.213093575359585,74.44181549706052,10.032616085735219,0.030997628380682075,1.232719415860176
979,13.22638642603902,74.44181549706052,10.037560124503592,0.030972186372915756,1.233341305666323
980,13.239679276718457,74.44181549706052,10.042897321412099,0.030958392264762907,1.2339261875848344
981,13.252972127397893,74.44181549706052,10.048024661964426,0.030956150532231008,1.2344063634911289
982,13.266264978077327,74.44181549706052,10.052412149981173,0.03096423836565685,1.2347292967082217
983,13.279557828756763,74.44181549706052,10.055648087461375,0.030980535830990003,1.2348615360679827
984,13.292850679436205,74.44181549706052,10.057468678052759,0.031002324589702795,1.2347905040524083
985,13.30614353011564,74.44181549706052,10.057770220572747,0.031026618426938914,1.2345242966957028
986,13.319436380795077,74.44181549706052,10.056603898099807,0.031050492415673335,1.2340895979360267
987,13.332729231474511,74.44181549706052,10.054155408939938,0.03107137532787268,1.2335279312502603
988,13.346022082153947,74.44181549706052,10.050714114468247,0.031087275924045893,1.2328907519874377
989,13.359314932833383,74.44181549706052,10.046636812452874,0.031096926749982268,1.2322340046645976
990,13.37260778351282,74.44181549706052,10.042309689568356,0.031099841301013766,1.2316127179328513
991,13.385900634192256,74.44181549706052,10.03811128654821,0.03109629041699662,1.231076114131327
992,13.399193484871692,74.44181549706052,10.034379621413594,0.031087211120480598,1.2306635985193572
993,13.412486335551128,74.44181549706052,10.03138611189321,0.031074063959972476,1.230401873579033
994,13.425779186230564,74.44181549706052,10.029317703943235,0.031058654222651378,1.2303033123394507
995,13.43907203691,74.44181549706052,10.028267551579921,0.031042931920387543,1.2303656287789304
996,13.452364887589436,74.44181549706052,10.028233857155326,0.0310287867081669,1.2305728063169799
997,13.465657738268872,74.44181549706052,10.02912601879749,0.03101785536728961,1.2308971794873007
998,13.478950588948308,74.44181549706052,10.030777003602658,0.03101135816001453,1.231302472136674
999,13.492243439627746,74.44181549706052,10.032960788588564,0.031009976472112184,1.2317474815539546
1000,13.505536290307182,74.44181549706052,10.03541371380802,0.03101378409573908,1.2321900487276798
1001,13.518829140986618,74.44181549706052,10.037858618514099,0.031022246984455784,1.2325909818494782
1002,13.532121991666054,74.44181549706052,10.040030636922236,0.031034300767618712,1.232917637851044
1003,13.54541484234549,74.44181549706052,10.041703474926303,0.03104850204137335,1.2331469126805672
1004,13.558707693024926,74.44181549706052,10.042714836915293,0.031063237275893444,1.233267418856276
1005,13.572000543704362,74.44181549706052,10.042989395726833,0.031076964233108757,1.233280633885063
1006,13.5852933943838,74.44181549706052,10.042557302043676,0.03108845404975189,1.2332008836635506
1007,13.598586245063236,74.44181549706052,10.041565774519766,0.031096998754379785,1.2330541643898731
1008,13.61187909574267,74.44181549706052,10.040280940691778,0.031102550007935978,1.2328758901283359
1009,13.625171946422109,74.44181549706052,10.039077028650235,0.031105760663716203,1.2327076781461863
1010,13.638464797101545,74.44181549706052,10.038410492340082,0.03110791192710295,1.2325933054511935
1011,13.65175764778098,74.44181549706052,10.03877790021869,0.031110724683493077,1.232574012063187
1012,13.665050498460417,74.44181549706052,10.040658505277246,0.03111607068314482,1.2326834031032137
1013,13.678343349139851,74.44181549706052,10.04444520706449,0.031125615838539355,1.232942316703112
1014,13.691636199819287,74.44181549706052,10.050370724066338,0.03114044398540924,1.2333541613509138
1015,13.704929050498723,74.44181549706052,10.058438607215523,0.031160721927286174,1.2339013483069778
1016,13.71822190117816,74.44181549706052,10.068370511155674,0.03118547013469753,1.2345435038987846
1017,13.731514751857596,74.44181549706052,10.079581220004,0.031212495454212376,1.2352180964049622
1018,13.744807602537032,74.44181549706052,10.091190797260479,0.03123852242491271,1.2358439236308074
1019,13.75810045321647,74.44181549706052,10.10207888500273,0.03125952983129441,1.2363275802537852
1020,13.771393303895906,74.44181549706052,10.110980580786233,0.031271263024478524,1.2365725930742404
1021,13.784686154575342,74.44181549706052,10.116617265209571,0.031269856753855,1.2364904426887904
1022,13.797979005254778,74.44181549706052,10.117848939342753,0.03125247529541347,1.2360122663020392
1023,13.811271855934214,74.44181549706052,10.113828376985948,0.031217863428675587,1.2350997455657
1024,13.82456470661365,74.44181549706052,10.104134815350948,0.031166707701516406,1.233753597314558
1025,13.837857557293086,74.44181549706052,10.088866700826555,0.03110173297355013,1.23201824460004
1026,13.851150407972522,74.44181549706052,10.068677754345346,0.031027500687806252,1.2299816495948235
1027,13.864443258651958,74.44181549706052,10.044747689222296,0.03094992530919583,1.2277698935105068
1028,13.877736109331394,74.44181549706052,10.018687765097804,0.030875574457375148,1.225536807098788
1029,13.89102896001083,74.44181549706052,9.992390626451275,0.030810857184466054,1.2234496834356963
1030,13.904321810690268,74.44181549706052,9.967842004136896,0.03076122620666672,1.2216727274950927
1031,13.917614661369704,74.44181549706052,9.946917564961687,0.03073052156395878,1.2203503712701256
1032,13.93090751204914,74.44181549706052,9.931190567613383,0.03072056413193989,1.2195928038979593
1033,13.944200362728576,74.44181549706052,9.921774967846272,0.030731054959643424,1.2194654830271348
1034,13.957493213408013,74.44181549706052,9.919224273894368,0.030759760828455364,1.2199831230546758
1035,13.970786064087449,74.44181549706052,9.923496862955712,0.03080292418553983,1.221108246716927
1036,13.984078914766885,74.44181549706052,9.933985343754623,0.03085583454769211,1.222754898218574
1037,13.99737176544632,74.44181549706052,9.949600016465023,0.030913481869684588,1.2247976577625932
1038,14.010664616125757,74.44181549706052,9.968895693062477,0.03097118284091037,1.2270847278336927
1039,14.023957466805191,74.44181549706052,9.990227720246779,0.031025075643812985,1.2294531297602602
1040,14.037250317484627,74.44181549706052,10.011917275925136,0.03107241588864954,1.2317440741315564
1041,14.050543168164063,74.44181549706052,10.032405468730184,0.031111651877343476,1.2338168084125112
1042,14.0638360188435,74.44181549706052,10.050380287599975,0.031142300920590157,1.2355596109983764
1043,14.077128869522936,74.44181549706052,10.064866296176286,0.031164683477207387,1.2368970757824505
1044,14.090421720202372,74.44181549706052,10.07527286325076,0.031179592081249315,1.237793334485199
1045,14.103714570881811,74.44181549706052,10.08140200940686,0.03118797454775655,1.2382513287055292
1046,14.117007421561247,74.44181549706052,10.08342098049462,0.03119069667678038,1.2383086200657918
1047,14.130300272240683,74.44181549706052,10.08180717396555,0.03118842297701206,1.2380304914093114
1048,14.14359312292012,74.44181549706052,10.07727411115546,0.031181621553466665,1.237501243882926
1049,14.156885973599556,74.44181549706052,10.070687079555302,0.031170668757342878,1.236814647700378
1050,14.170178824278992,74.44181549706052,10.062976276806985,0.031156007090593,1.2360644772257863
1051,14.183471674958428,74.44181549706052,10.055054152973344,0.03113830003013232,1.2353359701205118
1052,14.196764525637864,74.44181549706052,10.04774242680283,0.031118531200516823,1.2346989066878942
1053,14.2100573763173,74.44181549706052,10.041713052122814,0.031098014244520328,1.234202816645976
1054,14.223350226996736,74.44181549706052,10.037446220031901,0.031078308553423445,1.2338745948877146
1055,14.236643077676172,74.44181549706052,10.035207237069423,0.031061058418337922,1.2337185597064737
1056,14.249935928355608,74.44181549706052,10.035042773800528,0.03104778432306579,1.2337187388484179
1057,14.263228779035044,74.44181549706052,10.03679555342638,0.03103966513818666,1.2338429478098019
1058,14.27652162971448,74.44181549706052,10.040135143444148,0.03103735441309141,1.234048059225852
1059,14.289814480393916,74.44181549706052,10.044601273343801,0.031040863738276255,1.2342857606962532
1060,14.303107331073354,74.44181549706052,10.049655181455279,0.031049532455261996,1.2345080779239972
1061,14.31640018175279,74.44181549706052,10.054734009481107,0.031062092855647018,1.2346721108828829
1062,14.329693032432226,74.44181549706052,10.059303254280742,0.031076824755797726,1.2347437541314985
1063,14.342985883111664,74.44181549706052,10.062902728814336,0.031091774948579464,1.234700295882363
1064,14.3562787337911,74.44181549706052,10.065182201971496,0.031105006259492918,1.234531695198751
1065,14.369571584470537,74.44181549706052,10.065923833173414,0.031114838610510398,1.2342404405552545
1066,14.38286443514997,74.44181549706052,10.065050462070344,0.031120047271070553,1.233840189811928
1067,14.396157285829409,74.44181549706052,10.062621483957544,0.031119992588028333,1.2333535495076013
1068,14.409450136508845,74.44181549706052,10.058818826329972,0.03111466966923081,1.2328093523219579
1069,14.42274298718828,74.44181549706052,10.05392440312943,0.031104677793457516,1.2322397592566932
1070,14.436035837867715,74.44181549706052,10.048290651052662,0.031091116154069894,1.231677465885735
1071,14.449328688547151,74.44181549706052,10.04230736506012,0.03107542176582446,1.2311532280304405
1072,14.462621539226587,74.44181549706052,10.036368555337928,0.03105917561114903,1.2306938514640826
1073,14.475914389906023,74.44181549706052,10.030842356966193,0.03104390701928989,1.230320720701008
1074,14.48920724058546,74.44181549706052,10.026046142755089,0.031030923336559685,1.2300488810122898
1075,14.502500091264896,74.44181549706052,10.022228126214333,0.031021185172648635,1.2298866409007927
1076,14.515792941944332,74.44181549706052,10.01955593597293,0.031015238574560906,1.2298356321006396
1077,14.52908579262377,74.44181549706052,10.01811200442101,0.031013205898948164,1.229891250092869
1078,14.542378643303206,74.44181549706052,10.017895171068496,0.03101482797541652,1.2300433960857087
1079,14.555671493982642,74.44181549706052,10.018827548307794,0.03101954284278634,1.2302774450530554
1080,14.568964344662078,74.44181549706052,10.020765402003192,0.031026583628154927,1.2305753674890425
1081,14.582257195341514,74.44181549706052,10.023512774126205,0.03103507996643691,1.2309169315727766
1082,14.59555004602095,74.44181549706052,10.02683677973457,0.031044150404201158,1.2312809086502055
1083,14.608842896700386,74.44181549706052,10.030483586091057,0.03105297651899929,1.2316462039385452
1084,14.622135747379822,74.44181549706052,10.034194044627988,0.031060854033677733,1.2319928435601661
1085,14.635428598059258,74.44181549706052,10.037718089009015,0.03106722123781301,1.2323027736226617
1086,14.648721448738694,74.44181549706052,10.04082735413487,0.031071669115370976,1.2325604664211864
1087,14.66201429941813,74.44181549706052,10.043325880666107,0.03107394016324416,1.232753374978082
1088,14.675307150097566,74.44181549706052,10.045059165740646,0.031073923736864892,1.2328723164791449
1089,14.688600000777004,74.44181549706052,10.045922115347485,0.031071654778447276,1.232911882911709
1090,14.70189285145644,74.44181549706052,10.045866551290667,0.031067320142088826,1.232870962611365
1091,14.715185702135877,74.44181549706052,10.044908757520496,0.031061272899819185,1.2327534068170949
1092,14.728478552815313,74.44181549706052,10.043137093602596,0.031054050746365875,1.232568797384494
1093,14.741771403494749,74.44181549706052,10.040718991523264,0.031046390824715,1.2323331798721038
1094,14.755064254174185,74.44181549706052,10.037905783542415,0.031039230831136112,1.2320695390320848
1095,14.76835710485362,74.44181549706052,10.035032946051423,0.03103368574473765,1.2318077310948503
1096,14.781649955533055,74.44181549706052,10.032512708985742,0.031030991221272976,1.2315835676925666
1097,14.794942806212491,74.44181549706052,10.03081583146973,0.03103240850281115,1.2314367856220598
1098,14.808235656891927,74.44181549706052,10.030439933876378,0.031039091286154702,1.2314077459712676
1099,14.821528507571363,74.44181549706052,10.03186327881677,0.03105192188389026,1.2315328881458374
1100,14.8348213582508,74.44181549706052,10.035485321495239,0.031071331595350943,1.231839208310889
1101,14.848114208930236,74.44181549706052,10.041558480584102,0.031097127635387946,1.2323383088892192
1102,14.861407059609672,74.44181549706052,10.05011892463716,0.03112835501096987,1.2330208279919708
1103,14.87469991028911,74.44181549706052,10.060927010937167,0.03116322468430773,1.2338522428508076
1104,14.887992760968546,74.44181549706052,10.073429533190216,0.031199137324146784,1.2347710852979443
1105,14.901285611647982,74.44181549706052,10.086755407146793,0.031232823012830504,1.2356904608870434
1106,14.91457846232742,74.44181549706052,10.099753384515605,0.03126060126864867,1.2365034094260001
1107,14.927871313006856,74.44181549706052,10.111074946776498,0.0312787474591528,1.2370921108614266
1108,14.941164163686292,74.44181549706052,10.119298811020789,0.031283933968926335,1.2373403002294123
1109,14.954457014365728,74.44181549706052,10.123086550761752,0.03127369277934711,1.2371476183991341
1110,14.967749865045164,74.44181549706052,10.12135182132317,0.031246826025160497,1.2364441162582662
1111,14.9810427157246,74.44181549706052,10.113420058285842,0.03120368966624663,1.2352028616795825
1112,14.994335566404036,74.44181549706052,10.099154184594113,0.031146294429761537,1.2334486462366845
1113,15.007628417083472,74.44181549706052,10.079025364073404,0.03107819631765758,1.231261171496575
1114,15.020921267762908,74.44181549706052,10.054114638342607,0.031004180947720433,1.22877177033818
1115,15.034214118442344,74.44181549706052,10.026040386573987,0.030929778820361242,1.2261535898734393
1116,15.04750696912178,74.44181549706052,9.996816983980658,0.030860676097783174,1.2236060964670195
1117,15.060799819801217,74.44181549706052,9.968660133444317,0.030802102420745932,1.221335612996037
1118,15.074092670480653,74.44181549706052,9.9437624000143,0.030758281051815363,1.2195342461422682
1119,15.087385521160089,74.44181549706052,9.924067156714955,0.03073201838431308,1.2183598936146898
1120,15.100678371839525,74.44181549706052,9.911069798487635,0.030724490765601062,1.217919821982936
1121,15.113971222518964,74.44181549706052,9.905671536773056,0.030735248169951847,1.2182596110460835
1122,15.1272640731984,74.44181549706052,9.908102828022537,0.030762403431510273,1.219358597204407
1123,15.140556923877837,74.44181549706052,9.917921957491771,0.03080295200160179,1.2211324192839974
1124,15.153849774557273,74.44181549706052,9.934084364671,0.03085317471176034,1.2234423975352566
1125,15.167142625236709,74.44181549706052,9.955071568904467,0.03090907246973319,1.2261103930469093
1126,15.180435475916145,74.44181549706052,9.979062088226787,0.030966767742513786,1.2289370804028534
1127,15.19372832659558,74.44181549706052,10.00412136962603,0.031022815711923186,1.231721322385554
1128,15.207021177275015,74.44181549706052,10.028386951449033,0.031074395869997103,1.2342784136319183
1129,15.220314027954451,74.44181549706052,10.050228632207586,0.03111938419520349,1.2364553086855061
1130,15.233606878633887,74.44181549706052,10.06836922441581,0.031156329630490292,1.2381415033351943
1131,15.246899729313323,74.44181549706052,10.08195822846201,0.031184372744200533,1.2392748899543646
1132,15.26019257999276,74.44181549706052,10.090597379600478,0.03120314698887012,1.2398425516462082
1133,15.273485430672196,74.44181549706052,10.094322525417109,0.03121269491442319,1.2398770079399761
1134,15.286778281351632,74.44181549706052,10.093550106735725,0.03121341660216045,1.239448820490324
1135,15.300071132031068,74.44181549706052,10.088998490010056,0.031206050443621597,1.2386566908442136
1136,15.313363982710504,74.44181549706052,10.081594749898152,0.03119167207984668,1.2376162456209714
1137,15.326656833389942,74.44181549706052,10.07237666972642,0.03117168936394146,1.2364486399959194
1138,15.339949684069378,74.44181549706052,10.062398220644692,0.031147810973620738,1.2352699587761355
1139,15.353242534748814,74.44181549706052,10.052645027432332,0.031121973063428766,1.2341821932650743
1140,15.36653538542825,74.44181549706052,10.043964606071627,0.031096220228778913,1.2332663498760879
1141,15.379828236107686,74.44181549706052,10.037014578223433,0.031072550652026857,1.232578020886693
1142,15.393121086787122,74.44181549706052,10.032230625623844,0.031052746007753873,1.2321455288032614
1143,15.406413937466558,74.44181549706052,10.029814590039535,0.03103821189952569,1.2319705500361156
1144,15.419706788145994,74.44181549706052,10.02974181390625,0.03102985311970074,1.2320309377020535
1145,15.43299963882543,74.44181549706052,10.031785566817875,0.03102800046304772,1.23228530617705
1146,15.446292489504868,74.44181549706052,10.03555528253328,0.03103239772563535,1.2326788210037318
1147,15.459585340184304,74.44181549706052,10.040544443079764,0.031042250966083536,1.2331495665985508
1148,15.47287819086374,74.44181549706052,10.046183396243105,0.031056332632508756,1.2336348377156663
1149,15.486171041543177,74.44181549706052,10.051892259202788,0.031073122733886904,1.2340767276838855
1150,15.499463892222613,74.44181549706052,10.057129377541614,0.03109096453219175,1.23442655674302
1151,15.512756742902049,74.44181549706052,10.061431554499553,0.03110821369824108,1.2346479721631534
1152,15.526049593581485,74.44181549706052,10.064443362046397,0.031123364455402,1.2347186825855827
1153,15.53934244426092,74.44181549706052,10.065934168577607,0.031135142453734384,1.2346307500671425
1154,15.552635294940355,74.44181549706052,10.065802923516452,0.031142562483354824,1.234389485941334
1155,15.565928145619791,74.44181549706052,10.064072040515933,0.031144957864054933,1.234011267070143
1156,15.57922099629923,74.44181549706052,10.060872689221831,0.031141991002719575,1.2335207300436792
1157,15.592513846978663,74.44181549706052,10.056424313423323,0.031133650999593136,1.2329477880553992
1158,15.6058066976581,74.44181549706052,10.051011262236923,0.03112024198253152,1.2323248438808083
1159,15.619099548337536,74.44181549706052,10.044959087392895,0.0311023658752642,1.2316844627653174
1160,15.632392399016974,74.44181549706052,10.038612388061319,0.031080900992196535,1.2310576337324386
1161,15.64568524969641,74.44181549706052,10.032315251438988,0.031056973878517243,1.2304726141299094
1162,15.658978100375846,74.44181549706052,10.026394558869807,0.031031919088566062,1.2299542451974046
1163,15.672270951055282,74.44181549706052,10.021145871051399,0.03100722098771445,1.229523564604479
1164,15.685563801734718,74.44181549706052,10.016821367170268,0.030984433329554528,1.2291975326839606
1165,15.698856652414154,74.44181549706052,10.013619408718432,0.030965076231577276,1.2289887281224359
1166,15.71214950309359,74.44181549706052,10.0116756583183,0.030950515620747535,1.2289049421269076
1167,15.725442353773028,74.44181549706052,10.011056253514989,0.030941836621710468,1.2289486875345004
1168,15.738735204452464,74.44181549706052,10.011754108472585,0.030939728109716846,1.2291167202208086
1169,15.7520280551319,74.44181549706052,10.013689136429468,0.03094439542777779,1.2293997248965298
1170,15.765320905811336,74.44181549706052,10.016712076099918,0.030955511782258943,1.2297823251567581
1171,15.778613756490772,74.44181549706052,10.02061163155712,0.030972216937386467,1.230243535553446
1172,15.791906607170208,74.44181549706052,10.02512578400606,0.03099317449443364,1.230757709291709
1173,15.805199457849644,74.44181549706052,10.029957806305907,0.031016691959906417,1.2312959636383185
1174,15.81849230852908,74.44181549706052,10.034795793260006,0.03104089211196111,1.2318279783404409
1175,15.831785159208517,74.44181549706052,10.039333554165248,0.031063912820456365,1.2323239823006487
1176,15.845078009887953,74.44181549706052,10.04329073260772,0.03108410778153983,1.2327567098025567
1177,15.858370860567389,74.44181549706052,10.046430357235515,0.031100219835383528,1.2331031254088225
1178,15.871663711246825,74.44181549706052,10.048572600363546,0.03111150197773289,1.2333457732109188
1179,15.88495656192626,74.44181549706052,10.049604286318877,0.031117769054316263,1.2334737033694432
1180,15.898249412605695,74.44181549706052,10.049484465027012,0.031119374285964507,1.233483039060496
1181,15.911542263285131,74.44181549706052,10.048246946940717,0.031117117283060648,1.2333772870123736
1182,15.924835113964573,74.44181549706052,10.046000904764355,0.03111210164718561,1.2331674507952737
1183,15.938127964644009,74.44181549706052,10.042930389434696,0.0311055682626158,1.2328719554097427
1184,15.951420815323443,74.44181549706052,10.039292905090912,0.031098733211280396,1.2325163482804369
1185,15.96471366600288,74.44181549706052,10.035416193282185,0.031092656242923167,1.232132670356092
1186,15.978006516682315,74.44181549706052,10.031691353665842,0.031088157500820876,1.2317583178181402
1187,15.991299367361751,74.44181549706052,10.02855970113466,0.031085788525751116,1.2314341894534806
1188,16.004592218041186,74.44181549706052,10.026490642664385,0.03108585110752604,1.231201958800986
1189,16.017885068720624,74.44181549706052,10.025948579067968,0.031088447107098658,1.2311004281024167
1190,16.03117791940006,74.44181549706052,10.027348467528018,0.03109353609061464,1.2311611029525715
1191,16.044470770079496,74.44181549706052,10.031002084566289,0.031100977147569677,1.2314033456007267
1192,16.057763620758934,74.44181549706052,10.037059851701041,0.031110537420645897,1.231829680776367
1193,16.071056471438368,74.44181549706052,10.04545578529014,0.031121861522331495,1.232421992449214
1194,16.084349322117806,74.44181549706052,10.055865060441269,0.031134410211760628,1.2331394153430206
1195,16.09764217279724,74.44181549706052,10.06768418919656,0.031147389776411693,1.2339186540556621
1196,16.110935023476678,74.44181549706052,10.080042440274063,0.03115970176567687,1.2346772385591347
1197,16.124227874156112,74.44181549706052,10.091849512604481,0.031169943103636303,1.2353198592706436
1198,16.13752072483555,74.44181549706052,10.101879021833806,0.031176478112952342,1.2357474609348695
1199,16.150813575514984,74.44181549706052,10.108882698129394,0.031177588052516865,1.235868283385182
1200,16.164106426194422,74.44181549706052,10.111727035345599,0.031171684149075694,1.2356096070847937
1201,16.177399276873857,74.44181549706052,10.109538255404162,0.03115755187112832,1.2349286805033146
1202,16.190692127553294,74.44181549706052,10.101834093208213,0.03113458232177626,1.2338212437982081
1203,16.20398497823273,74.44181549706052,10.088620128778865,0.031102944510553635,1.232326251616962
1204,16.217277828912167,74.44181549706052,10.070434569094294,0.031063660761315726,1.2305258240052708
1205,16.230570679591604,74.44181549706052,10.048332753344459,0.031018564789628618,1.2285400606938857
1206,16.24386353027104,74.44181549706052,10.02381003000141,0.030970144136095893,1.2265170487736012
1207,16.257156380950477,74.44181549706052,9.998669757024638,0.030921290796485947,1.2246190735890716
1208,16.27044923162991,74.44181549706052,9.974850819464873,0.03087500136570989,1.223006605185953
1209,16.28374208230935,74.44181549706052,9.954234846992115,0.030834077216350817,1.2218220451885062
1210,16.297034932988783,74.44181549706052,9.938456362694417,0.03080087434982001,1.221175401153171
1211,16.31032778366822,74.44181549706052,9.928739226959596,0.030777141517076022,1.221133547950226
1212,16.323620634347655,74.44181549706052,9.925779865005238,0.0307639649142662,1.2217136431414712
1213,16.336913485027093,74.44181549706052,9.92968998276917,0.030761812358212095,1.222880903982885
1214,16.350206335706527,74.44181549706052,9.940000151620652,0.03077064783930017,1.2245513744715337
1215,16.363499186385965,74.44181549706052,9.955718846154417,0.03079007425397428,1.2265998968168925
1216,16.3767920370654,74.44181549706052,9.975440213590987,0.030819458054419623,1.2288722961627265
1217,16.390084887744838,74.44181549706052,9.99748962544228,0.0308579962543826,1.2312001037438938
