,time,sample_rate,Red,Green,Blue
0,0.0,74.97680931630819,11.816480254871022,0.058018930911059016,1.683678973149923
1,0.0132929497524826,74.97680931630819,11.848807514081116,0.058175601790897244,1.6885199430403497
2,0.0265858995049653,74.97680931630819,11.877513763888665,0.05831552980947925,1.6928286697683192
3,0.039878849257448,74.97680931630819,11.899724685438219,0.05842488330272389,1.696179226426506
4,0.0531717990099306,74.97680931630819,11.913646099794505,0.05849529261472014,1.6983041056470072
5,0.0664647487624133,74.97680931630819,11.918699890635065,0.058524410098556835,1.6991143346013293
6,0.079757698514896,74.97680931630819,11.915445065175392,0.058515327452205175,1.69868809037964
7,0.0930506482673786,74.97680931630819,11.905361840646195,0.05847531069022458,1.6972391849404602
8,0.1063435980198613,74.97680931630819,11.890542357640085,0.058414128745629235,1.6950717787423442
9,0.119636547772344,74.97680931630819,11.873324123324249,0.058342192692056496,1.6925266092992723
10,0.1329294975248266,74.97680931630819,11.855927844232829,0.05826882816766577,1.6899277930512533
11,0.1462224472773093,74.97680931630819,11.840188812696473,0.05820112511131994,1.6875433112131355
12,0.159515397029792,74.97680931630819,11.8274390287472,0.05814363777100715,1.685567622653702
13,0.1728083467822746,74.97680931630819,11.818515469654647,0.05809878082491437,1.6841228736867948
14,0.1861012965347573,74.97680931630819,11.813826187528116,0.058067521347459496,1.6832687473767032
15,0.19939424628724,74.97680931630819,11.813425380853896,0.05805004404968502,1.6830137992629213
16,0.2126871960397226,74.97680931630819,11.81708004808233,0.05804622851786408,1.683325681466727
17,0.2259801457922053,74.97680931630819,11.824326406942014,0.05805588200582354,1.6841398976282504
18,0.239273095544688,74.97680931630819,11.834520146093176,0.05807874048085813,1.6853676005633025
19,0.2525660452971707,74.97680931630819,11.8468861641369,0.05811430055066824,1.686903229269503
20,0.2658589950496533,74.97680931630819,11.860571634849965,0.058161573168162214,1.6886324153374912
21,0.279151944802136,74.97680931630819,11.874702420458902,0.058218855642692295,1.6904398032211798
22,0.2924448945546187,74.97680931630819,11.88843989768031,0.058283603905473144,1.6922161839258496
23,0.3057378443071013,74.97680931630819,11.901034041598612,0.058352457094656904,1.6938647269503364
24,0.319030794059584,74.97680931630819,11.911867357987521,0.05842142736885945,1.6953060711869767
25,0.3323237438120667,74.97680931630819,11.920483390831736,0.058486228366381156,1.6964816273629215
26,0.3456166935645493,74.97680931630819,11.926595024664431,0.05854268538062531,1.6973544856639968
27,0.358909643317032,74.97680931630819,11.93007142260572,0.05858715491594669,1.6979078153040204
28,0.3722025930695147,74.97680931630819,11.930906819280256,0.05861688261802929,1.698141198606778
29,0.3854955428219973,74.97680931630819,11.929178644036002,0.05863024518019918,1.6980658193576177
30,0.39878849257448,74.97680931630819,11.925005608137843,0.0586268491124815,1.6976997342177231
31,0.4120814423269627,74.97680931630819,11.91851719042289,0.05860749038744382,1.697064502125713
32,0.4253743920794453,74.97680931630819,11.909843879894835,0.05857400638972476,1.69618418934427
33,0.438667341831928,74.97680931630819,11.89913320090811,0.058529068695928284,1.6950872318165384
34,0.4519602915844107,74.97680931630819,11.886590804318548,0.05847596796799911,1.6938109151788783
35,0.4652532413368933,74.97680931630819,11.872539480856672,0.058418430334691435,1.6924074724289355
36,0.478546191089376,74.97680931630819,11.857482970329595,0.05836048174466793,1.6909501703415692
37,0.4918391408418587,74.97680931630819,11.84215746424694,0.05830634981504902,1.6895374167528545
38,0.5051320905943414,74.97680931630819,11.827553057679507,0.058260370047820836,1.6882929825729285
39,0.518425040346824,74.97680931630819,11.814890636519591,0.05822685242662106,1.6873609298987378
40,0.5317179900993066,74.97680931630819,11.805546496199966,0.05820986964592445,1.6868947159852232
41,0.5450109398517894,74.97680931630819,11.800926350942248,0.05821294921512188,1.6870410607630495
42,0.558303889604272,74.97680931630819,11.80230064478742,0.058238683277578064,1.687920317630943
43,0.5715968393567546,74.97680931630819,11.810622206861957,0.058288303592070066,1.6896060424086834
44,0.5848897891092374,74.97680931630819,11.826353376386276,0.058361295150419684,1.6921070048382616
45,0.59818273886172,74.97680931630819,11.84933134389707,0.05845513256595222,1.695354890789824
46,0.6114756886142027,74.97680931630819,11.87869704378212,0.05856521489310119,1.6992003633733626
47,0.6247686383666854,74.97680931630819,11.912904901026598,0.058685048086885176,1.7034190627936137
48,0.638061588119168,74.97680931630819,11.949819387170121,0.05880668534923387,1.7077277014382357
49,0.6513545378716507,74.97680931630819,11.98689158811305,0.058921392191518165,1.71180888865729
50,0.6646474876241334,74.97680931630819,12.021396954457325,0.05902046337501283,1.7153419406457533
51,0.677940437376616,74.97680931630819,12.05070598644474,0.059096089945556964,1.7180359115038981
52,0.6912333871290987,74.97680931630819,12.072554211136204,0.05914215779575352,1.719660461756098
53,0.7045263368815814,74.97680931630819,12.085276677007615,0.059154858276283806,1.7200700986054072
54,0.717819286634064,74.97680931630819,12.087975598101705,0.05913303347734607,1.7192187730352073
55,0.7311122363865467,74.97680931630819,12.080601378632576,0.05907825559523933,1.7171645186615594
56,0.7444051861390294,74.97680931630819,12.063944974343247,0.05899466699837326,1.7140647384394885
57,0.757698135891512,74.97680931630819,12.039549436364872,0.05888858096464765,1.710161770259461
58,0.7709910856439947,74.97680931630819,12.009549154292772,0.05876786294700692,1.7057591657429896
59,0.7842840353964774,74.97680931630819,11.976451908656378,0.058641175664357816,1.7011916131558191
60,0.79757698514896,74.97680931630819,11.942890636419769,0.058517196785700644,1.6967926585348412
61,0.8108699349014427,74.97680931630819,11.911376057244146,0.058403901420876446,1.6928641228387558
62,0.8241628846539254,74.97680931630819,11.884077490611102,0.058307975252828756,1.6896504482968637
63,0.837455834406408,74.97680931630819,11.862652552319203,0.05823439597587735,1.6873203224656343
64,0.8507487841588907,74.97680931630819,11.84813849271391,0.05818619386360439,1.685956865351329
65,0.8640417339113734,74.97680931630819,11.84090957871617,0.05816438143435445,1.685556582593406
66,0.877334683663856,74.97680931630819,11.84069730484255,0.0581680292768137,1.6860363193754822
67,0.8906276334163387,74.97680931630819,11.846664172105648,0.05819445980154196,1.6872467000521765
68,0.9039205831688214,74.97680931630819,11.85751777229332,0.05823953090427668,1.6889900653631367
69,0.917213532921304,74.97680931630819,11.871650061100326,0.05829798449334439,1.6910407362412425
70,0.9305064826737868,74.97680931630819,11.887286816285226,0.05836383781402296,1.6931655173324514
71,0.9437994324262694,74.97680931630819,11.902633991109196,0.05843079729515638,1.695142654555519
72,0.957092382178752,74.97680931630819,11.916010520764997,0.05849267626517856,1.6967779124806384
73,0.9703853319312348,74.97680931630819,11.92596059781685,0.05854379944897111,1.6979169630157298
74,0.9836782816837174,74.97680931630819,11.931341951257014,0.058579377642989004,1.6984537983144097
75,0.9969712314362,74.97680931630819,11.931389694753111,0.058595837871882106,1.6983353236348746
76,1.0102641811886828,74.97680931630819,11.925757367613288,0.0585910982251752,1.6975625884567558
77,1.0235571309411653,74.97680931630819,11.91453754945325,0.05856477542378697,1.6961892383027026
78,1.036850080693648,74.97680931630819,11.898263826939997,0.05851830642737456,1.694317711551566
79,1.0501430304461308,74.97680931630819,11.877894222097884,0.058454962385249665,1.6920935048140404
80,1.0634359801986133,74.97680931630819,11.854774104893565,0.05837973555934597,1.6896975668832523
81,1.076728929951096,74.97680931630819,11.830575044852317,0.05829908315859509,1.6873366807598915
82,1.0900218797035788,74.97680931630819,11.807205945113896,0.05822051844209211,1.6852316526369517
83,1.1033148294560613,74.97680931630819,11.78669528606041,0.05815205343190729,1.6836031530633202
84,1.116607779208544,74.97680931630819,11.771048233253026,0.05810151907533547,1.6826551950106647
85,1.1299007289610268,74.97680931630819,11.762084978389584,0.058075812143643796,1.6825569039758355
86,1.1431936787135093,74.97680931630819,11.761266573532525,0.05808013893556084,1.6834242892608724
87,1.156486628465992,74.97680931630819,11.76952203324711,0.058117345027455726,1.6853043383837139
88,1.1697795782184748,74.97680931630819,11.78710370234885,0.05818743139914557,1.6881637431045222
89,1.1830725279709573,74.97680931630819,11.813499521318649,0.05828734594685422,1.6918842866249828
90,1.19636547772344,74.97680931630819,11.847420041700415,0.058411105277672334,1.6962663763376513
91,1.2096584274759228,74.97680931630819,11.8868671041846,0.05855025643495983,1.7010412921295477
92,1.2229513772284053,74.97680931630819,11.929281865373822,0.0586946397048122,1.705891574340271
93,1.236244326980888,74.97680931630819,11.971759755930671,0.05883336819205202,1.710477813058425
94,1.2495372767333708,74.97680931630819,12.011310488284694,0.0589559056319355,1.714469113398284
95,1.2628302264858533,74.97680931630819,12.045134489429929,0.059053107407831255,1.7175738612604752
96,1.276123176238336,74.97680931630819,12.070884258690548,0.05911809219143757,1.719567117563019
97,1.2894161259908188,74.97680931630819,12.086880550695831,0.0591468330819758,1.7203111060957543
98,1.3027090757433013,74.97680931630819,12.092258761354284,0.05913840755578499,1.7197665380700315
99,1.316002025495784,74.97680931630819,12.087030401319574,0.05909491547087059,1.7179946976574891
100,1.3292949752482668,74.97680931630819,12.072056515542839,0.059021115232262465,1.7151510387811832
101,1.3425879250007493,74.97680931630819,12.048940261107022,0.058923833138763655,1.7114704101930616
102,1.355880874753232,74.97680931630819,12.019853077288833,0.05881121829036042,1.7072446393108895
103,1.3691738245057148,74.97680931630819,11.987315045381912,0.05869194337360127,1.7027950115854447
104,1.3824667742581973,74.97680931630819,11.9539545270167,0.05857445069532944,1.6984430146252778
105,1.39575972401068,74.97680931630819,11.922272502251994,0.05846631496629783,1.6944824535134606
106,1.4090526737631628,74.97680931630819,11.894433601069657,0.05837376088145125,1.691155506688898
107,1.4223456235156453,74.97680931630819,11.872100471104519,0.058301343214855895,1.688634640611076
108,1.435638573268128,74.97680931630819,11.856322037272287,0.05825177483517088,1.6870115705555604
109,1.4489315230206108,74.97680931630819,11.847480307949608,0.05822587741343584,1.6862937441725703
110,1.4622244727730933,74.97680931630819,11.845295371157706,0.05822263065150387,1.6864081953453216
111,1.475517422525576,74.97680931630819,11.84888439001906,0.05823930539996451,1.6872120979717813
112,1.4888103722780588,74.97680931630819,11.856867661672204,0.05827167860241176,1.6885089399077349
113,1.5021033220305413,74.97680931630819,11.867512808634405,0.058314337592290655,1.6900689175464514
114,1.515396271783024,74.97680931630819,11.878906523931196,0.05836108310634086,1.691651902701746
115,1.5286892215355068,74.97680931630819,11.889141705618014,0.05840543222746629,1.6930311496932355
116,1.541982171287989,74.97680931630819,11.896506244583,0.05844120508472741,1.694015803147865
117,1.555275121040472,74.97680931630819,11.89965839289288,0.05846315623341329,1.694470261400845
118,1.5685680707929548,74.97680931630819,11.897772971921716,0.058467589206411714,1.6943285775242294
119,1.581861020545437,74.97680931630819,11.890643203635314,0.05845287713321746,1.69360236644799
120,1.59515397029792,74.97680931630819,11.878725130117516,0.05841980814734879,1.6923811449301622
121,1.6084469200504028,74.97680931630819,11.863115684913943,0.05837168384117854,1.6908246529749036
122,1.621739869802885,74.97680931630819,11.845461478611368,0.058314123244538066,1.689147456401368
123,1.635032819555368,74.97680931630819,11.827802844306268,0.058254562365741135,1.6875969531829542
124,1.6483257693078508,74.97680931630819,11.812366328350839,0.05820148522840342,1.6864267126809231
125,1.661618719060333,74.97680931630819,11.80132724042664,0.05816346765760736,1.6858677289275386
126,1.674911668812816,74.97680931630819,11.79656671181679,0.05814814594666417,1.6861005679444354
127,1.6882046185652988,74.97680931630819,11.799444573371215,0.05816123320800859,1.6872315452212063
128,1.701497568317781,74.97680931630819,11.810611195822387,0.058205708204123095,1.6892759219845146
129,1.714790518070264,74.97680931630819,11.829887554138125,0.05828129395602555,1.6921505102731798
130,1.7280834678227468,74.97680931630819,11.85623747797217,0.05838430870919152,1.6956770687684821
131,1.741376417575229,74.97680931630819,11.887839742645646,0.05850791582575763,1.699596652018969
132,1.754669367327712,74.97680931630819,11.922253259884892,0.05864274509304083,1.7035937881259278
133,1.7679623170801948,74.97680931630819,11.956658278337505,0.05877781376354792,1.707328126504025
134,1.781255266832677,74.97680931630819,11.988147452064876,0.05890164111292161,1.710470166694798
135,1.79454821658516,74.97680931630819,12.014033817640822,0.05900342853422871,1.7127369931490735
136,1.8078411663376428,74.97680931630819,12.032139561670105,0.05907416980745646,1.7139236115348395
137,1.821134116090125,74.97680931630819,12.041029859905827,0.05910756409936014,1.7139256234452362
138,1.834427065842608,74.97680931630819,12.040160491805775,0.059100633847575024,1.7127504166765957
139,1.8477200155950908,74.97680931630819,12.029921707105526,0.05905399669861153,1.7105165666897324
140,1.861012965347573,74.97680931630819,12.011581809434585,0.058971779279188626,1.707442257890282
141,1.874305915100056,74.97680931630819,11.98714407420575,0.058861185429348255,1.7038231189589785
142,1.8875988648525388,74.97680931630819,11.95912869528125,0.05873176520639497,1.7000008879463
143,1.900891814605021,74.97680931630819,11.930298223378664,0.05859446957475991,1.6963266504517927
144,1.914184764357504,74.97680931630819,11.903359645868306,0.05846059610828882,1.6931235377678893
145,1.9274777141099868,74.97680931630819,11.880681681294266,0.05834073249140184,1.6906535200051265
146,1.940770663862469,74.97680931630819,11.864061056589627,0.058243796940155426,1.6890921433600505
147,1.954063613614952,74.97680931630819,11.854563116301494,0.05817626131586512,1.6885139311785402
148,1.9673565633674348,74.97680931630819,11.852451860347896,0.058141624970861686,1.6888897689168743
149,1.980649513119917,74.97680931630819,11.857213194944169,0.058140187987382325,1.6900959643521252
150,1.9939424628724,74.97680931630819,11.867663159802161,0.058169150581713513,1.6919330435025752
151,2.007235412624883,74.97680931630819,11.882121666345844,0.058223025689864996,1.6941513435915208
152,2.020528362377365,74.97680931630819,11.898626171234328,0.058294298434866075,1.6964801939065457
153,2.033821312129848,74.97680931630819,11.915159097734017,0.05837424664447167,1.6986573097537372
154,2.0471142618823306,74.97680931630819,11.92986344164899,0.05845385293431245,1.7004549546828862
155,2.0604072116348133,74.97680931630819,11.941223519550253,0.0585247338854765,1.7017001710752424
156,2.073700161387296,74.97680931630819,11.948194671438062,0.05857998562830057,1.702287802549716
157,2.086993111139779,74.97680931630819,11.950273188603719,0.058614843260608854,1.702185929189954
158,2.1002860608922616,74.97680931630819,11.947503595769007,0.05862708226388605,1.701433586461127
159,2.113579010644744,74.97680931630819,11.940427511192734,0.058617133515032026,1.7001313629485013
160,2.1268719603972266,74.97680931630819,11.929985918936902,0.058587915493829364,1.6984266005148871
161,2.1401649101497093,74.97680931630819,11.9173912139472,0.05854440582307984,1.6964954927966138
162,2.153457859902192,74.97680931630819,11.903986403862369,0.05849300103712422,1.6945243322286443
163,2.166750809654675,74.97680931630819,11.89110758368573,0.05844074555363284,1.6926918578828507
164,2.1800437594071576,74.97680931630819,11.87996280560813,0.058394526560316885,1.6911542114241267
165,2.19333670915964,74.97680931630819,11.871536336807655,0.058360329757842874,1.6900334789619555
166,2.2066296589121226,74.97680931630819,11.86652281095162,0.05834263859782067,1.6894103096680948
167,2.2199226086646053,74.97680931630819,11.865291645915175,0.0583440307631943,1.6893207082799846
168,2.233215558417088,74.97680931630819,11.867878870999819,0.058364984677924746,1.6897565418403857
169,2.246508508169571,74.97680931630819,11.874001557239719,0.05840388533145203,1.6906686495352676
170,2.2598014579220536,74.97680931630819,11.883089426164334,0.05845721606553774,1.691971535796594
171,2.273094407674536,74.97680931630819,11.894328319611182,0.05851991031919921,1.6935494076189814
172,2.2863873574270186,74.97680931630819,11.906710833313449,0.058585815658054166,1.6952635982741762
173,2.2996803071795013,74.97680931630819,11.91909148480227,0.058648216717767085,1.6969611295461846
174,2.312973256931984,74.97680931630819,11.930246766562622,0.05870037347444285,1.6984841015532357
175,2.326266206684467,74.97680931630819,11.938942037170259,0.05873604362264038,1.699679769024978
176,2.3395591564369496,74.97680931630819,11.944007160876293,0.058749968455189636,1.700411223862599
177,2.352852106189432,74.97680931630819,11.94442208861283,0.05873831214610037,1.7005685087084157
178,2.3661450559419146,74.97680931630819,11.939411503858059,0.05869905172617182,1.7000797630826798
179,2.3794380056943973,74.97680931630819,11.92854389949873,0.0586323071082244,1.698921677480056
180,2.39273095544688,74.97680931630819,11.911826270657405,0.058540579433418345,1.6971281515805234
181,2.406023905199363,74.97680931630819,11.88978190311975,0.05842885176097181,1.6947957188000902
182,2.4193168549518456,74.97680931630819,11.863495997566242,0.058304504214677616,1.6920842240916736
183,2.432609804704328,74.97680931630819,11.834613261270041,0.058176999858139684,1.6892115216842325
184,2.4459027544568106,74.97680931630819,11.80527429098085,0.05805731144643113,1.6864413791870947
185,2.4591957042092933,74.97680931630819,11.777984311120235,0.05795709137653176,1.6840642987184251
186,2.472488653961776,74.97680931630819,11.75541796021084,0.057887634240419074,1.6823719154157597
187,2.485781603714259,74.97680931630819,11.740172942371533,0.0578587132304472,1.6816270050205921
188,2.4990745534667416,74.97680931630819,11.734491979242671,0.05787738247998817,1.6820324100796926
189,2.512367503219224,74.97680931630819,11.739982888960908,0.05794688126065682,1.6837029154706473
190,2.5256604529717066,74.97680931630819,11.757378339022251,0.058065840246669276,1.6866441634927758
191,2.5389534027241893,74.97680931630819,11.786376670165716,0.058227979042869735,1.6907421444352853
192,2.552246352476672,74.97680931630819,11.825592571089821,0.058422395286960194,1.6957656465549176
193,2.565539302229155,74.97680931630819,11.872630863933173,0.05863445081584163,1.7013823971219824
194,2.5788322519816376,74.97680931630819,11.924280776668288,0.05884717601277648,1.7071877260269959
195,2.59212520173412,74.97680931630819,11.976811440876524,0.05904303201411158,1.7127427545021436
196,2.6054181514866026,74.97680931630819,12.026334606963532,0.05920580645473414,1.7176176508651788
197,2.6187111012390853,74.97680931630819,12.069190549136199,0.059322387581661126,1.7214346425466283
198,2.632004050991568,74.97680931630819,12.10230951403304,0.05938417083411187,1.723905248433025
199,2.645297000744051,74.97680931630819,12.123504459685291,0.05938790179043425,1.7248566802043006
200,2.6585899504965336,74.97680931630819,12.131660472876467,0.05933584587980552,1.7242444873597051
201,2.671882900249016,74.97680931630819,12.126800585241183,0.05923528357992675,1.7221518874278763
202,2.6851758500014986,74.97680931630819,12.110025796286836,0.059097430892690324,1.7187776122957577
203,2.6984687997539814,74.97680931630819,12.083345912903287,0.058935960460250326,1.7144133110199207
204,2.711761749506464,74.97680931630819,12.049430502526915,0.05876534841932648,1.7094123183294607
205,2.725054699258947,74.97680931630819,12.011314024134062,0.058599287841106434,1.7041538570118702
206,2.7383476490114296,74.97680931630819,11.972090871714899,0.05844938051204316,1.6990075132969897
207,2.751640598763912,74.97680931630819,11.93463500992793,0.058324252703762375,1.6943020032684206
208,2.7649335485163946,74.97680931630819,11.90137213691549,0.0582291561489929,1.690301055252819
209,2.7782264982688774,74.97680931630819,11.874121528796888,0.058166030477301504,1.6871879642432928
210,2.79151944802136,74.97680931630819,11.854013507282913,0.0581339336795744,1.6850591357637419
211,2.804812397773843,74.97680931630819,11.841478751080288,0.0581297043054012,1.6839259039256174
212,2.8181053475263256,74.97680931630819,11.836298493423476,0.05814870782982588,1.6837231801993398
213,2.831398297278808,74.97680931630819,11.8377004984611,0.058185537693479054,1.684323096375533
214,2.8446912470312906,74.97680931630819,11.844484409110015,0.058234580864039674,1.6855517121101373
215,2.8579841967837734,74.97680931630819,11.855160995979363,0.058290406972327395,1.6872069889228818
216,2.871277146536256,74.97680931630819,11.868092211408907,0.058347987290064435,1.6890765011367912
217,2.884570096288739,74.97680931630819,11.881622008303674,0.0584027854256406,1.6909536845825182
218,2.8978630460412216,74.97680931630819,11.894191047281064,0.05845078006911869,1.6926517651224955
219,2.911155995793704,74.97680931630819,11.904431332723616,0.058488480544898865,1.6940148347894923
220,2.9244489455461866,74.97680931630819,11.911239301619187,0.05851298152980984,1.6949258419125388
221,2.9377418952986694,74.97680931630819,11.913827832654654,0.05852207984635568,1.6953115233848726
222,2.951034845051152,74.97680931630819,11.911758951866773,0.058514450268281996,1.6951445161107341
223,2.964327794803635,74.97680931630819,11.904959584801178,0.058489854427357185,1.6944430180029786
224,2.9776207445561176,74.97680931630819,11.893722482096821,0.058449340977079975,1.6932684071920847
225,2.9909136943086,74.97680931630819,11.87869348581653,0.058395387857808984,1.691721166359906
226,3.0042066440610826,74.97680931630819,11.860844859576757,0.05833193889239329,1.6899353299477808
227,3.0174995938135654,74.97680931630819,11.841432959789785,0.05826429609879476,1.68807151765717
228,3.030792543566048,74.97680931630819,11.821937684525011,0.0581988452806029,1.686308402059942
229,3.044085493318531,74.97680931630819,11.8039817534203,0.05814261400967462,1.6848322722758406
230,3.0573784430710136,74.97680931630819,11.789230153964457,0.05810268192471637,1.683824549027643
231,3.070671392823496,74.97680931630819,11.77927162278798,0.05808548195955241,1.6834476781237728
232,3.083964342575978,74.97680931630819,11.775484764920808,0.058096057351255434,1.6838303284748841
233,3.0972572923284614,74.97680931630819,11.778897215515991,0.05813736838943176,1.6850531419541788
234,3.110550242080944,74.97680931630819,11.790055781566988,0.058209752677376485,1.6871365977481156
235,3.123843191833427,74.97680931630819,11.808928490089217,0.0583106289840492,1.6900327562988262
236,3.1371361415859096,74.97680931630819,11.834854914481543,0.058434508907802434,1.6936225404143999
237,3.150429091338392,74.97680931630819,11.866555541983278,0.058573345002917124,1.6977197568117999
238,3.163722041090874,74.97680931630819,11.902205057036282,0.05871719911162396,1.702082315152118
239,3.1770149908433574,74.97680931630819,11.939566758144574,0.058855167505012504,1.7064301715308994
240,3.19030794059584,74.97680931630819,11.976177023656456,0.0589764586935452,1.7104685601344125
241,3.203600890348323,74.97680931630819,12.009561465599782,0.05907149272051151,1.713914236037024
242,3.2168938401008056,74.97680931630819,12.037459379090798,0.059132880404391,1.7165218728752938
243,3.230186789853288,74.97680931630819,12.05803116237871,0.059156150205769184,1.718107482355649
244,3.24347973960577,74.97680931630819,12.070024589798816,0.059140134871464786,1.7185658242630086
245,3.2567726893582534,74.97680931630819,12.072880089944892,0.05908700172923882,1.7178797416402691
246,3.270065639110736,74.97680931630819,12.066764199940613,0.059001953001036694,1.716121023203613
247,3.283358588863219,74.97680931630819,12.052532623871311,0.058892629111515826,1.713443227656174
248,3.2966515386157016,74.97680931630819,12.031631773661063,0.058768277945640324,1.710066798767052
249,3.309944488368184,74.97680931630819,12.005949327841023,0.05863880214595825,1.7062575272710758
250,3.323237438120666,74.97680931630819,11.977628494132366,0.05851381291957223,1.7023008852382289
251,3.3365303878731494,74.97680931630819,11.948866956682423,0.05840180033078521,1.6984754619411975
252,3.349823337625632,74.97680931630819,11.92172302968858,0.058309498509661384,1.6950285466110586
253,3.363116287378115,74.97680931630819,11.89794824013224,0.058241487384291954,1.6921563698872775
254,3.3764092371305976,74.97680931630819,11.878860514914809,0.05820003581580188,1.68999075687468
255,3.38970218688308,74.97680931630819,11.865266363490983,0.0581851607839866,1.6885930323715759
256,3.402995136635562,74.97680931630819,11.857434508882926,0.0581948575940308,1.687955093465691
257,3.4162880863880454,74.97680931630819,11.855118050285496,0.05822544821319072,1.6880067524531759
258,3.429581036140528,74.97680931630819,11.857617945456717,0.058271997218881724,1.6886278540083903
259,3.442873985893011,74.97680931630819,11.863877686810271,0.058328753934070596,1.6896633424405256
260,3.4561669356454936,74.97680931630819,11.87259761316333,0.05838959101588218,1.6909394106387416
261,3.469459885397976,74.97680931630819,11.882357284863545,0.05844842057513195,1.6922790732122304
262,3.482752835150458,74.97680931630819,11.891735553463576,0.058499576788388345,1.6935159093990624
263,3.4960457849029414,74.97680931630819,11.89942006370979,0.058538158390416394,1.694505229017462
264,3.509338734655424,74.97680931630819,11.904300524057264,0.058560325935011745,1.6951324270829922
265,3.522631684407907,74.97680931630819,11.90554269701011,0.05856354820321386,1.6953187122209474
266,3.5359246341603896,74.97680931630819,11.902642216618466,0.05854679039771173,1.6950246430805678
267,3.549217583912872,74.97680931630819,11.89545865581828,0.05851063427951964,1.6942519451211875
268,3.562510533665354,74.97680931630819,11.884230559917064,0.05845731760248359,1.693043917722265
269,3.5758034834178374,74.97680931630819,11.869571535301313,0.058390677822718784,1.691484441174733
270,3.58909643317032,74.97680931630819,11.852446340410928,0.058315984509827654,1.6896952710564612
271,3.602389382922803,74.97680931630819,11.834124901482234,0.05823964800568158,1.6878310811750028
272,3.6156823326752856,74.97680931630819,11.816112025726177,0.0581688014129086,1.6860715962930455
273,3.628975282427768,74.97680931630819,11.800051834804385,0.0581107692306102,1.6846102263852532
274,3.64226823218025,74.97680931630819,11.787608305241502,0.058072449307738555,1.6836391561580235
275,3.655561181932733,74.97680931630819,11.780326604599068,0.05805964378529453,1.6833317679960969
276,3.668854131685216,74.97680931630819,11.779484816898531,0.05807639899551932,1.6838240532799107
277,3.682147081437699,74.97680931630819,11.785951044262903,0.05812444735393414,1.6851971113971353
278,3.6954400311901816,74.97680931630819,11.800063707770375,0.058202847773895214,1.6874630678714981
279,3.708732980942664,74.97680931630819,11.821552200244508,0.058307891807032254,1.6905566719203233
280,3.722025930695146,74.97680931630819,11.849511852348943,0.058433306233380555,1.6943343346457505
281,3.735318880447629,74.97680931630819,11.882441742156733,0.058570745438742924,1.6985815034077894
282,3.748611830200112,74.97680931630819,11.918346476278137,0.05871052705496499,1.703028190152368
283,3.761904779952595,74.97680931630819,11.954894831183699,0.058842529155246896,1.7073713637697558
284,3.7751977297050776,74.97680931630819,11.989620432472448,0.05895714406473188,1.7113019597269363
285,3.78849067945756,74.97680931630819,12.020143669838617,0.05904617622001405,1.7145335905507626
286,3.801783629210042,74.97680931630819,12.044390636420463,0.05910357902749602,1.7168297416178853
287,3.815076578962525,74.97680931630819,12.06078448718258,0.05912594670321192,1.7180262556267212
288,3.828369528715008,74.97680931630819,12.068386596469022,0.0591127167403984,1.7180462623989439
289,3.841662478467491,74.97680931630819,12.066969231499215,0.05906609002298574,1.7169060073622076
290,3.8549554282199736,74.97680931630819,12.057013088132155,0.05899070691618723,1.7147120482155787
291,3.868248377972456,74.97680931630819,12.039639955381961,0.058893124627804626,1.7116509861268236
292,3.881541327724938,74.97680931630819,12.016495867384561,0.058781155441169096,1.7079722139270266
293,3.894834277477421,74.97680931630819,11.989592886264912,0.058663145874960125,1.703964600982681
294,3.908127227229904,74.97680931630819,11.96111921869644,0.0585472776069417,1.6999295791264761
295,3.921420176982387,74.97680931630819,11.93323786150621,0.05844095327753057,1.696153794989556
296,3.9347131267348696,74.97680931630819,11.907897418200383,0.058350307982497004,1.6928842387132237
297,3.948006076487352,74.97680931630819,11.886674528195703,0.058279866151465715,1.6903082694903717
298,3.961299026239834,74.97680931630819,11.870661827623817,0.0582323467528418,1.6885403403955297
299,3.974591975992317,74.97680931630819,11.860409586048473,0.058208609402857235,1.6876164687667472
300,3.9878849257448,74.97680931630819,11.855923128267177,0.058207729363286304,1.687496670407219
301,4.001177875497283,74.97680931630819,11.856712369766756,0.05822718797385729,1.688074739294594
302,4.014470825249766,74.97680931630819,11.86188465873199,0.058263163417508944,1.6891939823327975
303,4.027763775002248,74.97680931630819,11.870268019396063,0.058310902361549406,1.6906668884662848
304,4.041056724754731,74.97680931630819,11.880549200194771,0.058365145511106116,1.6922963022831061
305,4.054349674507214,74.97680931630819,11.891409987091098,0.058420571335140205,1.693895553460366
306,4.067642624259696,74.97680931630819,11.901646293681722,0.05847221564528599,1.695305207894515
307,4.080935574012178,74.97680931630819,11.910257632240176,0.05851582395913433,1.696404652163885
308,4.094228523764661,74.97680931630819,11.916499446561396,0.05854810097263375,1.697117540887948
309,4.107521473517144,74.97680931630819,11.91989683350792,0.058566836969464214,1.6974111096838476
310,4.120814423269627,74.97680931630819,11.920224461003958,0.058570912011920474,1.6972903248528783
311,4.134107373022109,74.97680931630819,11.917462893249333,0.05856020071069577,1.6967886300971513
312,4.147400322774592,74.97680931630819,11.911744989546671,0.058535417874106904,1.6959575071910697
313,4.160693272527075,74.97680931630819,11.903306772706735,0.05849795362296,1.6948570964537164
314,4.173986222279558,74.97680931630819,11.892454887915212,0.05844974280222549,1.6935497098099221
315,4.18727917203204,74.97680931630819,11.879557827500417,0.05839319777301814,1.6920973080548407
316,4.200572121784523,74.97680931630819,11.865061408242816,0.05833120909786231,1.6905630479558988
317,4.213865071537006,74.97680931630819,11.849521927675413,0.058267191155328454,1.68901587489154
318,4.227158021289488,74.97680931630819,11.833644534790364,0.05820512645814336,1.687536084659487
319,4.24045097104197,74.97680931630819,11.81831110447838,0.05814954918430793,1.6862194405639925
320,4.253743920794453,74.97680931630819,11.804582180198429,0.058105410061203906,1.6851778974328724
321,4.267036870546936,74.97680931630819,11.793660813494947,0.05807778539144439,1.684535632522894
322,4.280329820299419,74.97680931630819,11.786811963881114,0.05807142934137059,1.684419800606783
323,4.293622770051901,74.97680931630819,11.785240417475121,0.05809020936678008,1.684946490639082
324,4.306915719804384,74.97680931630819,11.789941123362365,0.058136500306500555,1.686203557284741
325,4.320208669556867,74.97680931630819,11.801543631664403,0.05821063687658406,1.688232930971237
326,4.33350161930935,74.97680931630819,11.820175285036346,0.05831053031352194,1.691015473279127
327,4.346794569061832,74.97680931630819,11.845367145520312,0.058431539110604606,1.6944613548732506
328,4.360087518814315,74.97680931630819,11.876022308849405,0.05856664861710463,1.698408294059807
329,4.373380468566798,74.97680931630819,11.910458184329316,0.05870696671319105,1.7026289129893164
330,4.38667341831928,74.97680931630819,11.946523814533391,0.05884249217783796,1.706847129311258
331,4.399966368071762,74.97680931630819,11.981782218876738,0.05896306820314257,1.710762126921461
332,4.413259317824245,74.97680931630819,12.01373788186976,0.059059403323734036,1.7140772522356011
333,4.426552267576728,74.97680931630819,12.040082375216922,0.059124030112761065,1.7165303391881783
334,4.439845217329211,74.97680931630819,12.058927735512366,0.05915207942786637,1.7179215046718883
335,4.453138167081693,74.97680931630819,12.068997467244653,0.05914177389803044,1.718134474610681
336,4.466431116834176,74.97680931630819,12.069749040601714,0.05909458426278036,1.7171487624560777
337,4.479724066586659,74.97680931630819,12.061413848427794,0.059015037135249686,1.7150422930511964
338,4.493017016339142,74.97680931630819,12.044958617418425,0.058910206060928394,1.7119849737438593
339,4.506309966091624,74.97680931630819,12.021980272117254,0.0587889566934754,1.7082231519426814
340,4.519602915844107,74.97680931630819,11.994543172268461,0.05866104565041179,1.704055704054082
341,4.53289586559659,74.97680931630819,11.964971892465906,0.058536184267484144,1.699804586657646
342,4.546188815349072,74.97680931630819,11.93562398707744,0.05842317222845147,1.695783717874318
343,4.5594817651015545,74.97680931630819,11.908670871871369,0.058329185773840504,1.6922698726704648
344,4.572774714854037,74.97680931630819,11.885910567628901,0.05825927633760413,1.6894787009705554
345,4.58606766460652,74.97680931630819,11.868629572396943,0.05821610430259248,1.6875481633253884
346,4.599360614359003,74.97680931630819,11.85752395475526,0.05819990469805883,1.6865306688884807
347,4.612653564111485,74.97680931630819,11.852682354291904,0.0582086604953439,1.6863941344424185
348,4.625946513863968,74.97680931630819,11.853626808650066,0.05823844552172803,1.6870311854605364
349,4.639239463616451,74.97680931630819,11.859401811028796,0.0582838917368754,1.6882748980988342
350,4.652532413368934,74.97680931630819,11.868698159301443,0.05833873272364068,1.6899189109352433
351,4.665825363121416,74.97680931630819,11.879996191095554,0.05839637512618246,1.6917394615005936
352,4.679118312873899,74.97680931630819,11.891712925980627,0.05845045182675911,1.6935169366141083
353,4.692411262626382,74.97680931630819,11.902339299912535,0.05849531522427849,1.6950548451273353
354,4.705704212378864,74.97680931630819,11.910556748384984,0.05852643669794394,1.6961946705994242
355,4.7189971621313465,74.97680931630819,11.915326372302479,0.0585406893492014,1.6968257516223852
356,4.732290111883829,74.97680931630819,11.915948162338648,0.0585365045141719,1.6968900577404122
357,4.745583061636312,74.97680931630819,11.912091557025713,0.05851390633278329,1.6963823609997768
358,4.758876011388795,74.97680931630819,11.90380132037822,0.05847444023444935,1.695346744031924
359,4.772168961141277,74.97680931630819,11.891483908102504,0.058421018126278035,1.693870571625853
360,4.78546191089376,74.97680931630819,11.875879050313841,0.05835770403635844,1.6920769751607343
361,4.798754860646243,74.97680931630819,11.858019522447314,0.05828945930205526,1.690116625066846
362,4.812047810398726,74.97680931630819,11.83917970623196,0.058221858844915264,1.6881591896181904
363,4.825340760151208,74.97680931630819,11.820811472156825,0.05816078267546672,1.6863843942187913
364,4.838633709903691,74.97680931630819,11.80446527667378,0.05811207760709153,1.6849721534707605
365,4.851926659656174,74.97680931630819,11.791695637467548,0.058081177063178446,1.6840913161288256
366,4.865219609408656,74.97680931630819,11.783951345729548,0.05807267858850246,1.6838871503430661
367,4.8785125591611385,74.97680931630819,11.7824518263316,0.05808990700106585,1.6844682326640001
368,4.891805508913621,74.97680931630819,11.788056964491794,0.05813451038543776,1.6858937591033982
369,4.905098458666104,74.97680931630819,11.801147045407355,0.05820614058895927,1.6881626959253835
370,4.918391408418587,74.97680931630819,11.821532871677961,0.058302270557721546,1.6912065027948686
371,4.931684358171069,74.97680931630819,11.848412527168223,0.058418195713600345,1.6948871443786304
372,4.944977307923552,74.97680931630819,11.880386235002232,0.058547249764804715,1.6990017071707493
373,4.958270257676035,74.97680931630819,11.915534975337593,0.058681239144931056,1.703294209077885
374,4.971563207428518,74.97680931630819,11.951560753641575,0.05881107004269945,1.7074742386888497
375,4.984856157181,74.97680931630819,11.985977787067712,0.05892751320544533,1.7112410453287035
376,4.998149106933483,74.97680931630819,12.016336078846491,0.059022029282375564,1.7143107885906779
377,5.011442056685966,74.97680931630819,12.040453144377697,0.05908756493936433,1.716444002329945
378,5.024735006438448,74.97680931630819,12.05662700070734,0.0591192280417549,1.7174700253214532
379,5.0380279561909305,74.97680931630819,12.063803809607103,0.059114759572288234,1.7173052733555194
380,5.051320905943413,74.97680931630819,12.061677059509528,0.05907474873180998,1.7159629843616437
381,5.064613855695896,74.97680931630819,12.050706563650781,0.059002581237968456,1.713553350434303
382,5.077906805448379,74.97680931630819,12.032062868476359,0.05890413808838867,1.7102740279718769
383,5.091199755200861,74.97680931630819,12.007509734980454,0.058787269322624805,1.7063917418333552
384,5.104492704953344,74.97680931630819,11.979233266553555,0.05866108719348512,1.7022167113509217
385,5.117785654705827,74.97680931630819,11.94963001675454,0.05853515336532963,1.6980727830794966
386,5.13107860445831,74.97680931630819,11.921077719230434,0.05841864686985676,1.6942667408574
387,5.144371554210792,74.97680931630819,11.895716074754196,0.05831959258681683,1.691060194018693
388,5.157664503963275,74.97680931630819,11.87526073026297,0.05824421599706447,1.688646961462133
389,5.170957453715758,74.97680931630819,11.860867278526428,0.05819647273451371,1.6871380797554167
390,5.18425040346824,74.97680931630819,11.853055200272497,0.058177783033554094,1.6865555785834074
391,5.1975433532207225,74.97680931630819,11.851694627387616,0.05818698367472818,1.6868351356462874
392,5.210836302973205,74.97680931630819,11.85605249234955,0.05822049462641225,1.6878367808133505
393,5.224129252725688,74.97680931630819,11.864889593566307,0.058272684161078295,1.6893620708990418
394,5.237422202478171,74.97680931630819,11.876596635068083,0.058336402261922694,1.6911756645389637
395,5.250715152230653,74.97680931630819,11.88935540565986,0.05840363774469944,1.6930290111848463
396,5.264008101983136,74.97680931630819,11.90131077045927,0.05846624597534834,1.6946839115018235
397,5.277301051735619,74.97680931630819,11.91073976816984,0.0585166916329009,1.6959339614793376
398,5.290594001488102,74.97680931630819,11.916205508700628,0.058548747665274244,1.6966222927404766
399,5.303886951240584,74.97680931630819,11.916685425685873,0.05855809090417387,1.6966544914266033
400,5.317179900993067,74.97680931630819,11.911665491145888,0.05854274285369601,1.6960060458586765
401,5.33047285074555,74.97680931630819,11.901194079635673,0.05850331367543899,1.694724084140014
402,5.343765800498032,74.97680931630819,11.885891248044112,0.05844301607423702,1.6929234903555215
403,5.3570587502505145,74.97680931630819,11.866911386119433,0.05836743323113367,1.6907777396384758
404,5.370351700002997,74.97680931630819,11.845859718372322,0.058284050637763166,1.688505003457366
405,5.38364464975548,74.97680931630819,11.824666212347132,0.05820158655663344,1.6863503064854883
406,5.396937599507963,74.97680931630819,11.805424364288664,0.058129178667895576,1.6845647974281814
407,5.410230549260445,74.97680931630819,11.79020677538186,0.05807550497044038,1.6833834352583168
408,5.423523499012928,74.97680931630819,11.780871945800794,0.05804792260319672,1.6830025743774186
409,5.436816448765411,74.97680931630819,11.778876915671207,0.05805169771935694,1.683559271260671
410,5.450109398517894,74.97680931630819,11.785112986863274,0.05808939911152527,1.685114527383327
411,5.463402348270376,74.97680931630819,11.799785885339794,0.05816053638572402,1.6876426491267793
412,5.476695298022859,74.97680931630819,11.822359455372188,0.05826150290743652,1.6910283786494302
413,5.489988247775342,74.97680931630819,11.851573218166653,0.058385836647581964,1.6950727128246983
414,5.503281197527824,74.97680931630819,11.885534984344023,0.05852477099872264,1.699507454350289
415,5.5165741472803065,74.97680931630819,11.921881493603328,0.05866801894006962,1.704017536141058
416,5.529867097032789,74.97680931630819,11.957991985430597,0.058804711334258415,1.7082691612481782
417,5.543160046785272,74.97680931630819,11.99123275722438,0.05892439527160601,1.7119409605356737
418,5.556452996537755,74.97680931630819,12.019206386791659,0.0590179932347781,1.714754819510942
419,5.569745946290237,74.97680931630819,12.039978083594427,0.05907862781467674,1.716502795270057
420,5.58303889604272,74.97680931630819,12.052253799328604,0.05910222939376729,1.717066718820968
421,5.596331845795203,74.97680931630819,12.055490100117439,0.05908786869900672,1.716428221435178
422,5.609624795547686,74.97680931630819,12.049924302378699,0.05903779004152429,1.7146688578432732
423,5.622917745300168,74.97680931630819,12.036523838982951,0.05895715015106353,1.7119609650693661
424,5.636210695052651,74.97680931630819,12.016863273920801,0.05885348870917188,1.7085497738551159
425,5.649503644805134,74.97680931630819,11.992944517095971,0.05873598205056486,1.7047281104251713
426,5.662796594557616,74.97680931630819,11.966981699100568,0.05861455795428227,1.700806684617003
427,5.6760895443100985,74.97680931630819,11.94117611567573,0.058498963159102725,1.697083728866006
428,5.689382494062581,74.97680931630819,11.917506717884976,0.05839787520481121,1.693817503287119
429,5.702675443815064,74.97680931630819,11.897558002310774,0.058318141864876834,1.6912045436927035
430,5.715968393567547,74.97680931630819,11.882401194654907,0.058264217071611134,1.6893656514107847
431,5.7292613433200295,74.97680931630819,11.872537379766952,0.058237843222123886,1.6883405852346607
432,5.742554293072512,74.97680931630819,11.867903710470328,0.05823800734455638,1.6880913644668751
433,5.755847242824995,74.97680931630819,11.867936952663932,0.058261173602795036,1.688513153520956
434,5.769140192577478,74.97680931630819,11.871683068737873,0.05830176806062392,1.6894509699614673
435,5.78243314232996,74.97680931630819,11.877937707135493,0.05835286529669528,1.6907199954940537
436,5.795726092082443,74.97680931630819,11.885400509304674,0.05840700304845439,1.6921270905894834
437,5.809019041834926,74.97680931630819,11.892826036166419,0.05845703420423203,1.6934912021738813
438,5.822311991587408,74.97680931630819,11.899155690014354,0.05849691882955607,1.6946606690897874
439,5.8356049413398905,74.97680931630819,11.903617996609386,0.05852236425264527,1.6955259141820134
440,5.848897891092373,74.97680931630819,11.905788658434998,0.0585312382884947,1.6960265987534904
441,5.862190840844856,74.97680931630819,11.905606457744264,0.058523708102786114,1.696152937550691
442,5.875483790597339,74.97680931630819,11.903345889639017,0.05850209167278957,1.6959414685138432
443,5.8887767403498215,74.97680931630819,11.899551850101597,0.05847044503327296,1.6954660899683254
444,5.902069690102304,74.97680931630819,11.894945360743007,0.05843394125142621,1.6948255813969286
445,5.915362639854787,74.97680931630819,11.890311871255737,0.058398122148295165,1.6941290915830263
446,5.92865558960727,74.97680931630819,11.88638499242673,0.058368118250036544,1.6934812034376343
447,5.941948539359752,74.97680931630819,11.88373858971482,0.058347935310265414,1.6929681855899046
448,5.955241489112235,74.97680931630819,11.882699147473003,0.058339897267618665,1.6926469247369902
449,5.968534438864718,74.97680931630819,11.883288395367716,0.058344315176074205,1.6925377177553247
450,5.9818273886172,74.97680931630819,11.885203557357991,0.058359422383308525,1.6926216225382884
451,5.9951203383696825,74.97680931630819,11.887839381249881,0.0583815871383405,1.6928427139864122
452,6.008413288122165,74.97680931630819,11.890352386377517,0.058405787413505446,1.6931153641378442
453,6.021706237874648,74.97680931630819,11.891763437849331,0.05842630297683597,1.6933361885486042
454,6.034999187627131,74.97680931630819,11.891089977475273,0.058437548826602126,1.6933995866717906
455,6.0482921373796135,74.97680931630819,11.887494735903344,0.05843495072717058,1.6932151783792575
456,6.061585087132096,74.97680931630819,11.880434038764657,0.05841575078227935,1.6927249937552036
457,6.074878036884579,74.97680931630819,11.869786150313512,0.05837962925722028,1.6919180069842656
458,6.088170986637062,74.97680931630819,11.855939550213357,0.058329040538562464,1.6908396142698228
459,6.101463936389544,74.97680931630819,11.839823780554655,0.05826918791484336,1.689594031021257
460,6.114756886142027,74.97680931630819,11.822871196132093,0.058207603304506556,1.6883383490348007
461,6.12804983589451,74.97680931630819,11.806905497808712,0.05815335092270049,1.6872680951411403
462,6.141342785646992,74.97680931630819,11.793962345807861,0.05811593178940336,1.6865954273974588
463,6.1546357353994745,74.97680931630819,11.786059065182927,0.0581040198732121,1.6865223832462284
464,6.167928685151957,74.97680931630819,11.784941792145817,0.05812420018240745,1.6872126155459017
465,6.18122163490444,74.97680931630819,11.79184468267048,0.058179894813304725,1.688765597926193
466,6.194514584656923,74.97680931630819,11.807295724043447,0.05827064881205983,1.6911972057297546
467,6.2078075344094055,74.97680931630819,11.830998659422523,0.058391903127418265,1.6944298514908978
468,6.221100484161888,74.97680931630819,11.861811093451083,0.05853531267730419,1.698294070357558
469,6.234393433914371,74.97680931630819,11.897825722852975,0.05868958492608476,1.7025418180101377
470,6.247686383666854,74.97680931630819,11.936546942327304,0.058841732965138366,1.706870036390941
471,6.260979333419336,74.97680931630819,11.97514134652465,0.05897857150584785,1.710951547098104
472,6.274272283171819,74.97680931630819,12.01073015045763,0.0590882460620315,1.7144692829507049
473,6.287565232924302,74.97680931630819,12.040685952075014,0.059161579960602714,1.7171494157707743
474,6.300858182676784,74.97680931630819,12.062896347410582,0.05919305147308739,1.7187890547099007
475,6.3141511324292665,74.97680931630819,12.075962500111615,0.059181279826273823,1.719274859983908
476,6.327444082181749,74.97680931630819,12.079310753717094,0.0591289915948457,1.7185906523010086
477,6.340737031934232,74.97680931630819,12.073208024904794,0.05904251273488771,1.7168145782586581
478,6.354029981686715,74.97680931630819,12.058685228517433,0.05893087406898306,1.7141075413253377
479,6.3673229314391975,74.97680931630819,12.037385197287524,0.05880466208199278,1.7106942675965122
480,6.38061588119168,74.97680931630819,12.011359854992238,0.058674786414160386,1.7068388860267136
481,6.393908830944163,74.97680931630819,11.982844763876006,0.058551336524723684,1.702818232381339
482,6.407201780696646,74.97680931630819,11.954038603208561,0.058442664498943114,1.6988963926825351
483,6.420494730449128,74.97680931630819,11.926911299280729,0.05835477882144066,1.6953032622482764
484,6.433787680201611,74.97680931630819,11.903057781863955,0.05829107699215794,1.6922189230110876
485,6.447080629954094,74.97680931630819,11.88360618596483,0.058252392946726426,1.6897646598582718
486,6.460373579706576,74.97680931630819,11.869181557149075,0.05823729703774629,1.6880005368617101
487,6.4736665294590585,74.97680931630819,11.8599198982491,0.05824256632348596,1.6869287518713711
488,6.486959479211541,74.97680931630819,11.855523262885443,0.058263741004729704,1.6865015329856552
489,6.500252428964024,74.97680931630819,11.855344588339404,0.05829569494210474,1.6866321305395067
490,6.513545378716507,74.97680931630819,11.858490672604136,0.05833316780573697,1.687207448925084
491,6.5268383284689895,74.97680931630819,11.863932532376001,0.05837122679130175,1.6881009906926678
492,6.540131278221472,74.97680931630819,11.870613731212137,0.058405641802383106,1.689184990558925
493,6.553424227973955,74.97680931630819,11.877548716056369,0.05843316712475396,1.6903408556565216
494,6.566717177726438,74.97680931630819,11.88390457319265,0.058451725434385024,1.6914672780034277
495,6.58001012747892,74.97680931630819,11.889060967533794,0.05846048925767604,1.6924856391723087
496,6.593303077231403,74.97680931630819,11.892644548237007,0.05845985444504302,1.6933425848698465
497,6.606596026983886,74.97680931630819,11.89453597405401,0.05845130303931045,1.6940099036912415
498,6.619888976736368,74.97680931630819,11.894850001120709,0.05843716072673957,1.6944820845015331
499,6.6331819264888505,74.97680931630819,11.893891669293643,0.05842026635156803,1.6947721257008261
500,6.646474876241333,74.97680931630819,11.89209422636203,0.05840358535195075,1.6949062989089005
501,6.659767825993816,74.97680931630819,11.889946633373851,0.05838981183537578,1.6949186077332103
502,6.673060775746299,74.97680931630819,11.887919876190717,0.05838101185931324,1.694845623988297
503,6.6863537254987815,74.97680931630819,11.886401547020771,0.0583783603099914,1.6947222413269651
504,6.699646675251264,74.97680931630819,11.885647109232847,0.058382012134978775,1.694578679992646
505,6.712939625003747,74.97680931630819,11.885754073793642,0.058391126866991765,1.69443884558528
506,6.72623257475623,74.97680931630819,11.88666223961213,0.05840404259405949,1.694319950714371
507,6.7395255245087125,74.97680931630819,11.88817893301223,0.05841857578989208,1.6942331757805849
508,6.752818474261195,74.97680931630819,11.890023507347538,0.05843240275389398,1.694185050888792
509,6.766111424013678,74.97680931630819,11.891882797425067,0.05844346088576607,1.6941791848647707
510,6.77940437376616,74.97680931630819,11.893469168082927,0.05845030289771663,1.6942179692885109
511,6.7926973235186425,74.97680931630819,11.894572815960792,0.05845234555954885,1.6943039388108925
512,6.805990273271125,74.97680931630819,11.895100072460785,0.058449972952654486,1.6944405562357794
513,6.819283223023608,74.97680931630819,11.89509142721431,0.05844447892347265,1.6946323019872551
514,6.832576172776091,74.97680931630819,11.894716556577832,0.05843786013931025,1.6948840716165083
515,6.8458691225285735,74.97680931630819,11.894247519103716,0.05843249508700227,1.6952000063413548
516,6.859162072281056,74.97680931630819,11.894014795086324,0.058430761550069155,1.6955819825599996
517,6.872455022033539,74.97680931630819,11.8943535050986,0.058434653060102086,1.69602805030615
518,6.885747971786022,74.97680931630819,11.895548520292396,0.058445452843254524,1.6965311264265668
519,6.8990409215385045,74.97680931630819,11.89778708152713,0.05846351286034538,1.6970782127702853
520,6.912333871290987,74.97680931630819,11.901126034703623,0.05848816796435116,1.6976503289199703
521,6.92562682104347,74.97680931630819,11.905478174366156,0.0585177940703936,1.6982232369977315
522,6.938919770795952,74.97680931630819,11.910618965005646,0.058549997931182526,1.6987689122387162
523,6.9522127205484345,74.97680931630819,11.916211672985996,0.0585819078191842,1.699257598680428
524,6.965505670300917,74.97680931630819,11.921846262879406,0.05861052163427216,1.6996602040748001
525,6.9787986200534,74.97680931630819,11.927085729422286,0.05863306322390844,1.6999507457672185
526,6.992091569805883,74.97680931630819,11.931513052146851,0.058647298760521833,1.7001085654242614
527,7.0053845195583655,74.97680931630819,11.934772651329295,0.058651772374618376,1.7001200755042059
528,7.018677469310848,74.97680931630819,11.936601994765224,0.05864593748648572,1.6999798737500222
529,7.031970419063331,74.97680931630819,11.936851392696756,0.05863018399769151,1.6996911911505292
530,7.045263368815814,74.97680931630819,11.935492049906063,0.05860577380140251,1.6992657941528053
531,7.0585563185682965,74.97680931630819,11.93261371057305,0.0585746962407403,1.6987234931170732
532,7.071849268320779,74.97680931630819,11.92841412198718,0.05853946054778926,1.6980913118198466
533,7.085142218073262,74.97680931630819,11.92318299204535,0.05850285377920945,1.697402330158793
534,7.098435167825744,74.97680931630819,11.917282740325241,0.058467695214978924,1.6966942389058446
535,7.1117281175782265,74.97680931630819,11.911127357750601,0.05843661161361669,1.69600762450506
536,7.125021067330709,74.97680931630819,11.905159584555612,0.05841184906446033,1.695383943651554
537,7.138314017083192,74.97680931630819,11.899825718879013,0.05839512852798135,1.694863116225757
538,7.151606966835675,74.97680931630819,11.895546921467012,0.05838754452228649,1.6944806774502585
539,7.1648999165881575,74.97680931630819,11.892686055955599,0.05838950106342838,1.6942644878577153
540,7.17819286634064,74.97680931630819,11.891509957062999,0.05840067662993113,1.6942311037713875
541,7.191485816093123,74.97680931630819,11.892148490521043,0.058420010835946286,1.6943820535911045
542,7.204778765845606,74.97680931630819,11.894553676824826,0.05844570942832243,1.6947004399145758
543,7.218071715598088,74.97680931630819,11.89846419714503,0.05847527045267355,1.6951484629969178
544,7.231364665350571,74.97680931630819,11.903382383080189,0.058505541569445985,1.6956665140898777
545,7.244657615103054,74.97680931630819,11.908571841218928,0.058532824952525125,1.6961743955296247
546,7.257950564855536,74.97680931630819,11.913083694498464,0.05855305052741792,1.696575202680978
547,7.271243514608018,74.97680931630819,11.915817623937093,0.0585620380534505,1.696762410000594
548,7.284536464360501,74.97680931630819,11.915620239752831,0.058555860387658934,1.6966303770927933
549,7.297829414112984,74.97680931630819,11.911417878261398,0.058531303099899304,1.696087831347935
550,7.311122363865467,74.97680931630819,11.902374193948116,0.05848639250549728,1.6950731903330452
551,7.324415313617949,74.97680931630819,11.888055826351366,0.058420938230227315,1.6935699624825309
552,7.337708263370432,74.97680931630819,11.868583294945253,0.05833700876125719,1.6916199435564088
553,7.351001213122915,74.97680931630819,11.84474065225424,0.05823923691626696,1.6893316488626613
554,7.364294162875398,74.97680931630819,11.818017776261792,0.058134850716791274,1.6868815354060278
555,7.37758711262788,74.97680931630819,11.790564495990735,0.0580333498725862,1.6845061655009261
556,7.390880062380363,74.97680931630819,11.765046354093506,0.05794579519360972,1.682484551476585
557,7.404173012132846,74.97680931630819,11.744406615218221,0.05788373855403076,1.6811113960098474
558,7.417465961885328,74.97680931630819,11.731554206382766,0.05785788626789061,1.6806635876615659
559,7.43075891163781,74.97680931630819,11.729009993122215,0.05787665589828152,1.6813638253423249
560,7.444051861390293,74.97680931630819,11.738556026972393,0.05794483966578043,1.683346301477353
561,7.457344811142776,74.97680931630819,11.760941219139555,0.05806259880674715,1.686629694299929
562,7.470637760895259,74.97680931630819,11.795693766157623,0.05822497634043125,1.6911021518760345
563,7.483930710647741,74.97680931630819,11.84107544407678,0.05842204493972475,1.6965215150433357
564,7.497223660400224,74.97680931630819,11.894192440282053,0.05863971354632117,1.7025319268142785
565,7.510516610152707,74.97680931630819,11.951255149471466,0.05886111362018656,1.7086955601088343
566,7.52380955990519,74.97680931630819,12.007957354371094,0.059068392037947046,1.7145358838228857
567,7.537102509657672,74.97680931630819,12.059927109508909,0.059244669980088566,1.7195870792505148
568,7.550395459410155,74.97680931630819,12.103190549624351,0.05937589759242994,1.72344322069595
569,7.563688409162638,74.97680931630819,12.134587438467953,0.05945234566444275,1.7258007664777686
570,7.57698135891512,74.97680931630819,12.15208248712133,0.05946952666848429,1.7264887817444563
571,7.590274308667602,74.97680931630819,12.154928837514245,0.05942843726547719,1.7254832966878675
572,7.603567258420085,74.97680931630819,12.143668702770134,0.05933514472886432,1.722904944262361
573,7.616860208172568,74.97680931630819,12.119995680172877,0.059199830908166884,1.7190012258918872
574,7.630153157925051,74.97680931630819,12.086517742417467,0.05903544369607217,1.7141160769558104
575,7.643446107677533,74.97680931630819,12.046447261242085,0.058856144780577276,1.7086507910037487
576,7.656739057430016,74.97680931630819,12.003246610845988,0.05867577843250746,1.7030216296164766
577,7.670032007182499,74.97680931630819,11.96027528757909,0.05850656835359927,1.69761959748126
578,7.683324956934982,74.97680931630819,11.920485517336171,0.05835818420153741,1.6927769335710203
579,7.696617906687464,74.97680931630819,11.886198162053605,0.058237239773733754,1.68874341314165
580,7.709910856439947,74.97680931630819,11.858973835415977,0.058147208980286955,1.6856738908509217
581,7.72320380619243,74.97680931630819,11.839579203911406,0.05808868604856201,1.6836269073847618
582,7.736496755944912,74.97680931630819,11.82803649082652,0.058059881773797214,1.6825728736541798
583,7.749789705697395,74.97680931630819,11.823736493007477,0.058057239858281054,1.6824094798650084
584,7.763082655449877,74.97680931630819,11.825592098543003,0.05807607199789534,1.6829815863111806
585,7.77637560520236,74.97680931630819,11.832209720720437,0.058111138663739355,1.6841028800715525
586,7.789668554954843,74.97680931630819,11.842059073530582,0.058157134550571296,1.6855769114699606
587,7.802961504707325,74.97680931630819,11.853626028157494,0.05820906507723983,1.6872156251528572
588,7.816254454459808,74.97680931630819,11.865537849868588,0.05826251822849103,1.6888540607825204
589,7.829547404212291,74.97680931630819,11.87665427799857,0.0583138434973661,1.690360443732373
590,7.842840353964774,74.97680931630819,11.88612147527137,0.05836024909563064,1.6916413835390802
591,7.856133303717256,74.97680931630819,11.893388954349293,0.058399824193108914,1.6926423434677744
592,7.869426253469739,74.97680931630819,11.898192430817328,0.05843148922637908,1.6933439459284338
593,7.882719203222222,74.97680931630819,11.900508319296366,0.05845487766265733,1.693755038306632
594,7.896012152974704,74.97680931630819,11.900488238454132,0.058470158409685564,1.6939037464133775
595,7.909305102727187,74.97680931630819,11.898384129004164,0.05847781841516699,1.6938279690322806
596,7.922598052479669,74.97680931630819,11.89447594174414,0.058478437111326616,1.6935668607217789
597,7.935891002232152,74.97680931630819,11.889013804963723,0.05847249394645797,1.6931546254979615
598,7.949183951984635,74.97680931630819,11.882184750908609,0.058460251648329895,1.6926174037291506
599,7.962476901737117,74.97680931630819,11.87411037985179,0.05844174824982746,1.6919735909849667
600,7.9757698514896,74.97680931630819,11.864876579251558,0.058416913398008974,1.6912376210756128
601,7.989062801242083,74.97680931630819,11.854590306932568,0.05838580117243461,1.6904266228005507
602,8.002355750994566,74.97680931630819,11.843452626285076,0.058348902373589404,1.6895685258148265
603,8.015648700747048,74.97680931630819,11.831832769250447,0.05830747081951512,1.6887096693642774
604,8.028941650499531,74.97680931630819,11.820325187182076,0.05826378165379955,1.6879198875942922
605,8.042234600252014,74.97680931630819,11.809771251358805,0.05822124079577614,1.6872933241457801
606,8.055527550004497,74.97680931630819,11.801232245832706,0.058184284259823124,1.6869438532595982
607,8.06882049975698,74.97680931630819,11.795909984791892,0.0581580418770678,1.686994893914133
608,8.082113449509462,74.97680931630819,11.795021134860393,0.05814778571035946,1.6875644545047355
609,8.095406399261945,74.97680931630819,11.799639382232257,0.058158229773195604,1.6887472517774238
610,8.108699349014428,74.97680931630819,11.81052666992641,0.058192784378197124,1.6905965131108451
611,8.12199229876691,74.97680931630819,11.827979368828055,0.05825288712301621,1.6931084330220234
612,8.135285248519391,74.97680931630819,11.851715476872206,0.058337528635285664,1.696212119757605
613,8.148578198271874,74.97680931630819,11.880824481841561,0.05844306517791887,1.6997672343009342
614,8.161871148024357,74.97680931630819,11.913793139754514,0.058563367180109224,1.7035704834608631
615,8.17516409777684,74.97680931630819,11.948609512445795,0.058690301018123225,1.7073708467382194
616,8.188457047529322,74.97680931630819,11.982936011729677,0.05881449032573194,1.710892101271052
617,8.201749997281805,74.97680931630819,12.014331814309555,0.05892626116504737,1.7138600676526088
618,8.215042947034288,74.97680931630819,12.04049742681354,0.0590166486823692,1.7160312098118558
619,8.22833589678677,74.97680931630819,12.05951049236333,0.059078333732651915,1.7172188574184457
620,8.241628846539253,74.97680931630819,12.070022039147057,0.05910638733392911,1.7173134553958036
621,8.254921796291736,74.97680931630819,12.071386404885398,0.05909873493542876,1.7162942763722955
622,8.268214746044219,74.97680931630819,12.063710205800522,0.05905630522653007,1.7142317755928511
623,8.281507695796702,74.97680931630819,12.0478237494428,0.058982869193176295,1.7112808571879272
624,8.294800645549184,74.97680931630819,12.025186529979491,0.05888459773764383,1.707665594574455
625,8.308093595301667,74.97680931630819,11.99773573921806,0.05876939604474775,1.7036568416736475
626,8.32138654505415,74.97680931630819,11.967690932065477,0.05864610582694985,1.6995455674164777
627,8.334679494806633,74.97680931630819,11.937338789233753,0.058523676937348494,1.695615357054532
628,8.347972444559115,74.97680931630819,11.908825143444695,0.058410397889867224,1.6921172711162342
629,8.361265394311598,74.97680931630819,11.883976732969998,0.05831325361673838,1.689249635698544
630,8.37455834406408,74.97680931630819,11.864168510608234,0.0582374545627836,1.6871445103679747
631,8.387851293816563,74.97680931630819,11.850245267939927,0.058186157985646594,1.685861640622984
632,8.401144243569046,74.97680931630819,11.842499353939498,0.05816038308966475,1.6853897870636452
633,8.414437193321529,74.97680931630819,11.840700191010166,0.05815910700971003,1.6856545373552885
634,8.427730143074012,74.97680931630819,11.844166587775359,0.05817951773674577,1.686531119268882
635,8.441023092826494,74.97680931630819,11.851869738182055,0.058217391356564584,1.687860375676536
636,8.454316042578975,74.97680931630819,11.8625532918846,0.05826755374235517,1.6894659388203044
637,8.467608992331458,74.97680931630819,11.874856883872157,0.05832438128952102,1.6911707358264962
638,8.48090194208394,74.97680931630819,11.887430879065217,0.05838229106562102,1.6928112429353372
639,8.494194891836424,74.97680931630819,11.899032646040038,0.058436170079086275,1.6942483457255166
640,8.507487841588906,74.97680931630819,11.90859818164061,0.05848170318189308,1.6953742094185182
641,8.520780791341389,74.97680931630819,11.915287000126224,0.058515579199174335,1.6961151559897394
642,8.534073741093872,74.97680931630819,11.918502354367568,0.05853557471687941,1.6964311074955325
643,8.547366690846355,74.97680931630819,11.917892417817795,0.058540531177338845,1.696312603493642
644,8.560659640598837,74.97680931630819,11.913340337819513,0.05853025723654397,1.6957766532863774
645,8.57395259035132,74.97680931630819,11.904951515763287,0.05850540060464845,1.694862692033346
646,8.587245540103803,74.97680931630819,11.893044829356613,0.05846733426565191,1.6936296499066243
647,8.600538489856286,74.97680931630819,11.878150989234241,0.058418089712976864,1.6921545609294981
648,8.613831439608768,74.97680931630819,11.861016512668646,0.05836034769661373,1.6905323489359068
649,8.627124389361251,74.97680931630819,11.842607019241871,0.05829746998966034,1.6888758424258716
650,8.640417339113734,74.97680931630819,11.8241000017947,0.05823353089110024,1.6873148413683865
651,8.653710288866217,74.97680931630819,11.806856240008782,0.058173291983503045,1.6859929658579151
652,8.6670032386187,74.97680931630819,11.79236120752463,0.058122063148644904,1.6850611272152334
653,8.680296188371182,74.97680931630819,11.78213162453172,0.05808540922337529,1.6846670284361207
654,8.693589138123665,74.97680931630819,11.77758722681455,0.05806869416982652,1.6849410301052685
655,8.706882087876147,74.97680931630819,11.779896807429985,0.05807649635203688,1.6859797286679914
656,8.72017503762863,74.97680931630819,11.78981868617635,0.0581119675774935,1.6878294552389914
657,8.733467987381113,74.97680931630819,11.807561236032022,0.058176235213054164,1.6904724156382742
658,8.746760937133596,74.97680931630819,11.832687510514207,0.05826795536611135,1.6938182118095413
659,8.760053886886078,74.97680931630819,11.864083254016684,0.05838311295005797,1.6977029681367892
660,8.77334683663856,74.97680931630819,11.900000312268395,0.05851513267800959,1.7018973011205085
661,8.786639786391042,74.97680931630819,11.938177344652665,0.058655319548059866,1.706123080856176
662,8.799932736143525,74.97680931630819,11.976028426737432,0.05879359659165634,1.7100775612834183
663,8.813225685896008,74.97680931630819,12.010879734708478,0.058919460377389696,1.7134622341875225
664,8.82651863564849,74.97680931630819,12.040226740411788,0.05902303870914339,1.7160128944327337
665,8.839811585400973,74.97680931630819,12.061980482455851,0.059096115851025234,1.717526958508325
666,8.853104535153456,74.97680931630819,12.074671675919245,0.059132990802328075,1.717884161649044
667,8.866397484905939,74.97680931630819,12.077585810438888,0.05913105425392395,1.717058017059163
668,8.879690434658421,74.97680931630819,12.070814017678657,0.05909101379014315,1.7151176190975264
669,8.892983384410904,74.97680931630819,12.055221283789276,0.05901675711808252,1.7122204252107613
670,8.906276334163387,74.97680931630819,12.032342890496771,0.05891489121295566,1.7085964004145304
671,8.91956928391587,74.97680931630819,12.004220404586249,0.05879402271555414,1.7045247268457102
672,8.932862233668352,74.97680931630819,11.973193552940465,0.05866387109044588,1.7003060642529773
673,8.946155183420835,74.97680931630819,11.941673449973472,0.058534327618519746,1.6962341073969265
674,8.959448133173318,74.97680931630819,11.91192486409628,0.05841457094828331,1.6925698108044707
675,8.9727410829258,74.97680931630819,11.885880416595336,0.05831232680675523,1.689520906230532
676,8.986034032678283,74.97680931630819,11.865002743985285,0.05823332914833289,1.6872284140475968
677,8.999326982430766,74.97680931630819,11.850203237144642,0.05818100950453645,1.6857608349667066
678,9.012619932183249,74.97680931630819,11.841818727905205,0.058156414594988805,1.6851157527653586
679,9.025912881935731,74.97680931630819,11.83964130501189,0.05815833168565121,1.6852277917865048
680,9.039205831688214,74.97680931630819,11.842991797933273,0.0581835868469111,1.6859813239164623
681,9.052498781440695,74.97680931630819,11.850824550749751,0.05822747214515287,1.6872260310994536
682,9.06579173119318,74.97680931630819,11.86184984532772,0.05828425272008526,1.6887933877965098
683,9.079084680945662,74.97680931630819,11.874660518590028,0.05834770304328588,1.690512297345723
684,9.092377630698143,74.97680931630819,11.887850718119347,0.05841162352207098,1.692222451531658
685,9.105670580450626,74.97680931630819,11.900117138082111,0.058470294489736514,1.693784436290063
686,9.118963530203107,74.97680931630819,11.910336262802122,0.058518834793030966,1.6950861297375472
687,9.132256479955592,74.97680931630819,11.917614854122375,0.05855344619226586,1.6960454784762768
688,9.145549429708074,74.97680931630819,11.921314772068465,0.05857154113562352,1.6966102331734683
689,9.158842379460555,74.97680931630819,11.92105670269823,0.05857176769122985,1.6967556064754727
690,9.17213532921304,74.97680931630819,11.916709885585758,0.05855395848870898,1.6964810191714186
691,9.185428278965524,74.97680931630819,11.908375930442366,0.05851903750964255,1.695807074543601
692,9.198721228718004,74.97680931630819,11.896373940337384,0.05846891743570768,1.694773637935438
693,9.212014178470488,74.97680931630819,11.88123143648332,0.058406410597149266,1.6934394290384311
694,9.22530712822297,74.97680931630819,11.863681477826688,0.0583351600345292,1.6918828859277693
695,9.238600077975454,74.97680931630819,11.844661799463653,0.05825957760484117,1.6902033724593124
696,9.251893027727936,74.97680931630819,11.825307926703573,0.058184758729946,1.6885213886423003
697,9.26518597748042,74.97680931630819,11.80693039769589,0.05811633435147195,1.6869764317030902
698,9.278478927232902,74.97680931630819,11.790967197927865,0.05806022402094925,1.6857213938292541
699,9.291771876985385,74.97680931630819,11.778904994953729,0.058022267509258804,1.6849128648772844
700,9.305064826737867,74.97680931630819,11.772166583945278,0.05800773440375989,1.6846975132952795
701,9.31835777649035,74.97680931630819,11.771970338642177,0.05802074699268342,1.685195692266576
702,9.331650726242833,74.97680931630819,11.779178636216757,0.05806369266935734,1.6864842941524865
703,9.344943675995316,74.97680931630819,11.794158485470826,0.058136724607894194,1.6885814477025847
704,9.358236625747798,74.97680931630819,11.81667734205659,0.05823744669962833,1.6914357750632585
705,9.37152957550028,74.97680931630819,11.845853920616507,0.05836085914927617,1.6949225377517163
706,9.384822525252764,74.97680931630819,11.880178049811942,0.058499607668329415,1.6988481461402192
707,9.398115475005246,74.97680931630819,11.91760462360491,0.05864453435591591,1.7029633244868414
708,9.411408424757727,74.97680931630819,11.955715943118184,0.05878548058072606,1.7069839174890695
709,9.42470137451021,74.97680931630819,11.991936269624931,0.05891225081527587,1.710617120989515
710,9.437994324262691,74.97680931630819,12.023774039062825,0.05901561850886443,1.7135900249273697
711,9.451287274015176,74.97680931630819,12.049062290475513,0.05908824514655854,1.7156769103184422
712,9.464580223767658,74.97680931630819,12.066167205348982,0.05912539109328817,1.716721821128125
713,9.47787317352014,74.97680931630819,12.07413756068042,0.05912532112230164,1.7166536131757522
714,9.491166123272624,74.97680931630819,12.072774166904392,0.059089360856750005,1.7154918482608994
715,9.504459073025108,74.97680931630819,12.062613375186153,0.05902163324844382,1.7133431209116194
716,9.51775202277759,74.97680931630819,12.044839693949076,0.05892854230759425,1.7103884814688952
717,9.531044972530072,74.97680931630819,12.021149084506872,0.058818068191744996,1.7068637067905865
718,9.544337922282557,74.97680931630819,11.993575719554594,0.05869895056469671,1.7030351074159613
719,9.557630872035038,74.97680931630819,11.964295300196603,0.058579864567210475,1.6991739802655121
720,9.57092382178752,74.97680931630819,11.935427824532836,0.05846869069763944,1.6955326834817461
721,9.584216771540005,74.97680931630819,11.908863878802832,0.05837194855727322,1.692324782423186
722,9.597509721292486,74.97680931630819,11.886131016256993,0.058294428580925935,1.6897109259167284
723,9.610802671044969,74.97680931630819,11.868308603359354,0.058239024036712925,1.6877912071412646
724,9.624095620797451,74.97680931630819,11.855992412196796,0.058206741403208584,1.6866038984293483
725,9.637388570549934,74.97680931630819,11.849304468293505,0.05819685321557133,1.6861297445553578
726,9.650681520302417,74.97680931630819,11.847939742279332,0.05820715296243934,1.6863005253099455
727,9.6639744700549,74.97680931630819,11.851239230757015,0.058234273915973106,1.6870103720967384
728,9.677267419807382,74.97680931630819,11.858278559261295,0.058274039354444175,1.6881283186270062
729,9.690560369559863,74.97680931630819,11.867962035590306,0.05832181749924308,1.6895107315158686
730,9.703853319312348,74.97680931630819,11.879113654190816,0.05837285907869202,1.6910125455828988
731,9.71714626906483,74.97680931630819,11.890558566625266,0.05842259881959489,1.6924965702504955
732,9.730439218817311,74.97680931630819,11.901190779200181,0.05846690556733675,1.6938404972318286
733,9.743732168569794,74.97680931630819,11.91002518649284,0.058502270614234665,1.694941592431488
734,9.757025118322275,74.97680931630819,11.916234366572906,0.05852593098235618,1.6957193647577438
735,9.77031806807476,74.97680931630819,11.919172643328995,0.058535933417268836,1.6961167375756327
736,9.783611017827242,74.97680931630819,11.91839146028614,0.05853115393090279,1.6961003711289826
737,9.796903967579723,74.97680931630819,11.913650757039635,0.058511294238929805,1.695660770672999
738,9.810196917332208,74.97680931630819,11.90493050160429,0.05847687769025141,1.694812656526767
739,9.82348986708469,74.97680931630819,11.892444708742113,0.058429261550203095,1.6935957913892634
740,9.836782816837172,74.97680931630819,11.876657366777888,0.05837066982543591,1.6920761000402875
741,9.850075766589656,74.97680931630819,11.858296245711129,0.058304233502702925,1.6903464990411177
742,9.86336871634214,74.97680931630819,11.838357409491366,0.05823400743387242,1.6885264774881485
743,9.876661666094622,74.97680931630819,11.818091359745127,0.058164920968492566,1.6867593661067328
744,9.889954615847104,74.97680931630819,11.798962122209527,0.058102617861731924,1.6852064634930621
745,9.903247565599589,74.97680931630819,11.782573602731393,0.05805315029513467,1.6840375847628624
746,9.91654051535207,74.97680931630819,11.770561400936025,0.05802251259305667,1.6834181211846309
747,9.929833465104553,74.97680931630819,11.764452532954465,0.05801603693074411,1.683493398139771
748,9.943126414857035,74.97680931630819,11.765503631073363,0.058037718264669,1.684371859220466
749,9.956419364609518,74.97680931630819,11.774538428584439,0.058089567982860135,1.6861091734792881
750,9.969712314362,74.97680931630819,11.791809747681427,0.058171106361965534,1.6886956143239402
751,9.983005264114484,74.97680931630819,11.816908562810864,0.058279095678705775,1.692048911262497
752,9.996298213866966,74.97680931630819,11.848737389742851,0.05840758846746639,1.6960142236709332
753,10.009591163619447,74.97680931630819,11.885558007975742,0.05854832031157867,1.7003720078193658
754,10.022884113371932,74.97680931630819,11.925113861795605,0.058691422023926125,1.7048534895241814
755,10.036177063124414,74.97680931630819,11.964816946601497,0.058826372992674535,1.7091623935725164
756,10.049470012876895,74.97680931630819,12.001979543053405,0.058943075876283495,1.7130006886719191
757,10.062762962629378,74.97680931630819,12.034064380495613,0.05903291030691377,1.7160955183696744
758,10.07605591238186,74.97680931630819,12.058923740058052,0.05908962281137979,1.7182242521290625
759,10.089348862134344,74.97680931630819,12.074999057766293,0.05910993190694978,1.7192347392284342
760,10.102641811886826,74.97680931630819,12.081457033042222,0.059093774099580755,1.7190586066453541
761,10.11593476163931,74.97680931630819,12.078245523589871,0.05904417986255056,1.7177166724011608
762,10.129227711391792,74.97680931630819,12.066065539971788,0.058966819865193254,1.7153163696065108
763,10.142520661144276,74.97680931630819,12.046272181720767,0.058869292070340806,1.7120413873858993
764,10.155813610896756,74.97680931630819,12.02072403795355,0.05876024878578874,1.7081344430928869
765,10.16910656064924,74.97680931630819,11.991596604299028,0.05864848522496338,1.703875135567177
766,10.182399510401725,74.97680931630819,11.961176107806166,0.0585421073324596,1.6995553787110327
767,10.195692460154206,74.97680931630819,11.931656107166761,0.058447869033384135,1.6954549208285035
768,10.208985409906688,74.97680931630819,11.904959013722744,0.05837073162346502,1.6918192179425873
769,10.222278359659173,74.97680931630819,11.882598455803217,0.05831365948595111,1.6888415253846822
770,10.235571309411654,74.97680931630819,11.865591502427815,0.05827763337519895,1.6866505415630542
771,10.248864259164137,74.97680931630819,11.854423460221739,0.05826184003388783,1.685304347989654
772,10.26215720891662,74.97680931630819,11.849062509178818,0.05826398638597978,1.6847907930268446
773,10.275450158669102,74.97680931630819,11.849017220005106,0.058280686387873946,1.6850339028056225
774,10.288743108421585,74.97680931630819,11.853427050105166,0.05830787521544951,1.6859053985926047
775,10.302036058174068,74.97680931630819,11.861174160203225,0.05834121468253287,1.687239978823702
776,10.31532900792655,74.97680931630819,11.871004193429055,0.05837646235186778,1.688852713160168
777,10.328621957679031,74.97680931630819,11.881643928945394,0.05840978315924478,1.6905567294666382
778,10.341914907431516,74.97680931630819,11.891904955123088,0.058437986836929176,1.6921793894749522
779,10.355207857183998,74.97680931630819,11.90076472658116,0.05845867863415229,1.6935753725597984
780,10.36850080693648,74.97680931630819,11.907419533792725,0.05847031677691145,1.6946355213505773
781,10.381793756688962,74.97680931630819,11.91130781508393,0.0584721790523489,1.6952909102410296
782,10.395086706441443,74.97680931630819,11.912106444913787,0.058464252608262976,1.695512296854525
783,10.408379656193928,74.97680931630819,11.90970650079495,0.05844707356429455,1.6953057911686291
784,10.42167260594641,74.97680931630819,11.904177809035197,0.05842155307595347,1.694706100316669
785,10.434965555698891,74.97680931630819,11.895732637843274,0.05838883046651376,1.6937689692482005
786,10.448258505451376,74.97680931630819,11.884697853023432,0.058350189213064195,1.692564389132983
787,10.46155145520386,74.97680931630819,11.871501703582606,0.058307057161209166,1.6911717817475542
788,10.47484440495634,74.97680931630819,11.856676671523175,0.058261090375909284,1.6896776405678604
789,10.488137354708824,74.97680931630819,11.840874454634704,0.058214314802499056,1.688175174186967
790,10.501430304461309,74.97680931630819,11.824884359586699,0.05816927583653765,1.686764869672498
791,10.51472325421379,74.97680931630819,11.809643522395767,0.0581291298320127,1.685554725927777
792,10.528016203966272,74.97680931630819,11.796227278054765,0.05809761359403682,1.684658851031884
793,10.541309153718757,74.97680931630819,11.785809728429818,0.05807884987864283,1.6841932121976613
794,10.554602103471238,74.97680931630819,11.779588048889819,0.05807698002223964,1.684267879635215
795,10.56789505322372,74.97680931630819,11.778672100532674,0.05809565269783906,1.6849760105330183
796,10.581188002976203,74.97680931630819,11.783951873145043,0.05813743630175185,1.6863807628379321
797,10.594480952728686,74.97680931630819,11.795962396547683,0.058203252085663904,1.6885020914619133
798,10.607773902481169,74.97680931630819,11.81476740053629,0.05829193615920249,1.6913057944582732
799,10.621066852233652,74.97680931630819,11.839881951123276,0.058400026996006056,1.6946971355367857
800,10.634359801986134,74.97680931630819,11.870250576745386,0.05852184278000115,1.698520862931898
801,10.647652751738615,74.97680931630819,11.904290303183885,0.058649866215479,1.7025685611061627
802,10.6609457014911,74.97680931630819,11.93999872692704,0.05877540280334467,1.7065931726884604
803,10.674238651243584,74.97680931630819,11.975117573375964,0.0588894322133274,1.7103294099367783
804,10.687531600996063,74.97680931630819,12.007333786392419,0.05898353955138842,1.7135178190867804
805,10.700824550748546,74.97680931630819,12.034494473612328,0.05905079923146022,1.7159296132144144
806,10.714117500501027,74.97680931630819,12.054809846997612,0.05908648802379175,1.7173890432977093
807,10.727410450253512,74.97680931630819,12.067019891578067,0.05908852501617706,1.7177901152539787
808,10.740703400005994,74.97680931630819,12.070505399549702,0.059057590090706893,1.7171056964929776
809,10.753996349758475,74.97680931630819,12.065331374477156,0.05899694868042904,1.7153892457139006
810,10.76728929951096,74.97680931630819,12.05222018687464,0.05891204433254167,1.7127700156652998
811,10.780582249263444,74.97680931630819,12.032461732335596,0.058809906612373335,1.7094415456608927
812,10.793875199015924,74.97680931630819,12.007774710152255,0.05869843244997646,1.7056436953342329
813,10.807168148768408,74.97680931630819,11.980136152036334,0.058585633812771695,1.701640344005179
814,10.82046109852089,74.97680931630819,11.95159808117268,0.05847894793263844,1.697695744657978
815,10.833754048273374,74.97680931630819,11.924110790930083,0.05838467907772722,1.694052236919121
816,10.847046998025856,74.97680931630819,11.899369933908208,0.05830760951215101,1.6909115017531948
817,10.86033994777834,74.97680931630819,11.878700010717703,0.058250789473993876,1.6884209313619525
818,10.873632897530822,74.97680931630819,11.862981569375574,0.05821549423597935,1.686665995796017
819,10.886925847283305,74.97680931630819,11.852624265391732,0.05820132289346774,1.6856688012280157
820,10.900218797035787,74.97680931630819,11.84758334123207,0.058206408017286396,1.6853924146805235
821,10.91351174678827,74.97680931630819,11.847413368304005,0.058227705437147545,1.6857500195834307
822,10.926804696540753,74.97680931630819,11.851350363721906,0.05826133598065843,1.686617587453762
823,10.940097646293236,74.97680931630819,11.858411655739044,0.05830295316002095,1.6878485133143337
824,10.953390596045718,74.97680931630819,11.867502113363198,0.058348111150625964,1.6892885735782763
825,10.9666835457982,74.97680931630819,11.877515598419695,0.058392606341070144,1.6907896340281838
826,10.979976495550684,74.97680931630819,11.887421791626641,0.058432765142371244,1.692220769240062
827,10.993269445303168,74.97680931630819,11.896330905732245,0.05846565308238276,1.6934758484003725
828,11.006562395055647,74.97680931630819,11.903532125860643,0.05848918735766717,1.6944771674014003
829,11.01985534480813,74.97680931630819,11.908505611458722,0.058502147334277776,1.6951753040516924
830,11.033148294560611,74.97680931630819,11.91091203686163,0.058504093432815436,1.6955459545647733
831,11.046441244313096,74.97680931630819,11.91056724883747,0.05849522118493529,1.6955849716943292
832,11.059734194065578,74.97680931630819,11.907411941266389,0.05847618991671171,1.6953030739099293
833,11.07302714381806,74.97680931630819,11.901486673275462,0.058447970636645856,1.6947216610699538
834,11.086320093570544,74.97680931630819,11.892920771434456,0.05841175281051883,1.6938708054255138
835,11.099613043323028,74.97680931630819,11.881939779099769,0.05836893454931451,1.6927898392521767
836,11.11290599307551,74.97680931630819,11.8688907536263,0.0583211980171766,1.6915302315388308
837,11.126198942827992,74.97680931630819,11.854278902415652,0.058270646183205335,1.6901597823882344
838,11.139491892580477,74.97680931630819,11.838804074242226,0.058219951931696,1.688766602622393
839,11.152784842332958,74.97680931630819,11.823382807139048,0.05817245280740454,1.6874610307584619
840,11.16607779208544,74.97680931630819,11.809141888231872,0.05813212668988554,1.6863737571662885
841,11.179370741837923,74.97680931630819,11.797372533549549,0.05810340686565378,1.6856489961828967
842,11.192663691590406,74.97680931630819,11.789440075674875,0.05809082665022344,1.6854324619314551
843,11.205956641342889,74.97680931630819,11.786652874510319,0.05809851778539476,1.685855001565144
844,11.219249591095371,74.97680931630819,11.790104362645303,0.05812962264365344,1.687013810353907
845,11.232542540847854,74.97680931630819,11.800509806306584,0.05818570947897788,1.6889539702148841
846,11.245835490600337,74.97680931630819,11.818062809312538,0.05826629278617111,1.6916534279600546
847,11.25912844035282,74.97680931630819,11.84233623890133,0.0583685536192395,1.6950143531656288
848,11.272421390105302,74.97680931630819,11.872247934244717,0.058487328759566144,1.6988630870147272
849,11.285714339857783,74.97680931630819,11.906103339391638,0.05861539797254166,1.7029597211291179
850,11.299007289610268,74.97680931630819,11.941716393118229,0.05874405292869051,1.7070169247416769
851,11.31230023936275,74.97680931630819,11.976598468354446,0.058863888010089786,1.7107262110300028
852,11.325593189115231,74.97680931630819,12.008194784195448,0.05896571904197971,1.7137886393318944
853,11.338886138867714,74.97680931630819,12.03414012300975,0.05904151567040191,1.7159461808836953
854,11.352179088620195,74.97680931630819,12.052502011025396,0.05908522553281537,1.7170097544782912
855,11.36547203837268,74.97680931630819,12.06197965304655,0.059093375119209236,1.7168803318051729
856,11.378764988125162,74.97680931630819,12.062031049490132,0.059065379399806106,1.7155604538136588
857,11.392057937877643,74.97680931630819,12.05291355805529,0.0590035709532946,1.7131547486072385
858,11.405350887630128,74.97680931630819,12.035642394789363,0.05891298436297552,1.7098594083559382
859,11.41864383738261,74.97680931630819,12.011880086608059,0.05880089990742589,1.7059419888320304
860,11.431936787135092,74.97680931630819,11.983766514203882,0.05867616553821551,1.7017141336980188
861,11.445229736887576,74.97680931630819,11.95370357798592,0.05854837663197741,1.69750062735159
862,11.45852268664006,74.97680931630819,11.924120320519012,0.058427017864856885,1.6936084446185318
863,11.471815636392542,74.97680931630819,11.89724790689606,0.05832065740919632,1.6902992227023785
864,11.485108586145024,74.97680931630819,11.874928742738158,0.05823626277390308,1.687767909850662
865,11.498401535897507,74.97680931630819,11.858476725353537,0.05817868661471365,1.6861293817090817
866,11.51169448564999,74.97680931630819,11.848597819729603,0.058150350556612766,1.6854137304456271
867,11.524987435402473,74.97680931630819,11.84537245093146,0.05815113777912414,1.6855698894001951
868,11.538280385154955,74.97680931630819,11.848294597687826,0.05817849101020468,1.6864763915196992
869,11.551573334907438,74.97680931630819,11.856357562078154,0.05822770108853269,1.6879574591407962
870,11.56486628465992,74.97680931630819,11.868173457759905,0.05829236101729257,1.689802319846881
871,11.578159234412404,74.97680931630819,11.882112456529137,0.058364948189289875,1.6917856263287152
872,11.591452184164886,74.97680931630819,11.896448477861261,0.058437484147531214,1.6936870809271893
873,11.604745133917367,74.97680931630819,11.9094998716741,0.058502215274665814,1.6953087591181286
874,11.618038083669852,74.97680931630819,11.919756238185123,0.05855226072853705,1.6964891110918674
875,11.631331033422333,74.97680931630819,11.925985349099587,0.05858218013163505,1.6971131163378952
876,11.644623983174816,74.97680931630819,11.927316718368472,0.05858842223588143,1.6971185003294997
877,11.657916932927298,74.97680931630819,11.92330034271526,0.05856962378222946,1.6964982392163375
878,11.67120988267978,74.97680931630819,11.913940261372838,0.058526734148030946,1.6952997471084128
879,11.684502832432264,74.97680931630819,11.899702842535293,0.05846295480655602,1.693621161706064
880,11.697795782184746,74.97680931630819,11.881499300329201,0.058383501488034624,1.691605053937106
881,11.71108873193723,74.97680931630819,11.860641313728253,0.0582952105960014,1.6894297502765951
882,11.724381681689712,74.97680931630819,11.838768342359767,0.058206018976416356,1.6872983741010328
883,11.737674631442196,74.97680931630819,11.81774589299744,0.05812435149996541,1.6854257488304896
884,11.750967581194676,74.97680931630819,11.79953607259117,0.05805845538242362,1.6840233225977443
885,11.76426053094716,74.97680931630819,11.786045269292632,0.05801572407513834,1.6832823117379376
886,11.777553480699645,74.97680931630819,11.778957551591331,0.05800205567699457,1.683355803794141
887,11.790846430452126,74.97680931630819,11.779565727917827,0.058021290896793254,1.6843414972338622
888,11.804139380204608,74.97680931630819,11.788616187576364,0.05807477671584866,1.6862672351756582
889,11.817432329957091,74.97680931630819,11.806187516537376,0.058161102394285596,1.6890813710484214
890,11.830725279709574,74.97680931630819,11.831622551084997,0.05827604721841359,1.6926497222569807
891,11.844018229462057,74.97680931630819,11.863528554903795,0.05841276376975398,1.6967604179191884
892,11.85731117921454,74.97680931630819,11.899853030568455,0.05856220127239297,1.7011371692268213
893,11.870604128967022,74.97680931630819,11.93803418227344,0.058713752280946656,1.705460469533879
894,11.883897078719505,74.97680931630819,11.975215590093224,0.058856082911479556,1.7093951338916953
895,11.897190028471988,74.97680931630819,12.008505577732215,0.058978083833716936,1.712621585176855
896,11.91048297822447,74.97680931630819,12.035254540565496,0.05906985894836992,1.7148675548835342
897,11.923775927976951,74.97680931630819,12.053319347576231,0.05912365089063983,1.7159365114386051
898,11.937068877729436,74.97680931630819,12.061283511135969,0.059134592093100534,1.7157292487078561
899,11.950361827481917,74.97680931630819,12.058605492167954,0.059101196766970496,1.714255812046916
900,11.9636547772344,74.97680931630819,12.04567620903323,0.059025569296628805,1.711636220380009
901,11.976947726986882,74.97680931630819,12.023779385328544,0.05891332119638593,1.7080897379101316
902,11.990240676739363,74.97680931630819,11.994959806470865,0.05877316129423037,1.7039135838186805
903,12.003533626491848,74.97680931630819,11.961813262334008,0.05861615093546557,1.699453259832054
904,12.01682657624433,74.97680931630819,11.927221080844205,0.05845469455005047,1.6950679358070153
905,12.030119525996811,74.97680931630819,11.89406040979165,0.058301384580782205,1.6910950187357205
906,12.043412475749296,74.97680931630819,11.864924354032041,0.058167830040438746,1.6878180325321224
907,12.05670542550178,74.97680931630819,11.841883338018008,0.058063595342665184,1.6854413989050219
908,12.06999837525426,74.97680931630819,11.826312481214872,0.05799536255175219,1.6840747334079786
909,12.083291325006744,74.97680931630819,11.818800565618414,0.057966406853971156,1.68372803614075
910,12.096584274759229,74.97680931630819,11.819145995279879,0.057976443535205785,1.6843178392496807
911,12.10987722451171,74.97680931630819,11.826435354921463,0.058021848553414905,1.6856828423474746
912,12.123170174264192,74.97680931630819,11.83918927340434,0.05809618256554352,1.68760605539779
913,12.136463124016675,74.97680931630819,11.855549828995935,0.0581909229273999,1.6898400324909546
914,12.149756073769158,74.97680931630819,11.873482339070565,0.05829633268509486,1.6921324391822596
915,12.16304902352164,74.97680931630819,11.89097184046586,0.058402394853323776,1.694249653977193
916,12.176341973274123,74.97680931630819,11.906199446835796,0.05849971349116885,1.6959962438468668
917,12.189634923026606,74.97680931630819,11.917684855126897,0.058580286102647885,1.6972287747343082
918,12.202927872779089,74.97680931630819,11.92438554356278,0.05863808398537539,1.6978634174922107
919,12.216220822531572,74.97680931630819,11.925750668293455,0.058669411873682395,1.6978776900093804
920,12.229513772284054,74.97680931630819,11.921734235502356,0.05867304775522516,1.6973072839423735
921,12.242806722036535,74.97680931630819,11.912774815203754,0.05865018548078452,1.6962392443985577
922,12.25609967178902,74.97680931630819,11.899748067738885,0.058604215955235614,1.6948027915576551
923,12.2693926215415,74.97680931630819,11.883896874479513,0.0585403871655416,1.6931587834596655
924,12.282685571293984,74.97680931630819,11.866742853596548,0.05846537630523841,1.6914883258761702
925,12.295978521046466,74.97680931630819,11.849981539360904,0.05838679357182465,1.6899806012876553
926,12.309271470798947,74.97680931630819,11.83536255211966,0.05831262930512039,1.6888198189054722
927,12.322564420551432,74.97680931630819,11.824557050645874,0.05825065926734358,1.688171299230917
928,12.335857370303914,74.97680931630819,11.819016790755134,0.058207832758541335,1.6881670335228258
929,12.349150320056395,74.97680931630819,11.819831743004055,0.058189674259967676,1.6888915479572981
930,12.36244326980888,74.97680931630819,11.827598144069338,0.058199730918262096,1.690369458802815
931,12.375736219561364,74.97680931630819,11.842314585271609,0.05823911542607798,1.6925565422928643
932,12.389029169313844,74.97680931630819,11.86332515223753,0.05830622015023643,1.695336271043626
933,12.402322119066328,74.97680931630819,11.889324776095812,0.05839667526232731,1.6985234789277122
934,12.415615068818813,74.97680931630819,11.918435479416438,0.0585035894524092,1.701876095260243
935,12.428908018571294,74.97680931630819,11.948353852619869,0.05861807427703281,1.7051148203794295
936,12.442200968323776,74.97680931630819,11.976560109145913,0.058730018545100404,1.7079493589317107
937,12.45549391807626,74.97680931630819,12.000568977174755,0.058829044228028204,1.7101085988564
938,12.468786867828742,74.97680931630819,12.018194358272481,0.05890554564423515,1.711371091393813
939,12.482079817581225,74.97680931630819,12.027794154518528,0.05895169514385551,1.711591586454451
940,12.495372767333707,74.97680931630819,12.02846039432372,0.05896229501677486,1.7107198748348738
941,12.50866571708619,74.97680931630819,12.02012808343338,0.05893537039650197,1.7088097307760466
942,12.521958666838673,74.97680931630819,12.003592837176734,0.05887243001827206,1.7060167708597525
943,12.535251616591156,74.97680931630819,11.980437419161609,0.05877836134501904,1.702584419278491
944,12.548544566343638,74.97680931630819,11.952869400353197,0.0586609678727655,1.6988186707187498
945,12.56183751609612,74.97680931630819,11.923482694416094,0.05853019977066126,1.6950547266503766
946,12.575130465848604,74.97680931630819,11.894973044190989,0.0583971677997424,1.691620085953329
947,12.588423415601085,74.97680931630819,11.869846338999272,0.058273054196667215,1.688799012870852
948,12.601716365353568,74.97680931630819,11.850157335865314,0.0581680404081569,1.686802945240839
949,12.61500931510605,74.97680931630819,11.837310048165024,0.058090362877521354,1.685750440199058
950,12.628302264858531,74.97680931630819,11.83194129577096,0.05804558746155198,1.685658819078505
951,12.641595214611016,74.97680931630819,11.833896840316799,0.058036164478090825,1.6864480124659864
952,12.6548881643635,74.97680931630819,11.842296418189626,0.05806129407986818,1.6879553366986246
953,12.66818111411598,74.97680931630819,11.855671854895306,0.058117097948168724,1.6899583412771897
954,12.681474063868464,74.97680931630819,11.872154944501547,0.058197062027790965,1.692202098422725
955,12.694767013620949,74.97680931630819,11.889689711277507,0.05829269378444036,1.694427431225585
956,12.70805996337343,74.97680931630819,11.90624428974012,0.05839432757272227,1.6963969497906242
957,12.721352913125912,74.97680931630819,11.920000238692216,0.05849200652265085,1.6979162309936242
958,12.734645862878397,74.97680931630819,11.929502714350253,0.05857636751311908,1.6988483328568569
959,12.747938812630878,74.97680931630819,11.93376315452455,0.058639460203906854,1.699121132590489
960,12.76123176238336,74.97680931630819,11.93231456949322,0.05867543935747408,1.698728315319081
961,12.774524712135843,74.97680931630819,11.925224390949957,0.0586810786849515,1.6977254005840352
962,12.787817661888326,74.97680931630819,11.91307057263462,0.05865606776089123,1.696221940394886
963,12.801110611640809,74.97680931630819,11.896886690915649,0.05860307117115989,1.6943708625425518
964,12.814403561393291,74.97680931630819,11.878081857011672,0.05852754030714831,1.6923559853387244
965,12.827696511145774,74.97680931630819,11.858339874046687,0.058437274674579896,1.6903784906822508
966,12.840989460898257,74.97680931630819,11.839500307855658,0.05834174799252807,1.6886427546065264
967,12.85428241065074,74.97680931630819,11.823424190205527,0.05825124426789204,1.6873417583312793
968,12.867575360403222,74.97680931630819,11.811849286199704,0.05817587777061976,1.6866422709545412
969,12.880868310155703,74.97680931630819,11.806241214375303,0.058124593246427145,1.6866700888278006
970,12.894161259908188,74.97680931630819,11.807646847653903,0.058104245235118264,1.6874961611520318
971,12.907454209660669,74.97680931630819,11.81656171774647,0.0581188370723339,1.689125254130718
972,12.920747159413152,74.97680931630819,11.832831994945565,0.05816899690085486,1.6914891564457797
973,12.934040109165634,74.97680931630819,11.855612521190155,0.05825177805576556,1.694446154409611
974,12.947333058918115,74.97680931630819,11.883394517085708,0.05836084346925094,1.6977879619746508
975,12.9606260086706,74.97680931630819,11.914107712575493,0.05848703077988392,1.7012545224141224
976,12.973918958423084,74.97680931630819,11.945293040240937,0.05861924060643729,1.7045560574544025
977,12.987211908175563,74.97680931630819,11.974332309879536,0.05874555328564474,1.7074005833643973
978,13.000504857928048,74.97680931630819,11.998711863165068,0.05885445116189932,1.7095240634907594
979,13.01379780768053,74.97680931630819,12.016290041155958,0.058936007977443465,1.7107195738355496
980,13.027090757433012,74.97680931630819,12.025534065555012,0.05898290810975706,1.7108615116995733
981,13.040383707185496,74.97680931630819,12.025691953827797,0.05899117709417593,1.7099215067035114
982,13.05367665693798,74.97680931630819,12.016875877455597,0.0589605422347879,1.7079742151584723
983,13.066969606690462,74.97680931630819,12.000053168700969,0.058894392721767753,1.7051922447986538
984,13.080262556442944,74.97680931630819,11.976950703505219,0.058799356561207904,1.7018299291070438
985,13.093555506195427,74.97680931630819,11.949876332440716,0.058684549737349885,1.6981970191522762
986,13.10684845594791,74.97680931630819,11.921469725302796,0.05856058751670737,1.6946253843541543
987,13.120141405700393,74.97680931630819,11.894413209671978,0.05843847471104933,1.6914330521458354
988,13.133434355452875,74.97680931630819,11.871141797820984,0.058328500379295864,1.6888901533316214
989,13.146727305205358,74.97680931630819,11.853589111813188,0.05823925353222669,1.6871909756837118
990,13.16002025495784,74.97680931630819,11.84299914642888,0.05817685633823865,1.686435466962144
991,13.173313204710324,74.97680931630819,11.839824606899965,0.05814448405315018,1.6866222550318104
992,13.186606154462806,74.97680931630819,11.843721551847983,0.058142210835146126,1.6876536218023435
993,13.19989910421529,74.97680931630819,11.853636168352757,0.058167189793140055,1.6893511260863483
994,13.213192053967772,74.97680931630819,11.86796466224483,0.05821413447414888,1.69147934190081
995,13.226485003720253,74.97680931630819,11.884760340320778,0.058276021995825135,1.6937746085536276
996,13.239777953472736,74.97680931630819,11.901963537104589,0.05834492133230136,1.6959753072377657
997,13.253070903225218,74.97680931630819,11.917629700612384,0.05841286515512948,1.6978499619210796
998,13.2663638529777,74.97680931630819,11.930128519828944,0.058472686078610885,1.6992198020010072
999,13.279656802730184,74.97680931630819,11.938292198895848,0.058518727373077804,1.6999735521447918
1000,13.292949752482668,74.97680931630819,11.94150302708948,0.058547347194811875,1.7000737911950492
1001,13.30624270223515,74.97680931630819,11.939718166720267,0.0585571668559986,1.699555222089412
1002,13.319535651987632,74.97680931630819,11.933431958790266,0.05854905174867983,1.698515509465433
1003,13.332828601740117,74.97680931630819,11.923582141814144,0.058525845268027815,1.6971000104105134
1004,13.346121551492596,74.97680931630819,11.911415584743356,0.058491898991234186,1.6954826884389609
1005,13.35941450124508,74.97680931630819,11.898333712044337,0.05845246387711835,1.6938458684590454
1006,13.372707450997565,74.97680931630819,11.885737216239217,0.058413024734517975,1.6923612287391188
1007,13.386000400750046,74.97680931630819,11.874886818333296,0.05837866368615352,1.6911739092235063
1008,13.399293350502528,74.97680931630819,11.866792560849742,0.058353527815941254,1.6903909736445717
1009,13.412586300255011,74.97680931630819,11.86213892723175,0.05834045617962851,1.690074774033728
1010,13.425879250007494,74.97680931630819,11.861247903285642,0.058340791054677314,1.690241083160726
1011,13.439172199759977,74.97680931630819,11.864077638831597,0.05835436315544614,1.6908612765385114
1012,13.45246514951246,74.97680931630819,11.870250549712772,0.05837961908292069,1.691867570574173
1013,13.465758099264942,74.97680931630819,11.879101965175632,0.05841385505859937,1.6931603636696768
1014,13.479051049017423,74.97680931630819,11.889740687325887,0.05845351772324529,1.6946168422899281
1015,13.492343998769908,74.97680931630819,11.901115776346556,0.058494529838945965,1.696100146877423
1016,13.50563694852239,74.97680931630819,11.912086455611355,0.05853260730340215,1.6974686323752222
1017,13.518929898274871,74.97680931630819,11.921493526332435,0.058563550920695304,1.6985850397550306
1018,13.532222848027356,74.97680931630819,11.928232242520231,0.05858351249995614,1.6993255916079633
1019,13.545515797779837,74.97680931630819,11.931327713987368,0.058589245280837914,1.699589077675568
1020,13.55880874753232,74.97680931630819,11.93001362615855,0.05857835100103594,1.6993058832712422
1021,13.572101697284802,74.97680931630819,11.923813228809477,0.05854953071815038,1.698446638474841
1022,13.585394647037283,74.97680931630819,11.91261814392945,0.05850283473246925,1.6970297828588767
1023,13.598687596789768,74.97680931630819,11.896756306169573,0.05843988734663387,1.695126982951661
1024,13.61198054654225,74.97680931630819,11.877036848612468,0.05836404015629769,1.6928651216999637
1025,13.625273496294732,74.97680931630819,11.854758152445024,0.05828039563596157,1.6904235059054369
1026,13.638566446047216,74.97680931630819,11.8316662216671,0.05819564634419721,1.6880251350742748
1027,13.6518593957997,74.97680931630819,11.809854661533247,0.05811769328733668,1.6859215268899939
1028,13.665152345552182,74.97680931630819,11.791604893256805,0.05805503871177363,1.684371428077887
1029,13.678445295304664,74.97680931630819,11.779174534200171,0.05801598313434649,1.6836145459593175
1030,13.691738245057149,74.97680931630819,11.774551617072985,0.05800768795682918,1.6838426599330263
1031,13.70503119480963,74.97680931630819,11.779201798417377,0.05803520746860763,1.685171899796144
1032,13.718324144562112,74.97680931630819,11.793842770597939,0.05810063724471829,1.6876205039919792
1033,13.731617094314595,74.97680931630819,11.818281264167808,0.05820253075612035,1.6910958167702463
1034,13.744910044067078,74.97680931630819,11.851342448417283,0.058335698873018337,1.6953932565320082
1035,13.75820299381956,74.97680931630819,11.89091081996718,0.05849145385305463,1.7002086109225785
1036,13.771495943572043,74.97680931630819,11.934087280998439,0.05865829911997041,1.7051632551770315
1037,13.784788893324526,74.97680931630819,11.977450800484476,0.05882300081750675,1.7098400144416062
1038,13.798081843077007,74.97680931630819,12.017397421759489,0.05897191741444213,1.7138257342814356
1039,13.811374792829492,74.97680931630819,12.050516978241259,0.05909242056845094,1.7167554653219574
1040,13.824667742581974,74.97680931630819,12.073960722504177,0.05917421788791091,1.718352713709186
1041,13.837960692334455,74.97680931630819,12.0857517851436,0.05921039148742849,1.7184605707656018
1042,13.85125364208694,74.97680931630819,12.084995546722807,0.059198023954558227,1.717059675353965
1043,13.86454659183942,74.97680931630819,12.071963113121136,0.05913838492335337,1.7142706677701567
1044,13.877839541591904,74.97680931630819,12.048045473604187,0.05903670420521334,1.7103408131220057
1045,13.891132491344386,74.97680931630819,12.015591321916943,0.05890155259493029,1.7056165707860895
1046,13.904425441096867,74.97680931630819,11.977645646164172,0.05874389115783295,1.700505741821782
1047,13.917718390849352,74.97680931630819,11.937616629591277,0.058575927536070875,1.6954341012989385
1048,13.931011340601836,74.97680931630819,11.898913708112559,0.058409945689678736,1.6908019342032918
1049,13.944304290354316,74.97680931630819,11.864604115261493,0.05825724999602334,1.6869456156593852
1050,13.9575972401068,74.97680931630819,11.837128343746565,0.05812732262450232,1.6841084006036668
1051,13.970890189859285,74.97680931630819,11.818103413096393,0.058027246843766665,1.6824231185945773
1052,13.984183139611766,74.97680931630819,11.808229175248703,0.05796140547957854,1.6819077764271089
1053,13.997476089364248,74.97680931630819,11.807299215483496,0.05793143078549788,1.682473458376762
1054,14.010769039116733,74.97680931630819,11.81430610788002,0.057936363793477524,1.6839425969891424
1055,14.024061988869214,74.97680931630819,11.827619405433884,0.057972976600481486,1.6860745797207324
1056,14.037354938621696,74.97680931630819,11.845205047073,0.05803620782926057,1.6885948588737019
1057,14.05064788837418,74.97680931630819,11.864855051936852,0.05811965638868284,1.6912238875470647
1058,14.063940838126662,74.97680931630819,11.884405602964227,0.05821609142364696,1.693703201788208
1059,14.077233787879145,74.97680931630819,11.901927808111875,0.058317963276975235,1.6958167748044495
1060,14.090526737631627,74.97680931630819,11.915877084092116,0.05841790737495634,1.6974062136639663
1061,14.10381968738411,74.97680931630819,11.925191440896398,0.0585092198776451,1.6983790094689266
1062,14.117112637136591,74.97680931630819,11.929336717373404,0.05858627641614232,1.6987099715846563
1063,14.130405586889076,74.97680931630819,11.92830421686079,0.05864486672295955,1.6984368399461773
1064,14.143698536641558,74.97680931630819,11.922569318657565,0.05868242161082644,1.6976514215851686
1065,14.15699148639404,74.97680931630819,11.913018793315103,0.05869811423000949,1.6964874653107398
1066,14.170284436146524,74.97680931630819,11.900854343489586,0.05869282596401672,1.695106428869297
1067,14.183577385899005,74.97680931630819,11.887480855623563,0.05866898354515959,1.6936823653751505
1068,14.196870335651488,74.97680931630819,11.874387292282544,0.05863029459671434,1.6923870287233658
1069,14.21016328540397,74.97680931630819,11.86302651632592,0.05858141369595069,1.6913760271588014
1070,14.223456235156451,74.97680931630819,11.854699509971006,0.05852755946155748,1.690776642969249
1071,14.236749184908936,74.97680931630819,11.850449704615727,0.058474099648867406,1.690677770687182
1072,14.25004213466142,74.97680931630819,11.850972663979514,0.05842612817573777,1.6911223085191105
1073,14.2633350844139,74.97680931630819,11.856545059899165,0.05838806011736186,1.6921024200288954
1074,14.276628034166384,74.97680931630819,11.866978689976424,0.05836326890298286,1.6935582945368601
1075,14.289920983918869,74.97680931630819,11.881609318703493,0.05835379117316939,1.6953810461983416
1076,14.30321393367135,74.97680931630819,11.89932948614921,0.05836012776797098,1.6974201281826176
1077,14.316506883423832,74.97680931630819,11.91866865090901,0.05838116872846315,1.6994952465674986
1078,14.329799833176317,74.97680931630819,11.937917834328966,0.05841426317366994,1.7014122546643844
1079,14.343092782928798,74.97680931630819,11.955290152565714,0.05845544435379664,1.7029818866775288
1080,14.35638573268128,74.97680931630819,11.969102583232468,0.05849980629904197,1.7040395024710828
1081,14.369678682433763,74.97680931630819,11.977958787410879,0.058542007469604015,1.7044634344060368
1082,14.382971632186246,74.97680931630819,11.980909337385492,0.05857685209167333,1.7041896307550015
1083,14.396264581938729,74.97680931630819,11.97756789203387,0.05859988091810297,1.703221098113574
1084,14.409557531691211,74.97680931630819,11.968169658683557,0.05860789881904229,1.7016309410062869
1085,14.422850481443694,74.97680931630819,11.953564063483448,0.058599376323877524,1.6995575823625
1086,14.436143431196175,74.97680931630819,11.935136298814896,0.05857467216019197,1.6971916176121429
1087,14.44943638094866,74.97680931630819,11.914661279689783,0.05853603357744204,1.6947555826426048
1088,14.462729330701142,74.97680931630819,11.894107135486072,0.05848735772367628,1.6924792599706073
1089,14.476022280453623,74.97680931630819,11.875414519453189,0.058433737501034436,1.690573759093723
1090,14.489315230206108,74.97680931630819,11.860281049796004,0.05838085037754851,1.6892078058011541
1091,14.502608179958589,74.97680931630819,11.849979165610666,0.058334272402422456,1.688489484001769
1092,14.515901129711072,74.97680931630819,11.845231025527902,0.05829881213662653,1.6884560386703034
1093,14.529194079463554,74.97680931630819,11.846156131360978,0.05827795770708836,1.689072939582943
1094,14.542487029216035,74.97680931630819,11.852295719963033,0.0582735132683453,1.6902414639050047
1095,14.55577997896852,74.97680931630819,11.862704566934925,0.05828546755622033,1.6918130058626644
1096,14.569072928721004,74.97680931630819,11.876092207359791,0.05831209353349699,1.6936083236644885
1097,14.582365878473484,74.97680931630819,11.890992978931294,0.05835024339566878,1.695439482360123
1098,14.595658828225968,74.97680931630819,11.90594209906684,0.05839578412233955,1.6971313960991092
1099,14.60895177797845,74.97680931630819,11.919633244675254,0.05844410443876175,1.698539822023564
1100,14.622244727730934,74.97680931630819,11.931036293180973,0.058490615776284206,1.699563425321872
1101,14.635537677483416,74.97680931630819,11.939462061741352,0.05853117743235523,1.7001487290236417
1102,14.6488306272359,74.97680931630819,11.944570948825715,0.05856239700462068,1.7002881553138591
1103,14.662123576988382,74.97680931630819,11.94633094382782,0.05858178543022891,1.7000123382208416
1104,14.675416526740864,74.97680931630819,11.94493654282562,0.058587776519108604,1.6993783122892292
1105,14.688709476493347,74.97680931630819,11.94070533678721,0.05857964296225408,1.69845563658035
1106,14.70200242624583,74.97680931630819,11.933972858756318,0.058557351516912166,1.6973129575442716
1107,14.715295375998313,74.97680931630819,11.92500647286483,0.05852140705400581,1.6960074424433629
1108,14.728588325750795,74.97680931630819,11.913955578331946,0.05847273693523192,1.694578933387687
1109,14.741881275503278,74.97680931630819,11.900849222686693,0.0584126559584437,1.6930498416337962
1110,14.75517422525576,74.97680931630819,11.885644080018018,0.058342928894222316,1.6914308316991498
1111,14.768467175008244,74.97680931630819,11.86831654459789,0.05826591888888491,1.6897312568854044
1112,14.781760124760726,74.97680931630819,11.848983662013273,0.05818478121738994,1.6879722543621951
1113,14.79505307451321,74.97680931630819,11.82803020160849,0.05810363731846587,1.6861997617013738
1114,14.808346024265692,74.97680931630819,11.806214819495283,0.05802765000553746,1.6844946028176457
1115,14.821638974018173,74.97680931630819,11.784728227370124,0.05796292636194907,1.6829769949829914
1116,14.834931923770656,74.97680931630819,11.76518122312317,0.05791620121427982,1.6818033832875006
1117,14.848224873523138,74.97680931630819,11.74950985631027,0.05789429218942006,1.6811546028037387
1118,14.86151782327562,74.97680931630819,11.739797862495287,0.05790336123819924,1.6812158761854794
1119,14.874810773028104,74.97680931630819,11.738031815577699,0.057948063560628905,1.6821507629667756
1120,14.888103722780588,74.97680931630819,11.745819511013591,0.05803070355578509,1.684072592260578
1121,14.90139667253307,74.97680931630819,11.764112668972624,0.05815053783585101,1.687017849378145
1122,14.914689622285552,74.97680931630819,11.792978722070323,0.05830336109669704,1.6909262173568251
1123,14.927982572038037,74.97680931630819,11.831462900628942,0.05848148027379945,1.6956313847007591
1124,14.941275521790518,74.97680931630819,11.877571145851265,0.05867412969846069,1.7008653629482677
1125,14.954568471543,74.97680931630819,11.928387692048837,0.058868313539115286,1.7062771082713555
1126,14.967861421295485,74.97680931630819,11.980321127385485,0.059049993382872215,1.7114640258194658
1127,14.981154371047966,74.97680931630819,12.029452774059077,0.05920548029493397,1.7160128160602985
1128,14.994447320800449,74.97680931630819,12.071944707581913,0.059322852240558575,1.7195444547126888
1129,15.007740270552931,74.97680931630819,12.104454462885935,0.05939320165275079,1.7217570361387495
1130,15.021033220305414,74.97680931630819,12.124501080502208,0.05941152845767938,1.7224599931610707
1131,15.034326170057897,74.97680931630819,12.130733104591627,0.0593771650957553,1.7215949936505868
1132,15.04761911981038,74.97680931630819,12.123063468217717,0.05929373853505789,1.7192422691969615
1133,15.060912069562862,74.97680931630819,12.102656530514297,0.05916872613238337,1.7156127707286544
1134,15.074205019315343,74.97680931630819,12.071773055245684,0.05901263949956318,1.7110261226621124
1135,15.087497969067828,74.97680931630819,12.03349632622423,0.05883790397919474,1.7058758658456423
1136,15.10079091882031,74.97680931630819,11.991377488004728,0.058657586280797536,1.7005867176714455
1137,15.114083868572791,74.97680931630819,11.94904836650421,0.05848415191271781,1.69557010411549
1138,15.127376818325276,74.97680931630819,11.909851683966105,0.05832840271946428,1.6911837727048515
1139,15.140669768077757,74.97680931630819,11.876531985274704,0.058198696874162195,1.6877001230476631
1140,15.15396271783024,74.97680931630819,11.851018420934729,0.05810050137619661,1.6852863001352465
1141,15.167255667582722,74.97680931630819,11.834315389294991,0.058036276530240384,1.6839972596846577
1142,15.180548617335203,74.97680931630819,11.82650159178064,0.058005651212485146,1.6837812428229655
1143,15.193841567087688,74.97680931630819,11.826824728603954,0.05800582145400958,1.6844956405655434
1144,15.20713451684017,74.97680931630819,11.833869513342838,0.058032093994754806,1.685930257217281
1145,15.220427466592652,74.97680931630819,11.845771624702618,0.05807849880269131,1.6878345577178546
1146,15.233720416345136,74.97680931630819,11.860449460674792,0.05813840604512215,1.6899455686102813
1147,15.24701336609762,74.97680931630819,11.875828277753257,0.058205099029190015,1.6920135822494784
1148,15.260306315850102,74.97680931630819,11.890036314742265,0.05827227111814797,1.6938235360168903
1149,15.273599265602584,74.97680931630819,11.90155861644032,0.05833442867868461,1.6952107458764005
1150,15.286892215355069,74.97680931630819,11.909340478960535,0.05838719223734756,1.6960704353132832
1151,15.30018516510755,74.97680931630819,11.912838031504112,0.058427494076536524,1.6963611287612261
1152,15.313478114860033,74.97680931630819,11.91201806104438,0.05845367338859908,1.6961024341041369
1153,15.326771064612515,74.97680931630819,11.907312651491248,0.05846547135257901,1.695368025880961
1154,15.340064014364998,74.97680931630819,11.899536605425657,0.058463929739703754,1.6942747935083644
1155,15.35335696411748,74.97680931630819,11.88977710800145,0.058451199175169735,1.6929691851800956
1156,15.366649913869963,74.97680931630819,11.879265886606774,0.05843026758902672,1.6916118053547895
1157,15.379942863622446,74.97680931630819,11.869244420840491,0.058404625500882136,1.6903613468936047
1158,15.393235813374927,74.97680931630819,11.860832730852335,0.058377891756348985,1.689358976141755
1159,15.406528763127412,74.97680931630819,11.854912008253413,0.05835343000116088,1.6887143342209803
1160,15.419821712879894,74.97680931630819,11.852030864645588,0.058333991195378625,1.688494327065652
1161,15.433114662632375,74.97680931630819,11.852344122923082,0.05832141909986592,1.6887158133023368
1162,15.44640761238486,74.97680931630819,11.85559144716235,0.058316453162624876,1.6893431673474006
1163,15.45970056213734,74.97680931630819,11.861120480315087,0.058318657718381295,1.6902914500301582
1164,15.472993511889824,74.97680931630819,11.867955903527267,0.058326497564451046,1.6914354647150727
1165,15.486286461642306,74.97680931630819,11.87491187767487,0.05833756558404382,1.6926243186422683
1166,15.49957941139479,74.97680931630819,11.880740102586428,0.058348948746651405,1.6937003488916789
1167,15.512872361147272,74.97680931630819,11.884299745099318,0.05835769770504256,1.6945205088549702
1168,15.526165310899756,74.97680931630819,11.884730167609325,0.0583613450147626,1.6949776586073857
1169,15.539458260652236,74.97680931630819,11.881603839459077,0.05835840074812685,1.6950188088824631
1170,15.55275121040472,74.97680931630819,11.87503592435494,0.05834874609924677,1.6946573702442753
1171,15.566044160157205,74.97680931630819,11.865729648548307,0.05833384932903145,1.6939769421340185
1172,15.579337109909686,74.97680931630819,11.854943025350384,0.05831674623921859,1.6931251464435486
1173,15.592630059662168,74.97680931630819,11.844372443721632,0.05830175872373958,1.692297374545353
1174,15.605923009414653,74.97680931630819,11.83596081849376,0.058293965976672565,1.69171188655319
1175,15.619215959167134,74.97680931630819,11.831650557322238,0.05829848686336355,1.6915792175845819
1176,15.632508908919617,74.97680931630819,11.8331122711915,0.05831967034924468,1.6920700244373579
1177,15.6458018586721,74.97680931630819,11.841486783167676,0.05836031553226136,1.6932860986097131
1178,15.659094808424582,74.97680931630819,11.857178999350552,0.0584210477762325,1.6952391211702158
1179,15.672387758177065,74.97680931630819,11.879736991151772,0.058499960468859004,1.6978408172673647
1180,15.685680707929547,74.97680931630819,11.907838740709897,0.05859259513122388,1.7009066028013025
1181,15.69897365768203,74.97680931630819,11.939394032509217,0.058692281961325775,1.7041728469717223
1182,15.712266607434511,74.97680931630819,11.971752308253405,0.05879080698326921,1.7073258173297867
1183,15.725559557186996,74.97680931630819,12.001991626309039,0.05887932021721003,1.710038562742089
1184,15.738852506939478,74.97680931630819,12.027251698458965,0.058949360382418235,1.7120106497723278
1185,15.75214545669196,74.97680931630819,12.045067240485157,0.05899385130874003,1.713005036896063
1186,15.765438406444444,74.97680931630819,12.053657601535393,0.059007927354013695,1.7128771061068127
1187,15.778731356196923,74.97680931630819,12.052134832640252,0.05898947682289847,1.7115928167205008
1188,15.792024305949408,74.97680931630819,12.040604024897322,0.058939347904432816,1.7092342959801414
1189,15.80531725570189,74.97680931630819,12.020145006139728,0.058861211862892525,1.7059917279801828
1190,15.818610205454371,74.97680931630819,11.992680813883037,0.05876111380585319,1.7021420658957978
1191,15.831903155206856,74.97680931630819,11.960753205829421,0.058646781210530435,1.698017630531135
1192,15.84519610495934,74.97680931630819,11.927236713604556,0.05852679760735176,1.6939692028844677
1193,15.85848905471182,74.97680931630819,11.895028881051017,0.058409758902888784,1.6903285329228657
1194,15.871782004464304,74.97680931630819,11.866754722578499,0.05830351322411985,1.6873748363646235
1195,15.885074954216789,74.97680931630819,11.844518544699747,0.05821455544811261,1.6853089735813338
1196,15.89836790396927,74.97680931630819,11.82972741203838,0.05814761345975832,1.684237718849175
1197,15.911660853721752,74.97680931630819,11.822999493698761,0.058105431694242454,1.6841690695256317
1198,15.924953803474237,74.97680931630819,11.82415917392066,0.05808873424463972,1.685018135729047
1199,15.938246753226718,74.97680931630819,11.83231085856561,0.0580963369121698,1.6866219258055724
1200,15.9515397029792,74.97680931630819,11.845975955915035,0.05812537491006954,1.6887604412475117
1201,15.964832652731683,74.97680931630819,11.863272427838675,0.05817161717764454,1.6911811403005854
1202,15.978125602484166,74.97680931630819,11.882113744680613,0.05822983934990851,1.6936239981452457
1203,15.991418552236649,74.97680931630819,11.90040539697445,0.058294223560218184,1.695844779537274
1204,16.00471150198913,74.97680931630819,11.916221712238587,0.05835876107444934,1.6976346081984022
1205,16.018004451741614,74.97680931630819,11.927951782776088,0.058417651886031804,1.6988345264826399
1206,16.031297401494097,74.97680931630819,11.934409684184283,0.0584656986315494,1.699344598304894
1207,16.04459035124658,74.97680931630819,11.93490756702179,0.0584986803117019,1.6991280242026314
1208,16.057883300999062,74.97680931630819,11.929290309168879,0.05851368345697423,1.6982110354032864
1209,16.071176250751545,74.97680931630819,11.917932260334878,0.05850936628640225,1.6966790169520172
1210,16.084469200504028,74.97680931630819,11.90170020327796,0.058486129652701085,1.6946692231150837
1211,16.09776215025651,74.97680931630819,11.881887821577477,0.05844617002647657,1.6923606668448337
1212,16.111055100008993,74.97680931630819,11.860125918445268,0.05839339616727716,1.6899617628206238
1213,16.124348049761476,74.97680931630819,11.838271656690443,0.05833319771019552,1.68769613283966
1214,16.13764099951396,74.97680931630819,11.818279961178607,0.058272061844076274,1.6857869335204128
1215,16.15093394926644,74.97680931630819,11.8020614776671,0.05821705075129308,1.6844401826049102
1216,16.164226899018924,74.97680931630819,11.79133406580367,0.05817517184788424,1.6838278111768732
1217,16.177519848771407,74.97680931630819,11.787476150321668,0.058152687259721225,1.6840715287336978
1218,16.19081279852389,74.97680931630819,11.791390036036416,0.05815442641798528,1.6852289555519882
1219,16.204105748276373,74.97680931630819,11.803386816131413,0.05818318429281556,1.687283693019939
1220,16.217398698028855,74.97680931630819,11.823110622769342,0.058239288777989735,1.6901409645726457
