,time,sample_rate,Red,Green,Blue
0,0.0,71.1960896928673,21.690912869262718,0.0868476956896384,1.7325022147791258
1,0.0132989018776948,71.1960896928673,21.739195427940302,0.08707352309118874,1.7371376961784253
2,0.0265978037553896,71.1960896928673,21.78171975282851,0.087271020241638,1.741256207837068
3,0.0398967056330844,71.1960896928673,21.81404573827339,0.08741851907745238,1.7444451515244264
4,0.0531956075107792,71.1960896928673,21.83400709686139,0.08750479395790167,1.7464773680349102
5,0.066494509388474,71.1960896928673,21.841811864383597,0.08752973013627623,1.7473235752697704
6,0.0797934112661688,71.1960896928673,21.839660915589345,0.0875027908406147,1.7471263242710469
7,0.0930923131438636,71.1960896928673,21.831102206622877,0.0874402237892536,1.7461524345972574
8,0.1063912150215584,71.1960896928673,21.820218471285543,0.0873615006918404,1.7447318522893849
9,0.1196901168992532,71.1960896928673,21.81073397604381,0.08728539502248292,1.7431893981721116
10,0.132989018776948,71.1960896928673,21.80523273844232,0.08722643587095609,1.7417829870160095
11,0.1462879206546428,71.1960896928673,21.804776566197553,0.08719280970346022,1.7406687938314025
12,0.1595868225323377,71.1960896928673,21.809060921447532,0.08718630584385162,1.7399040019074556
13,0.1728857244100325,71.1960896928673,21.816922667990067,0.08720379354089407,1.7394754911660055
14,0.1861846262877273,71.1960896928673,21.82688205656529,0.08723918540164584,1.739333128548539
15,0.1994835281654221,71.1960896928673,21.837530335421672,0.08728517580684873,1.7394145144428272
16,0.2127824300431169,71.1960896928673,21.847727310860357,0.08733450727807837,1.7396582920340369
17,0.2260813319208117,71.1960896928673,21.856641454157725,0.08738074693474265,1.740007884128501
18,0.2393802337985065,71.1960896928673,21.863687409844896,0.08741865509035737,1.7404092056067277
19,0.2526791356762013,71.1960896928673,21.868419620034523,0.08744427602720786,1.7408062822055201
20,0.2659780375538961,71.1960896928673,21.87043341416018,0.08745489193137879,1.7411382299590301
21,0.279276939431591,71.1960896928673,21.869311005926424,0.08744896404611555,1.7413400313879621
22,0.2925758413092857,71.1960896928673,21.86463219453228,0.08742614612230187,1.7413481979448329
23,0.3058747431869806,71.1960896928673,21.856050819168345,0.08738740181830454,1.7411109128115558
24,0.3191736450646754,71.1960896928673,21.843420738546676,0.08733519794746918,1.7406008482048045
25,0.3324725469423702,71.1960896928673,21.82694178855318,0.08727369193079056,1.7398279127529919
26,0.345771448820065,71.1960896928673,21.807288953500827,0.08720880255932849,1.7388488851886894
27,0.3590703506977598,71.1960896928673,21.78568821390601,0.08714805706785579,1.7377711398197337
28,0.3723692525754546,71.1960896928673,21.76391082720537,0.08710013953577218,1.7367484473881876
29,0.3856681544531494,71.1960896928673,21.744172757020205,0.08707412110783795,1.7359681422820803
30,0.3989670563308442,71.1960896928673,21.728941292559156,0.08707842549114023,1.7356305483954932
31,0.412265958208539,71.1960896928673,21.720663740284113,0.08711965681742066,1.7359230984825749
32,0.4255648600862338,71.1960896928673,21.72145039910499,0.08720147092764699,1.736992759969349
33,0.4388637619639287,71.1960896928673,21.732762510241837,0.08732369082918894,1.73892096109156
34,0.4521626638416234,71.1960896928673,21.75515924179846,0.08748184588173893,1.741705072233325
35,0.4654615657193183,71.1960896928673,21.788145416031746,0.08766725485125976,1.7452496566214364
36,0.4787604675970131,71.1960896928673,21.830145396154197,0.08786768679974287,1.7493693122625629
37,0.4920593694747079,71.1960896928673,21.878611265049418,0.08806853800102367,1.7538032289192058
38,0.5053582713524027,71.1960896928673,21.930254436019542,0.08825437629583548,1.7582398662365966
39,0.5186571732300975,71.1960896928673,21.981372105596623,0.08841064197615155,1.7623486941417967
40,0.5319560751077923,71.1960896928673,22.02822667163904,0.08852526652950475,1.7658149253927682
41,0.5452549769854872,71.1960896928673,22.06742930378408,0.0885899753382146,1.768372736916743
42,0.558553878863182,71.1960896928673,22.096279158305038,0.08860107691182147,1.7698325043127532
43,0.5718527807408768,71.1960896928673,22.11301679940623,0.08855964690070725,1.7700980800682575
44,0.5851516826185715,71.1960896928673,22.116962978979757,0.08847117090636358,1.769172304985806
45,0.5984505844962664,71.1960896928673,22.10853158497832,0.08834477293667369,1.767152384602946
46,0.6117494863739612,71.1960896928673,22.089125356062855,0.08819211570969754,1.7642176441342179
47,0.625048388251656,71.1960896928673,22.060937302572963,0.08802607898136587,1.760610367520719
48,0.6383472901293508,71.1960896928673,22.026687550736167,0.08785940060379827,1.7566106713320175
49,0.6516461920070457,71.1960896928673,21.989329784095176,0.08770347466347932,1.7525086566013828
50,0.6649450938847404,71.1960896928673,21.951763482058475,0.08756744267132775,1.7485778027439562
51,0.6782439957624352,71.1960896928673,21.916583735815625,0.0874576453113919,1.7450526355376181
52,0.69154289764013,71.1960896928673,21.885890939687254,0.08737743935867566,1.7421125847013936
53,0.7048417995178249,71.1960896928673,21.86117183018301,0.0873273332269808,1.7398729040516454
54,0.7181407013955197,71.1960896928673,21.843253126010133,0.08730536255092176,1.7383825732698142
55,0.7314396032732144,71.1960896928673,21.832320592544804,0.08730761589462951,1.7376283473747849
56,0.7447385051509092,71.1960896928673,21.827990463779496,0.08732882704393169,1.7375436112608285
57,0.7580374070286041,71.1960896928673,21.829416950717356,0.0873629677997665,1.7380204348631925
58,0.7713363089062989,71.1960896928673,21.83541880061651,0.08740379619793086,1.7389231789579616
59,0.7846352107839937,71.1960896928673,21.844609110386354,0.08744533351156583,1.7401021310367346
60,0.7979341126616885,71.1960896928673,21.85551538456226,0.08748225610574677,1.7414059163682971
61,0.8112330145393833,71.1960896928673,21.86668074833523,0.0875101952846865,1.7426917974057066
62,0.8245319164170781,71.1960896928673,21.876741862372253,0.08752594204955806,1.743833409056107
63,0.8378308182947729,71.1960896928673,21.884483931770664,0.08752755716367767,1.7447259308569154
64,0.8511297201724677,71.1960896928673,21.8888775981298,0.08751439228189574,1.7452891069230634
65,0.8644286220501626,71.1960896928673,21.88910566834962,0.08748703537927126,1.745468822520467
66,0.8777275239278574,71.1960896928673,21.88458879518823,0.08744720287739159,1.7452380634179996
67,0.8910264258055521,71.1960896928673,21.87501784400772,0.08739760819085672,1.7445979418651338
68,0.9043253276832468,71.1960896928673,21.860396687700145,0.08734182788462933,1.7435790819308745
69,0.9176242295609418,71.1960896928673,21.841093138742224,0.08728416227441727,1.7422431854320088
70,0.9309231314386366,71.1960896928673,21.817888880778625,0.08722947883872222,1.7406841564081945
71,0.9442220333163314,71.1960896928673,21.792013370719356,0.08718303670225254,1.7390277429960515
72,0.957520935194026,71.1960896928673,21.765143602665653,0.08715028178414898,1.7374283994200375
73,0.970819837071721,71.1960896928673,21.739353528610888,0.08713657997672226,1.7360621888286316
74,0.9841187389494158,71.1960896928673,21.717004149403515,0.08714685541509748,1.7351150770721588
75,0.9974176408271106,71.1960896928673,21.70057142200129,0.08718512536387932,1.7347668100954554
76,1.0107165427048057,71.1960896928673,21.692413299745617,0.08725395814604306,1.7351715726846135
77,1.0240154445825005,71.1960896928673,21.69449321513447,0.08735391764560085,1.73643758675251
78,1.037314346460195,71.1960896928673,21.708101757691225,0.08748308817195968,1.7386084951988576
79,1.0506132483378898,71.1960896928673,21.73362630566218,0.08763678682573936,1.741649604198261
80,1.0639121502155846,71.1960896928673,21.770407874825313,0.08780756052676053,1.7454417224984222
81,1.0772110520932794,71.1960896928673,21.816711571850288,0.08798553085751495,1.7497844580877944
82,1.0905099539709744,71.1960896928673,21.869823800068147,0.08815909733246088,1.7544095437913396
83,1.1038088558486692,71.1960896928673,21.926272266162318,0.08831594871706956,1.7590032834632605
84,1.117107757726364,71.1960896928673,21.982146653219587,0.08844427443801825,1.7632357973836432
85,1.1304066596040587,71.1960896928673,22.033482403908977,0.08853402497318758,1.7667936336190035
86,1.1437055614817535,71.1960896928673,22.076660043294968,0.08857804819195401,1.7694116816238181
87,1.1570044633594485,71.1960896928673,22.108769535524715,0.08857293279312593,1.7709001685125245
88,1.170303365237143,71.1960896928673,22.127893729757087,0.08851943185592924,1.7711628838717948
89,1.1836022671148378,71.1960896928673,22.133275748469096,0.08842241290908152,1.7702044507917885
90,1.1969011689925328,71.1960896928673,22.125350480418295,0.0882903446837152,1.7681271525314963
91,1.2102000708702276,71.1960896928673,22.105641188149455,0.08813437421332987,1.765118889598219
92,1.2234989727479224,71.1960896928673,22.076545138173962,0.08796710308233553,1.7614331184692433
93,1.2367978746256172,71.1960896928673,22.04104409028083,0.08780122849817971,1.75736222205633
94,1.250096776503312,71.1960896928673,22.00237479621188,0.0876482342816583,1.7532076147591205
95,1.2633956783810067,71.1960896928673,21.96369463841179,0.08751729633379252,1.7492505189869272
96,1.2766945802587015,71.1960896928673,21.927778980100054,0.08741452336801793,1.7457267023527332
97,1.2899934821363963,71.1960896928673,21.89678096569289,0.08734259684943065,1.7428075481528118
98,1.3032923840140913,71.1960896928673,21.872073047625392,0.08730081445502005,1.7405888698002971
99,1.316591285891786,71.1960896928673,21.854178269898977,0.08728548993931487,1.7390879402934019
100,1.3298901877694809,71.1960896928673,21.842790094282492,0.08729062680954998,1.7382484118324655
101,1.3431890896471756,71.1960896928673,21.836872611425747,0.08730876680008438,1.7379521954993948
102,1.3564879915248704,71.1960896928673,21.834828208833645,0.08733191488655781,1.7380369445951953
103,1.3697868934025652,71.1960896928673,21.834716442494123,0.0873524547327728,1.7383174819548834
104,1.38308579528026,71.1960896928673,21.834505139769995,0.08736398462293221,1.7386092694000033
105,1.3963846971579548,71.1960896928673,21.832332101167783,0.08736201774390565,1.7387518042220875
106,1.4096835990356498,71.1960896928673,21.82675322018743,0.08734449903243502,1.7386296628972413
107,1.4229825009133446,71.1960896928673,21.816951116862466,0.08731209492914367,1.7381888675157526
108,1.436281402791039,71.1960896928673,21.802878657120367,0.08726821702372546,1.7374464249239527
109,1.449580304668734,71.1960896928673,21.78531522723365,0.08721875341975667,1.7364913733103196
110,1.462879206546429,71.1960896928673,21.765821157917653,0.0871715068105297,1.7354764995757668
111,1.4761781084241237,71.1960896928673,21.746587151945075,0.08713536374841531,1.7346009899243775
112,1.4894770103018184,71.1960896928673,21.730190254217188,0.08711924311146237,1.7340855115831648
113,1.5027759121795132,71.1960896928673,21.719283444146857,0.08713092074619544,1.7341424592657853
114,1.5160748140572082,71.1960896928673,21.716255559914934,0.0871758900114163,1.734945101227485
115,1.529373715934903,71.1960896928673,21.722899941255033,0.08725643575995468,1.73659982576161
116,1.5426726178125978,71.1960896928673,21.74013334501472,0.08737106544102399,1.739125491846374
117,1.5559715196902926,71.1960896928673,21.767810376663398,0.0875143915202444,1.7424430825850534
118,1.5692704215679874,71.1960896928673,21.804668181019334,0.08767750215840521,1.746377551346013
119,1.582569323445682,71.1960896928673,21.848413017599686,0.08784878960450553,1.7506721088438468
120,1.595868225323377,71.1960896928673,21.895938559381136,0.08801513959890254,1.7550134743137555
121,1.609167127201072,71.1960896928673,21.94364874590866,0.08816333290867612,1.7590650676892232
122,1.6224660290787667,71.1960896928673,21.987844365739917,0.08828147995017448,1.7625039666657953
123,1.6357649309564617,71.1960896928673,22.02512406269518,0.08836030477797617,1.7650568501745802
124,1.6490638328341565,71.1960896928673,22.052748782017588,0.08839411547693052,1.7665300496150813
125,1.662362734711851,71.1960896928673,22.068923992629436,0.08838134442741727,1.7668292872639968
126,1.6756616365895458,71.1960896928673,22.072965094967977,0.08832460700224604,1.7659667177038216
127,1.6889605384672406,71.1960896928673,22.065326703402615,0.08823029144998719,1.764056177432272
128,1.7022594403449354,71.1960896928673,22.04749743718549,0.08810774662162643,1.7612987699749325
129,1.7155583422226304,71.1960896928673,22.021785125259214,0.08796818321087108,1.757959880132451
130,1.7288572441003252,71.1960896928673,21.991029398240606,0.08782344075218808,1.754339365263711
131,1.74215614597802,71.1960896928673,21.9582778120187,0.08768478142175919,1.7507389215529237
132,1.7554550478557147,71.1960896928673,21.926461805509273,0.08756185259695037,1.7474313303299809
133,1.7687539497334095,71.1960896928673,21.8981104884931,0.08746192225475306,1.7446353687774678
134,1.7820528516111045,71.1960896928673,21.875133908539866,0.08738944330391168,1.742498899886787
135,1.795351753488799,71.1960896928673,21.858694500981954,0.08734595390436575,1.7410913202463065
136,1.8086506553664936,71.1960896928673,21.849171972398207,0.08733027892156976,1.7404052341960572
137,1.8219495572441888,71.1960896928673,21.846215028348094,0.0873389680699357,1.7403661177124858
138,1.835248459121884,71.1960896928673,21.848864045615592,0.08736689073562198,1.7408479433497124
139,1.8485473609995784,71.1960896928673,21.8557227435361,0.08740790473586227,1.7416923098686483
140,1.8618462628772727,71.1960896928673,21.8651542737812,0.08745552347332959,1.7427285493114297
141,1.875145164754968,71.1960896928673,21.875477677330288,0.08750351972240361,1.7437925207351679
142,1.8884440666326627,71.1960896928673,21.885143818473093,0.08754642164618844,1.744742267455138
143,1.9017429685103573,71.1960896928673,21.89287499434908,0.08757987522937952,1.7454693241395542
144,1.9150418703880523,71.1960896928673,21.897758631546402,0.08760086526210903,1.7459051194488884
145,1.9283407722657475,71.1960896928673,21.89929197537254,0.08760780270911424,1.7460225434159977
146,1.941639674143442,71.1960896928673,21.89738063594749,0.08760049826098101,1.7458332652840378
147,1.9549385760211369,71.1960896928673,21.89229857483188,0.08758004886128591,1.7453817478722258
148,1.968237477898832,71.1960896928673,21.88462010180112,0.08754866536307354,1.744737086318826
149,1.9815363797765264,71.1960896928673,21.87513549598509,0.08750946545824406,1.7439838086115347
150,1.9948352816542207,71.1960896928673,21.864761081855104,0.08746624793305093,1.7432126427422274
151,2.008134183531916,71.1960896928673,21.854452385473145,0.08742325509777292,1.7425120389026532
152,2.021433085409611,71.1960896928673,21.84512598790559,0.08738492248840436,1.7419609842926567
153,2.034731987287305,71.1960896928673,21.837592588235818,0.08735560552944377,1.741623318334082
154,2.0480308891650005,71.1960896928673,21.832501254252932,0.08733926490539333,1.741543404639915
155,2.061329791042695,71.1960896928673,21.8302933806391,0.08733910364883579,1.7417429427671518
156,2.07462869292039,71.1960896928673,21.831164769158644,0.0873571779269074,1.742218910393411
157,2.087927594798085,71.1960896928673,21.83503547260697,0.0873940242488682,1.7429427365130457
158,2.10122649667578,71.1960896928673,21.84152946653916,0.08744835347233644,1.7438607839605775
159,2.1145253985534747,71.1960896928673,21.849969173851903,0.08751686868451206,1.744896294525727
160,2.127824300431169,71.1960896928673,21.85939107808436,0.08759426678871082,1.745953085009873
161,2.141123202308864,71.1960896928673,21.868587505204353,0.08767347429934234,1.7469213278133484
162,2.1544221041865588,71.1960896928673,21.87617963361054,0.08774614602927792,1.74768565494731
163,2.1677210060642538,71.1960896928673,21.880727301978936,0.08780342332452105,1.7481355746866636
164,2.1810199079419488,71.1960896928673,21.880876375534637,0.08783690908085398,1.7481777891827324
165,2.194318809819644,71.1960896928673,21.875534696482468,0.08783977400066469,1.747749492970056
166,2.2076177116973383,71.1960896928673,21.864058358318985,0.08780786789975321,1.7468312017059404
167,2.220916613575033,71.1960896928673,21.846423069481073,0.08774067881671448,1.7454572280500695
168,2.234215515452728,71.1960896928673,21.823351100211603,0.08764196938935366,1.7437217226493749
169,2.2475144173304225,71.1960896928673,21.796364436822902,0.08751993337788103,1.7417783519842505
170,2.260813319208117,71.1960896928673,21.767740625074374,0.08738676852061948,1.7398322583643813
171,2.274112221085812,71.1960896928673,21.740359434018078,0.08725765193331059,1.7381239238210378
172,2.287411122963507,71.1960896928673,21.717444645504713,0.08714919251989175,1.7369058223242517
173,2.300710024841202,71.1960896928673,21.70222341081025,0.08707750555286005,1.736414085403372
174,2.314008926718897,71.1960896928673,21.697542301175957,0.0870561371128342,1.7368385607568768
175,2.327307828596592,71.1960896928673,21.705490870293666,0.08709414145287953,1.7382953492606068
176,2.340606730474286,71.1960896928673,21.727087414774005,0.08719461940485825,1.7408059670749683
177,2.353905632351981,71.1960896928673,21.762076274022178,0.08735395753468421,1.7442866213140766
178,2.367204534229676,71.1960896928673,21.80887189780695,0.0875619048554688,1.7485497821315206
179,2.3805034361073707,71.1960896928673,21.864664252592497,0.087802504390688,1.7533184901845316
180,2.3938023379850657,71.1960896928673,21.92567646755912,0.08805577175025939,1.7582519582363456
181,2.4071012398627603,71.1960896928673,21.987543031523753,0.08829990159363113,1.7629793393937252
182,2.420400141740456,71.1960896928673,22.045759183196306,0.08851370352103942,1.7671373319575725
183,2.43369904361815,71.1960896928673,22.09614228546032,0.08867893061862972,1.7704067687602434
184,2.446997945495845,71.1960896928673,22.135245377228557,0.08878217412534675,1.7725435563224663
185,2.46029684737354,71.1960896928673,22.160671607871357,0.08881608328879137,1.773400232529223
186,2.4735957492512344,71.1960896928673,22.171253651795375,0.08877981628855873,1.7729359344552156
187,2.486894651128929,71.1960896928673,22.16708180715721,0.08867873891406572,1.7712144390323876
188,2.500193553006624,71.1960896928673,22.149389348927915,0.08852344207836892,1.7683915653095295
189,2.513492454884319,71.1960896928673,22.12032949038121,0.08832823290051078,1.7646943406616498
190,2.526791356762013,71.1960896928673,22.08268896787587,0.0881093522504564,1.7603951368672726
191,2.5400902586397085,71.1960896928673,22.039577410241684,0.08788319779099459,1.7557843842470802
192,2.553389160517403,71.1960896928673,21.99412689157559,0.08766478567699854,1.7511451973588668
193,2.566688062395098,71.1960896928673,21.94923419617535,0.08746660796779397,1.7467324163654838
194,2.5799869642727926,71.1960896928673,21.907368904470946,0.0872979562167735,1.742757503490088
195,2.593285866150488,71.1960896928673,21.87045578081484,0.08716469959482166,1.7393796706956894
196,2.6065847680281826,71.1960896928673,21.83982746206694,0.08706944253865047,1.736702737074371
197,2.619883669905877,71.1960896928673,21.816235146147523,0.08701195004681395,1.7347766450404731
198,2.633182571783572,71.1960896928673,21.799900969077218,0.0869897195905904,1.7336023343829259
199,2.6464814736612667,71.1960896928673,21.790595624269617,0.08699859257916652,1.7331387313267683
200,2.6597803755389617,71.1960896928673,21.787727336637438,0.08703332704606365,1.7333108486675612
201,2.6730792774166563,71.1960896928673,21.790432110884055,0.08708808696027752,1.7340182875844392
202,2.686378179294352,71.1960896928673,21.797658903864818,0.08715683359836277,1.7351436770209039
203,2.6996770811720463,71.1960896928673,21.808246156338615,0.0872336250650814,1.736560726109175
204,2.712975983049741,71.1960896928673,21.8209877012221,0.08731283960785216,1.7381416015135287
205,2.726274884927436,71.1960896928673,21.834686751729034,0.08738933969214888,1.739763326360932
206,2.7395737868051304,71.1960896928673,21.848197115341886,0.08745859116629358,1.7413129051906826
207,2.7528726886828254,71.1960896928673,21.86045164847452,0.08751674390521287,1.74269097320717
208,2.76617159056052,71.1960896928673,21.87047963246139,0.08756067145350237,1.7438139758400042
209,2.779470492438215,71.1960896928673,21.877417084958488,0.0875879757438007,1.7446151729358015
210,2.792769394315909,71.1960896928673,21.880516382130622,0.08759698585009636,1.7450450103117383
211,2.8060682961936045,71.1960896928673,21.879162992696838,0.08758678795490424,1.7450715151631566
212,2.8193671980712995,71.1960896928673,21.87290665674338,0.0875573118856267,1.7446813797466314
213,2.832666099948994,71.1960896928673,21.86151139422587,0.08750948253770395,1.743882251950781
214,2.845965001826689,71.1960896928673,21.845023380170502,0.08744542356633953,1.7427063114845123
215,2.859263903704384,71.1960896928673,21.823848835112976,0.08736867377364962,1.7412145605966822
216,2.8725628055820787,71.1960896928673,21.79882722755942,0.08728435064449384,1.7395006551031924
217,2.885861707459773,71.1960896928673,21.77128017297384,0.08719917975630279,1.7376927107574864
218,2.899160609337468,71.1960896928673,21.74301572869371,0.08712131061520548,1.7359514409695511
219,2.912459511215163,71.1960896928673,21.716272227688908,0.08705986271792665,1.7344632968225193
220,2.925758413092858,71.1960896928673,21.693591039194725,0.08702418908419972,1.733427992165675
221,2.939057314970553,71.1960896928673,21.677613223342256,0.08702290150655223,1.7330408057762636
222,2.952356216848248,71.1960896928673,21.670811143935452,0.08706276121737702,1.7334711754924537
223,2.9656551187259423,71.1960896928673,21.67518960609479,0.0871475872529693,1.7348401040894057
224,2.978954020603637,71.1960896928673,21.692002394331592,0.08727736005402552,1.7371995565708835
225,2.992252922481332,71.1960896928673,21.721526656883626,0.08744769140438903,1.740517175389948
226,3.0055518243590265,71.1960896928673,21.76293064007816,0.0876497917322691,1.7446692050777328
227,3.018850726236721,71.1960896928673,21.814260708629373,0.08787099738231226,1.7494435469932546
228,3.0321496281144165,71.1960896928673,21.87255854215123,0.08809583518340211,1.754553508120886
229,3.045448529992111,71.1960896928673,21.934101202076953,0.08830751467994115,1.7596612840604102
230,3.058747431869806,71.1960896928673,21.99473896845329,0.08848966475074369,1.7644087714395884
231,3.0720463337475006,71.1960896928673,22.050291401362923,0.08862808386430489,1.7684521516744358
232,3.085345235625196,71.1960896928673,22.096953367933025,0.08871225178214359,1.771495996645372
233,3.09864413750289,71.1960896928673,22.131661120514533,0.08873636111393378,1.7733223264440563
234,3.111943039380585,71.1960896928673,22.152374093305585,0.08869973704681781,1.7738102021641988
235,3.12524194125828,71.1960896928673,22.158239398461898,0.08860670293808177,1.7729436249676112
236,3.1385408431359747,71.1960896928673,22.14962126095773,0.08846600560750419,1.7708093566756
237,3.1518397450136697,71.1960896928673,22.12799843867551,0.08828982700323894,1.7675870228416417
238,3.1651386468913643,71.1960896928673,22.095755593995325,0.08809243533504475,1.7635313914486708
239,3.17843754876906,71.1960896928673,22.05590524454385,0.08788866532770939,1.758947008955431
240,3.191736450646754,71.1960896928673,22.01177394942593,0.08769246300408173,1.754158400637289
241,3.205035352524449,71.1960896928673,21.966685350840425,0.08751567958051867,1.7494802222938213
242,3.218334254402144,71.1960896928673,21.923674448820456,0.08736723223924417,1.7451909202998424
243,3.2316331562798384,71.1960896928673,21.885261638460605,0.0872526822650151,1.7415123901335683
244,3.2449320581575334,71.1960896928673,21.853302993190674,0.0871742168218189,1.7385970822839742
245,3.258230960035228,71.1960896928673,21.828921353589273,0.08713096924190043,1.7365229671454847
246,3.271529861912923,71.1960896928673,21.812512871119285,0.0871195798796243,1.7352958660302444
247,3.284828763790617,71.1960896928673,21.803816292523937,0.08713488745584344,1.7348579518028522
248,3.2981276656683125,71.1960896928673,21.802027807251594,0.08717064727309715,1.735100754250846
249,3.311426567546007,71.1960896928673,21.805942521480397,0.08722019259006442,1.7358807704440973
250,3.324725469423702,71.1960896928673,21.814104126048846,0.08727698238916032,1.737035760940874
251,3.338024371301397,71.1960896928673,21.824946588051446,0.08733500686974116,1.7383999868281987
252,3.351323273179092,71.1960896928673,21.836915291504887,0.08738904712390376,1.7398169879820262
253,3.364622175056786,71.1960896928673,21.84855964112453,0.08743480552428877,1.741148990556098
254,3.377921076934481,71.1960896928673,21.85859437709943,0.08746893778262836,1.7422826147692356
255,3.391219978812176,71.1960896928673,21.865932244700165,0.08748902636056594,1.7431311623717025
256,3.4045188806898707,71.1960896928673,21.86969552512839,0.08749353764179689,1.743634303505585
257,3.4178177825675657,71.1960896928673,21.869217393327403,0.0874818013035362,1.7437563723584266
258,3.4311166844452607,71.1960896928673,21.864045250021167,0.08745403895093758,1.743484626937216
259,3.444415586322956,71.1960896928673,21.85395646151506,0.08741145065526709,1.7428285308401383
260,3.4577144882006503,71.1960896928673,21.83899224668986,0.08735634487577208,1.7418204128829804
261,3.471013390078345,71.1960896928673,21.819508404583015,0.08729227329127648,1.7405172716266875
262,3.48431229195604,71.1960896928673,21.79623357877839,0.08722411237316567,1.7390031442157128
263,3.4976111938337344,71.1960896928673,21.770318710111514,0.0871580239396548,1.7373909316238063
264,3.510910095711429,71.1960896928673,21.74335777745882,0.08710123248964259,1.7358220191048295
265,3.524208997589124,71.1960896928673,21.717361264464376,0.08706157994835749,1.7344620056863669
266,3.537507899466819,71.1960896928673,21.6946663283479,0.08704685673828932,1.7334914209173187
267,3.550806801344514,71.1960896928673,21.677771536087075,0.08706395588416171,1.7330912423215679
268,3.5641057032222085,71.1960896928673,21.669099878614965,0.08711794480251285,1.733424163099164
269,3.5774046050999035,71.1960896928673,21.67071854229911,0.08721118654569114,1.7346136815195918
270,3.590703506977598,71.1960896928673,21.684057708002936,0.08734265859268665,1.7367239367998926
271,3.604002408855293,71.1960896928673,21.70967032758957,0.0875076064476173,1.7397435870373883
272,3.617301310732988,71.1960896928673,21.747070917290046,0.08769763047937977,1.743576791642513
273,3.630600212610682,71.1960896928673,21.794684166470056,0.08790124290099409,1.7480435290118608
274,3.6438991144883777,71.1960896928673,21.849920348374983,0.08810485803649687,1.7528901823449474
275,3.657198016366072,71.1960896928673,21.909376374877123,0.088294106643088,1.757809791096942
276,3.6704969182437672,71.1960896928673,21.96914257502951,0.08845530724187334,1.7624698661718405
277,3.683795820121462,71.1960896928673,22.025179149756006,0.08857689497829131,1.7665444577067084
278,3.697094721999157,71.1960896928673,22.07371548805597,0.08865060059327498,1.7697464424907658
279,3.7103936238768513,71.1960896928673,22.11162173108369,0.08867219168512258,1.7718557886592898
280,3.7236925257545455,71.1960896928673,22.136705598714226,0.0886416884045545,1.7727399025373896
281,3.736991427632241,71.1960896928673,22.147896742843095,0.08856312709686924,1.7723636861368333
282,3.750290329509936,71.1960896928673,22.14529444934711,0.08844399130828595,1.770789365894642
283,3.763589231387631,71.1960896928673,22.13007893717401,0.08829435153737009,1.768167300317153
284,3.7768881332653255,71.1960896928673,22.10431761013137,0.08812576619777134,1.7647186523298237
285,3.790187035143021,71.1960896928673,22.07070728004608,0.08795009615930402,1.760711497645748
286,3.803485937020715,71.1960896928673,22.032280218694705,0.08777841131918575,1.7564335476468191
287,3.81678483889841,71.1960896928673,21.99209951129985,0.0876201177304654,1.7521651804073526
288,3.8300837407761046,71.1960896928673,21.952978624826567,0.08748237593264313,1.7481558562379031
289,3.8433826426538,71.1960896928673,21.917257524573092,0.08736982855449664,1.7446060911985488
290,3.856681544531495,71.1960896928673,21.88665403532656,0.08728461019825123,1.7416561887018165
291,3.869980446409189,71.1960896928673,21.862195929509284,0.08722658147745041,1.7393819775327515
292,3.883279348286884,71.1960896928673,21.8442288518772,0.08719371443923261,1.7377970095436919
293,3.896578250164578,71.1960896928673,21.832487761984822,0.08718255779041706,1.7368601042458722
294,3.9098771520422737,71.1960896928673,21.82621540157926,0.0871887233220408,1.73648680771013
295,3.923176053919968,71.1960896928673,21.824309934561715,0.08720735355849164,1.7365632268334374
296,3.9364749557976633,71.1960896928673,21.82548459531036,0.0872335484943655,1.7369607473928275
297,3.9497738576753583,71.1960896928673,21.828424050358418,0.08726274143350633,1.7375502829538285
298,3.963072759553053,71.1960896928673,21.83192453611439,0.08729101839486535,1.7382148860008957
299,3.976371661430748,71.1960896928673,21.835007301932926,0.08731537344440014,1.7388597625020017
300,3.9896705633084415,71.1960896928673,21.836997399147336,0.08733388713394172,1.739418968533124
301,4.002969465186137,71.1960896928673,21.837562548423612,0.08734581123779102,1.7398583443310556
302,4.016268367063832,71.1960896928673,21.83670985945327,0.08735154363562209,1.7401745638042194
303,4.029567268941527,71.1960896928673,21.834741627377046,0.08735248402719945,1.7403905364955872
304,4.042866170819222,71.1960896928673,21.832175166205463,0.08735077405524007,1.7405477673069636
305,4.056165072696917,71.1960896928673,21.8296353678343,0.08734894196482543,1.7406966154435735
306,4.069463974574611,71.1960896928673,21.827732002231457,0.08734948525316302,1.7408856439584754
307,4.082762876452306,71.1960896928673,21.826936288470744,0.08735443268995896,1.741151381710712
308,4.096061778330001,71.1960896928673,21.82747259630463,0.08736493863046532,1.7415098401829356
309,4.109360680207696,71.1960896928673,21.829240987112573,0.08738097577709376,1.7419510294429454
310,4.12265958208539,71.1960896928673,21.831784435505995,0.08740119089597716,1.742437459337663
311,4.135958483963085,71.1960896928673,21.83431095494244,0.08742296989600194,1.7429071994830423
312,4.14925738584078,71.1960896928673,21.83577540392986,0.08744273433333699,1.7432815489491023
313,4.162556287718475,71.1960896928673,21.83501763066374,0.08745646141386604,1.7434767619626095
314,4.17585518959617,71.1960896928673,21.83094353861745,0.08746038203118374,1.7434186282059851
315,4.189154091473864,71.1960896928673,21.822727563287433,0.08745177114558085,1.7430580949055718
316,4.202452993351559,71.1960896928673,21.810010274010153,0.08742971029404316,1.7423856523882035
317,4.215751895229254,71.1960896928673,21.793060997374557,0.08739568267023004,1.741442006083232
318,4.229050797106949,71.1960896928673,21.772873957023307,0.08735386540891404,1.7403227318068044
319,4.242349698984643,71.1960896928673,21.751171375879807,0.08731101572856267,1.739175213533024
320,4.255648600862338,71.1960896928673,21.730298490863042,0.08727590544290403,1.7381871693671367
321,4.268947502740033,71.1960896928673,21.713011275921826,0.0872583333750748,1.7375673621485874
322,4.282246404617728,71.1960896928673,21.70217545788235,0.08726782370899445,1.7375204595304874
323,4.295545306495423,71.1960896928673,21.70041209015021,0.08731218479876081,1.73821919712136
324,4.3088442083731175,71.1960896928673,21.70973716579162,0.08739614375346041,1.7397777549948574
325,4.3221431102508125,71.1960896928673,21.731247755646187,0.08752027826738243,1.7422303970224293
326,4.335442012128508,71.1960896928673,21.76490349011227,0.08768043596914211,1.7455188746169785
327,4.3487409140062026,71.1960896928673,21.80944010407642,0.0878677667274897,1.7494909296435512
328,4.3620398158838976,71.1960896928673,21.86243314794726,0.08806940417910711,1.7539106380723097
329,4.375338717761592,71.1960896928673,21.920508006220704,0.0882697328396844,1.7584795903837693
330,4.388637619639287,71.1960896928673,21.979670813952307,0.08845208225541379,1.7628663042358983
331,4.401936521516982,71.1960896928673,22.035717309626204,0.08860061603021353,1.766740063937312
332,4.415235423394677,71.1960896928673,22.084665902445174,0.08870213995815883,1.7698047599158016
333,4.428534325272371,71.1960896928673,22.123158693221882,0.08874755047564487,1.7718282403164713
334,4.441833227150066,71.1960896928673,22.14877993955454,0.08873272611095957,1.7726631992970963
335,4.455132129027761,71.1960896928673,22.160252734110472,0.08865881553628138,1.7722574150769361
336,4.468431030905456,71.1960896928673,22.157489729857804,0.08853195810279246,1.7706538898705828
337,4.481729932783151,71.1960896928673,22.141502110015967,0.0883624694709009,1.767982563151102
338,4.495028834660845,71.1960896928673,22.114207663136817,0.08816358299731199,1.7644445812037477
339,4.50832773653854,71.1960896928673,22.078185940098376,0.08794994740099313,1.7602905681129533
340,4.521626638416235,71.1960896928673,22.036405200988067,0.08773611707738872,1.755795917497691
341,4.53492554029393,71.1960896928673,21.99193952841891,0.08753523153257395,1.7512365076297671
342,4.548224442171624,71.1960896928673,21.947707042655427,0.0873580190882982,1.7468674380068625
343,4.561523344049319,71.1960896928673,21.906258663573308,0.0872121929202537,1.7429064120073663
344,4.574822245927014,71.1960896928673,21.869632196327263,0.08710224238980376,1.7395224914379301
345,4.588121147804709,71.1960896928673,21.839273734438983,0.08702956955852248,1.7368301911333004
346,4.601420049682404,71.1960896928673,21.81601986576749,0.08699288563234875,1.7348883598951907
347,4.614718951560098,71.1960896928673,21.800129184160802,0.08698876703812763,1.7337030204529398
348,4.628017853437793,71.1960896928673,21.79134990858,0.08701227426529301,1.7332332711110396
349,4.641316755315488,71.1960896928673,21.789011015858716,0.08705755395152404,1.7333994025570794
350,4.654615657193183,71.1960896928673,21.792126077600457,0.08711836962059177,1.7340924682194971
351,4.667914559070877,71.1960896928673,21.799500933450883,0.08718853236139433,1.7351846034390572
352,4.681213460948572,71.1960896928673,21.80983780518838,0.08726222417502716,1.7365393970552432
353,4.694512362826267,71.1960896928673,21.821829343465517,0.08733422077645417,1.7380216011121246
354,4.707811264703962,71.1960896928673,21.834236745912342,0.08740002731562316,1.7395054718425678
355,4.721110166581657,71.1960896928673,21.84594708815078,0.08745594220026025,1.7408811253865253
356,4.734409068459351,71.1960896928673,21.856006924521505,0.08749906442411157,1.742058504171843
357,4.747707970337046,71.1960896928673,21.86363227805265,0.08752726142919666,1.7429688845841795
358,4.761006872214741,71.1960896928673,21.868199087870135,0.08753911835446576,1.7435642810928829
359,4.774305774092436,71.1960896928673,21.869222252050367,0.08753389327163413,1.743815525092573
360,4.787604675970131,71.1960896928673,21.86633449763346,0.08751150356117914,1.7437099967498608
361,4.8009035778478255,71.1960896928673,21.859277300892447,0.08747256455293428,1.7432498873633313
362,4.8142024797255205,71.1960896928673,21.847914165776295,0.08741849092155039,1.7424517400460633
363,4.827501381603216,71.1960896928673,21.83227157121807,0.08735165196613817,1.7413478528771051
364,4.840800283480911,71.1960896928673,21.812605435276,0.08727554730572366,1.739989555648821
365,4.854099185358605,71.1960896928673,21.789482455019872,0.08719494745634838,1.7384515087286871
366,4.8673980872363,71.1960896928673,21.763858111062298,0.08711593080351022,1.7368355093107979
367,4.880696989113995,71.1960896928673,21.73712916665163,0.08704574938913692,1.7352720011604912
368,4.89399589099169,71.1960896928673,21.711139541779122,0.08699247351851111,1.7339175681629777
369,4.907294792869385,71.1960896928673,21.68811994181567,0.08696439871599662,1.732947187179708
370,4.920593694747079,71.1960896928673,21.670543983551827,0.08696924324711831,1.732540887430281
371,4.933892596624774,71.1960896928673,21.660900211851757,0.08701321226043586,1.7328655721099744
372,4.947191498502469,71.1960896928673,21.661407344794153,0.08710004585259855,1.734053894250833
373,4.960490400380164,71.1960896928673,21.673715798433143,0.08723019363995846,1.7361830037934647
374,4.973789302257858,71.1960896928673,21.698638675085345,0.08740026077207243,1.7392564804499826
375,4.987088204135553,71.1960896928673,21.73595284801699,0.08760284681498376,1.7431926953283314
376,5.000387106013248,71.1960896928673,21.78430554737353,0.08782685144662136,1.7478221721733789
377,5.013686007890943,71.1960896928673,21.84124935738622,0.08805825598734338,1.7528953369896767
378,5.026984909768638,71.1960896928673,21.90341066737468,0.08828131767621639,1.7581005473633917
379,5.040283811646332,71.1960896928673,21.966777087984664,0.08848004643280523,1.7630907383243601
380,5.053582713524027,71.1960896928673,22.027071494644034,0.0886397837498384,1.7675156745260872
381,5.066881615401722,71.1960896928673,22.080167210783056,0.08874867832616591,1.7710558853082872
382,5.080180517279417,71.1960896928673,22.122492369241673,0.08879885899644195,1.7734539710012007
383,5.093479419157112,71.1960896928673,22.15137257058242,0.08878715650579808,1.7745391753374788
384,5.106778321034806,71.1960896928673,22.16526767698692,0.08871531251246167,1.7742423358456134
385,5.120077222912501,71.1960896928673,22.163870097271722,0.08858968336119336,1.772600331058396
386,5.133376124790196,71.1960896928673,22.1480589929392,0.08842048489993684,1.769750396030836
387,5.146675026667891,71.1960896928673,22.11974270973769,0.08822067697569903,1.765914973881686
388,5.159973928545585,71.1960896928673,22.081630843641435,0.08800464464662598,1.7613787036137323
389,5.17327283042328,71.1960896928673,22.036956391788348,0.08778685252153562,1.7564605941424913
390,5.186571732300975,71.1960896928673,21.98916615383441,0.08758062866440892,1.7514850026526012
391,5.19987063417867,71.1960896928673,21.941614974127504,0.08739719589950971,1.7467546745691531
392,5.213169536056365,71.1960896928673,21.897301103118718,0.08724501997752979,1.7425283868833217
393,5.226468437934059,71.1960896928673,21.858666144653796,0.08712949296865209,1.7390048406162346
394,5.239767339811754,71.1960896928673,21.827469302400964,0.0870529246398448,1.7363134849846804
395,5.253066241689449,71.1960896928673,21.804734741832824,0.08701478088952223,1.734512080231551
396,5.266365143567144,71.1960896928673,21.790762757057916,0.08701209051855979,1.733590129388652
397,5.279664045444839,71.1960896928673,21.785190709338313,0.08703994043334526,1.7334768903715152
398,5.2929629473225335,71.1960896928673,21.787088204608107,0.08709199224958045,1.7340525197569865
399,5.3062618492002285,71.1960896928673,21.79507210208698,0.08716097506391512,1.7351609553941683
400,5.319560751077924,71.1960896928673,21.807429806096337,0.08723913355101522,1.7366233508742515
401,5.3328596529556185,71.1960896928673,21.82224296560709,0.08731863163541956,1.7382511629476205
402,5.346158554833313,71.1960896928673,21.837507392300424,0.08739192570049543,1.7398583058669885
403,5.359457456711008,71.1960896928673,21.851248098456647,0.08745212599965846,1.7412720798265848
404,5.372756358588703,71.1960896928673,21.861630409947637,0.08749336121982772,1.742342817694885
405,5.386055260466398,71.1960896928673,21.867068807745593,0.08751115098476017,1.7429523411258538
406,5.399354162344093,71.1960896928673,21.86633428500105,0.0875027769054049,1.7430213444577543
407,5.412653064221787,71.1960896928673,21.858658541017547,0.08746762686236366,1.7425157144225656
408,5.425951966099482,71.1960896928673,21.843829529977217,0.0874074720546442,1.7414515724272288
409,5.439250867977177,71.1960896928673,21.822268424292655,0.08732662435071861,1.739898534809964
410,5.452549769854872,71.1960896928673,21.795074061146824,0.08723191302926081,1.7379802616729325
411,5.465848671732566,71.1960896928673,21.764018914709133,0.08713241942518368,1.7358709501902998
412,5.479147573610261,71.1960896928673,21.731481984187127,0.08703892692584628,1.7337865770810856
413,5.492446475487956,71.1960896928673,21.70031059976887,0.08696308343530157,1.7319704743176403
414,5.505745377365651,71.1960896928673,21.67361453450744,0.08691632053875062,1.7306736423951017
415,5.519044279243346,71.1960896928673,21.65450224309378,0.08690862111309826,1.7301309561143559
416,5.53234318112104,71.1960896928673,21.64576948514741,0.08694727246948121,1.7305353436447395
417,5.545642082998735,71.1960896928673,21.649565936740064,0.08703577351314114,1.7320129045898518
418,5.55894098487643,71.1960896928673,21.66709225522911,0.08717306869398925,1.7346023935771187
419,5.572239886754125,71.1960896928673,21.698384132260642,0.0873532535218211,1.7382423690556323
420,5.585538788631819,71.1960896928673,21.742219797276196,0.08756583865755786,1.7427685726078672
421,5.598837690509514,71.1960896928673,21.796167713394407,0.08779658130432409,1.7479228544800944
422,5.612136592387209,71.1960896928673,21.856775101505782,0.0880288078464148,1.7533733984373367
423,5.625435494264904,71.1960896928673,21.919879836255237,0.0882450757933372,1.7587443856381277
424,5.638734396142599,71.1960896928673,21.98101092815881,0.08842896891584419,1.7636518415255449
425,5.652033298020293,71.1960896928673,22.035830093903286,0.08856679556541147,1.7677414433931093
426,5.665332199897988,71.1960896928673,22.080560871367066,0.08864896442484319,1.770723670078585
427,5.678631101775683,71.1960896928673,22.112353241778678,0.08867084440003097,1.7724017504529317
428,5.691930003653378,71.1960896928673,22.12954040880731,0.08863301370967178,1.772688438334257
429,5.705228905531072,71.1960896928673,22.131757736892656,0.08854095075937207,1.7716098539956848
430,5.718527807408767,71.1960896928673,22.119909995770556,0.08840427948332476,1.769298113480422
431,5.731826709286462,71.1960896928673,22.095998078833166,0.08823564514335895,1.765975440150756
432,5.745125611164157,71.1960896928673,22.06284619549246,0.08804932149120995,1.7619307775623534
433,5.758424513041852,71.1960896928673,22.023778090139583,0.08785973389374328,1.7574902294634596
434,5.771723414919546,71.1960896928673,21.982275333378745,0.08768010090752186,1.7529849312466375
435,5.785022316797241,71.1960896928673,21.94164556405345,0.08752134772173806,1.748720665831482
436,5.798321218674936,71.1960896928673,21.904735249544302,0.0873913828254481,1.744952594277103
437,5.811620120552631,71.1960896928673,21.873717082775954,0.08729476793609577,1.741867313106979
438,5.824919022430326,71.1960896928673,21.84996752870339,0.08723275634491152,1.739573329349295
439,5.838217924308021,71.1960896928673,21.83403635165577,0.08720363453007866,1.7380999803956632
440,5.851516826185716,71.1960896928673,21.825699371938523,0.08720327985893703,1.737403940598255
441,5.864815728063411,71.1960896928673,21.82407816132724,0.08722584295519305,1.7373818083796038
442,5.878114629941106,71.1960896928673,21.82780613314026,0.08726447251114887,1.7378868750440684
443,5.8914135318188,71.1960896928673,21.83521914089657,0.08731201666585246,1.7387480205360855
444,5.904712433696495,71.1960896928673,21.844549675987444,0.08736165247712083,1.7397887263211387
445,5.91801133557419,71.1960896928673,21.85410638895204,0.08740740952911397,1.7408444036686945
446,5.931310237451885,71.1960896928673,21.862424393212684,0.08744456430704506,1.7417765743196483
447,5.94460913932958,71.1960896928673,21.86837622762726,0.08746989009576525,1.7424828800823582
448,5.957908041207274,71.1960896928673,21.871238126816955,0.0874817553855425,1.742902404022647
449,5.971206943084969,71.1960896928673,21.87071104455476,0.08748007412385135,1.7430163132200178
450,5.984505844962664,71.1960896928673,21.86690029765272,0.0874661239341981,1.7428443244714136
451,5.997804746840359,71.1960896928673,21.860261290394277,0.08744226191345106,1.7424378885185647
452,6.011103648718053,71.1960896928673,21.851521114627573,0.08741157872188221,1.7418712328056887
453,6.024402550595748,71.1960896928673,21.841586622507336,0.08737753714091283,1.7412314711547194
454,6.037701452473443,71.1960896928673,21.831448823753966,0.0873436389201271,1.7406088860957043
455,6.051000354351138,71.1960896928673,21.82209145999642,0.08731315341319504,1.740088289905539
456,6.064299256228833,71.1960896928673,21.814408910912046,0.08728892504384975,1.7397421214380409
457,6.077598158106527,71.1960896928673,21.80913588866201,0.0872732568343516,1.7396254075282809
458,6.090897059984222,71.1960896928673,21.80678935135444,0.08726784872277621,1.7397720209639909
459,6.104195961861917,71.1960896928673,21.807622222158855,0.08727375895244824,1.7401916955620453
460,6.117494863739612,71.1960896928673,21.811589019939227,0.08729135777296153,1.740868004455125
461,6.130793765617307,71.1960896928673,21.818325500719464,0.08732025330603681,1.7417577944240314
462,6.144092667495001,71.1960896928673,21.827147200355746,0.08735918824804575,1.7427923173048236
463,6.157391569372696,71.1960896928673,21.837071976557056,0.08740593100899993,1.7438802759475718
464,6.170690471250391,71.1960896928673,21.846868766521606,0.08745720921420905,1.7449131636909412
465,6.183989373128086,71.1960896928673,21.855135259133217,0.08750874853747709,1.7457732477912884
466,6.19728827500578,71.1960896928673,21.860410349751024,0.08755547874189208,1.7463442765881927
467,6.210587176883475,71.1960896928673,21.86132321885453,0.08759194811953676,1.746524524698167
468,6.22388607876117,71.1960896928673,21.856769943474422,0.08761294851399196,1.746241194659839
469,6.237184980638865,71.1960896928673,21.846098981966247,0.0876143021981092,1.7454645803354583
470,6.25048388251656,71.1960896928673,21.829280566163625,0.08759370953431182,1.7442199087454342
471,6.263782784394254,71.1960896928673,21.80703119820109,0.08755151491504748,1.742594561215844
472,6.277081686271949,71.1960896928673,21.780864652666125,0.08749122952574294,1.7407385538484603
473,6.290380588149644,71.1960896928673,21.753046575619837,0.0874196611929324,1.7388567925330263
474,6.303679490027339,71.1960896928673,21.72644108272537,0.08734654674720628,1.737192680135618
475,6.3169783919050335,71.1960896928673,21.70425353869785,0.0872836569631164,1.7360040108104096
476,6.3302772937827285,71.1960896928673,21.689691504226506,0.08724343723598467,1.7355335135559096
477,6.343576195660424,71.1960896928673,21.685582346141604,0.08723734189530541,1.7359776243948863
478,6.356875097538119,71.1960896928673,21.693997730936683,0.08727409671297702,1.7374577994253138
479,6.3701739994158135,71.1960896928673,21.71593933265858,0.08735816448176696,1.7399987281661962
480,6.383472901293508,71.1960896928673,21.751135142956883,0.08748868046023985,1.7435170960431072
481,6.396771803171203,71.1960896928673,21.797982118767486,0.08765906574737384,1.7478231597549638
482,6.410070705048898,71.1960896928673,21.85365063186704,0.0878574258700764,1.7526355650640306
483,6.423369606926593,71.1960896928673,21.91434268276192,0.08806771677624889,1.7576078720214006
484,6.436668508804288,71.1960896928673,21.975673094368105,0.08827153329921147,1.76236350142287
485,6.449967410681982,71.1960896928673,22.033124721046693,0.0884502688777736,1.7665345727659023
486,6.463266312559677,71.1960896928673,22.08251807490552,0.08858732186800299,1.7697995663332249
487,6.476565214437372,71.1960896928673,22.120434270993783,0.08866999781972278,1.771914927776563
488,6.489864116315067,71.1960896928673,22.144537895198965,0.08869083981574817,1.7727366030254514
489,6.503163018192761,71.1960896928673,22.15376089414926,0.08864829461555772,1.7722293147884702
490,6.516461920070456,71.1960896928673,22.148327508875703,0.08854671084958264,1.7704638392421583
491,6.529760821948151,71.1960896928673,22.12962797308061,0.0883956496613468,1.7676040512309554
492,6.543059723825846,71.1960896928673,22.099980306444895,0.0882085687050054,1.7638858287304096
493,6.556358625703541,71.1960896928673,22.06232976227098,0.08800110336064472,1.7595905472965025
494,6.569657527581235,71.1960896928673,22.019922991016134,0.08778924019280639,1.755016795556189
495,6.58295642945893,71.1960896928673,21.97598854371026,0.08758764808063133,1.7504538849698477
496,6.596255331336625,71.1960896928673,21.93345882968207,0.08740836894984057,1.7461597996014906
497,6.60955423321432,71.1960896928673,21.89476142610433,0.0872599896114365,1.7423451073055605
498,6.622853135092014,71.1960896928673,21.861691633159097,0.08714732837216778,1.7391632896866915
499,6.636152036969709,71.1960896928673,21.835364165601916,0.08707159044567034,1.736707083898341
500,6.649450938847404,71.1960896928673,21.816232317769565,0.0870308867238508,1.7350098780100645
501,6.662749840725099,71.1960896928673,21.80415780872202,0.08702097852030662,1.7340509812277614
502,6.676048742602794,71.1960896928673,21.798513579413882,0.0870361077383041,1.7337636403089924
503,6.689347644480488,71.1960896928673,21.79830395270903,0.08706979305505161,1.7340448803795179
504,6.702646546358183,71.1960896928673,21.802290303425913,0.0871155093358999,1.7347664850983586
505,6.715945448235878,71.1960896928673,21.809114252710902,0.08716720886633994,1.735786595321766
506,6.729244350113573,71.1960896928673,21.817413313743575,0.08721967922679039,1.7369614454164444
507,6.742543251991267,71.1960896928673,21.82592537467138,0.0872687570340442,1.7381566796530654
508,6.755842153868962,71.1960896928673,21.83357851976508,0.08731142708134154,1.7392575545355065
509,6.769141055746657,71.1960896928673,21.839562034303928,0.0873458346801634,1.7401772193230474
510,6.782439957624352,71.1960896928673,21.843373795459936,0.08737123021887355,1.7408622560370293
511,6.795738859502047,71.1960896928673,21.84483933750225,0.08738785499157264,1.7412948025152906
512,6.8090377613797415,71.1960896928673,21.844099133358487,0.08739677101412655,1.741490884022419
513,6.8223366632574365,71.1960896928673,21.84156311942659,0.08739963756363495,1.7414950025648581
514,6.835635565135132,71.1960896928673,21.837834923384882,0.08739844328223241,1.7413715083138093
515,6.8489344670128265,71.1960896928673,21.833612122517952,0.08739521041962572,1.7411937261470727
516,6.8622333688905215,71.1960896928673,21.829572565042813,0.08739169437883317,1.7410321578875225
517,6.875532270768216,71.1960896928673,21.826259764851294,0.08738911059827628,1.740943247836563
518,6.888831172645911,71.1960896928673,21.823982161034415,0.08738792961456841,1.7409601662696397
519,6.902130074523606,71.1960896928673,21.822741251760167,0.08738778000972121,1.741086912990596
520,6.915428976401301,71.1960896928673,21.82220199238485,0.08738748726894056,1.741296781722071
521,6.928727878278995,71.1960896928673,21.821715231981734,0.08738526090713228,1.74153576608158
522,6.94202678015669,71.1960896928673,21.820396332070928,0.087379023628712,1.7417308551510275
523,6.955325682034385,71.1960896928673,21.81725659182189,0.08736685406258334,1.7418024836922696
524,6.96862458391208,71.1960896928673,21.811375366380396,0.08734749137921123,1.7416797351296822
525,6.981923485789775,71.1960896928673,21.80209229373794,0.08732083000045907,1.7413163031524272
526,6.995222387667469,71.1960896928673,21.78919234239142,0.0872883201691891,1.7407048077041491
527,7.008521289545164,71.1960896928673,21.773052641655674,0.08725318953601238,1.739886949971719
528,7.021820191422859,71.1960896928673,21.754720755753024,0.08722041483439318,1.7389572688896415
529,7.035119093300554,71.1960896928673,21.73590045741572,0.08719640146575663,1.7380589640263278
530,7.048417995178248,71.1960896928673,21.718833001676877,0.08718836988925262,1.7373713305767713
531,7.061716897055943,71.1960896928673,21.706077856379835,0.0872034958326509,1.737089674348528
532,7.075015798933638,71.1960896928673,21.70021426077774,0.08724789902344493,1.7373999227049155
533,7.088314700811333,71.1960896928673,21.703500627171408,0.087325613693821,1.7384512656073625
534,7.101613602689028,71.1960896928673,21.71753942272185,0.08743769513429485,1.7403308083991327
535,7.114912504566722,71.1960896928673,21.742998290270773,0.08758161376274579,1.743044228008058
536,7.128211406444417,71.1960896928673,21.779432706109603,0.08775105912784664,1.7465057491542402
537,7.141510308322112,71.1960896928673,21.82524204045425,0.08793622358880417,1.750539485638321
538,7.154809210199807,71.1960896928673,21.87777167139989,0.08812456670757497,1.7548925330096494
539,7.168108112077502,71.1960896928673,21.93355209809696,0.08830198794316513,1.7592584386141463
540,7.181407013955196,71.1960896928673,21.98864551849506,0.08845426965580634,1.7633081166877278
541,7.194705915832891,71.1960896928673,22.03905450977784,0.08856860625435818,1.7667241819659651
542,7.208004817710586,71.1960896928673,22.08113879262669,0.0886350154697368,1.7692342193215782
543,7.221303719588281,71.1960896928673,22.111985817883625,0.08864743819581007,1.7706387456363026
544,7.234602621465975,71.1960896928673,22.129688561008777,0.08860438323788783,1.7708304898796567
545,7.24790152334367,71.1960896928673,22.13349798129164,0.08850905397895702,1.7698029605951027
546,7.261200425221365,71.1960896928673,22.12383807679111,0.08836896346799938,1.7676478410025602
547,7.27449932709906,71.1960896928673,22.10219467138933,0.08819509095053076,1.764542244424962
548,7.287798228976755,71.1960896928673,22.07090430428862,0.08800068682132463,1.7607280374444205
549,7.3010971308544494,71.1960896928673,22.03287451867845,0.08779988657184862,1.7564861807898648
550,7.314396032732144,71.1960896928673,21.991270305839944,0.08760631259678345,1.7521092870961723
551,7.327694934609839,71.1960896928673,21.949203789578004,0.0874318253511706,1.747875358282302
552,7.3409938364875345,71.1960896928673,21.909459412942105,0.0872855489376488,1.7440250745704922
553,7.354292738365229,71.1960896928673,21.874276799194256,0.08717324946534502,1.7407442552213448
554,7.367591640242924,71.1960896928673,21.845203202711513,0.087097095043637,1.738152374704635
555,7.380890542120619,71.1960896928673,21.823019119047107,0.08705578194531478,1.7362974232118293
556,7.394189443998314,71.1960896928673,21.807734879752044,0.08704497777884776,1.7351569977833219
557,7.407488345876009,71.1960896928673,21.798652861410165,0.08705801186500295,1.734645269663203
558,7.420787247753703,71.1960896928673,21.79448835455075,0.08708673449102201,1.73462530521915
559,7.434086149631398,71.1960896928673,21.793540828159657,0.08712246667738885,1.734926012614114
560,7.447385051509093,71.1960896928673,21.79390506301213,0.08715696557679944,1.7353626617762088
561,7.460683953386788,71.1960896928673,21.7937077939691,0.08718333325091633,1.735759463578291
562,7.473982855264483,71.1960896928673,21.791350389093797,0.08719679636779794,1.7359721613085581
563,7.487281757142177,71.1960896928673,21.785732917553716,0.08719528289857216,1.735908123410515
564,7.500580659019872,71.1960896928673,21.776431567032258,0.08717972390931622,1.7355412094923282
565,7.513879560897567,71.1960896928673,21.763801698611562,0.08715402094390208,1.734918874601517
566,7.527178462775262,71.1960896928673,21.74898430883805,0.08712464700042902,1.734159672921586
567,7.540477364652956,71.1960896928673,21.733804594945784,0.08709988708189893,1.7334404973454731
568,7.553776266530651,71.1960896928673,21.72056726666048,0.08708876930205765,1.7329743761436354
569,7.567075168408346,71.1960896928673,21.71177148031367,0.08709979623503136,1.7329811902357826
570,7.580374070286041,71.1960896928673,21.709779596750618,0.08713964557737686,1.733655023459511
571,7.593672972163736,71.1960896928673,21.716475948613112,0.08721203493570476,1.7351327267988124
572,7.60697187404143,71.1960896928673,21.73295852975056,0.08731692890970567,1.737468395701066
573,7.620270775919125,71.1960896928673,21.75931641063754,0.08745022212196447,1.7406177688155509
574,7.63356967779682,71.1960896928673,21.79453663209941,0.08760396607399118,1.7444352063557276
575,7.646868579674515,71.1960896928673,21.836557821301824,0.08776712680210608,1.7486841226208467
576,7.660167481552209,71.1960896928673,21.88246331154708,0.08792677902635476,1.753059808898321
577,7.673466383429904,71.1960896928673,21.928788237271636,0.08806957597985678,1.757221800755273
578,7.686765285307599,71.1960896928673,21.97189999580311,0.08818329333985957,1.760831577574698
579,7.700064187185294,71.1960896928673,22.008401567721016,0.08825823518620898,1.7635906148902654
580,7.713363089062989,71.1960896928673,22.035504485792583,0.08828831035178263,1.765273605632582
581,7.726661990940683,71.1960896928673,22.05132201900714,0.08827164444482423,1.765752073159964
582,7.739960892818378,71.1960896928673,22.055042985144794,0.08821067653386984,1.7650055838069765
583,7.753259794696073,71.1960896928673,22.046968774550958,0.08811176097496272,1.7631209991980685
584,7.766558696573768,71.1960896928673,22.028426919022387,0.08798434300423329,1.7602814780376037
585,7.779857598451462,71.1960896928673,22.00158832152128,0.08783982857786822,1.7567460468859228
586,7.793156500329157,71.1960896928673,21.969209902609002,0.08769031615556952,1.7528212909994056
587,7.806455402206852,71.1960896928673,21.93432864301922,0.08754736769222683,1.7488289726298416
588,7.819754304084547,71.1960896928673,21.899946562195044,0.08742096777862217,1.7450741432987038
589,7.833053205962242,71.1960896928673,21.868746972702212,0.08731877089411814,1.7418175005974583
590,7.846352107839936,71.1960896928673,21.842870921331897,0.08724567893323748,1.739254588096082
591,7.859651009717631,71.1960896928673,21.823769550225677,0.0872037359749862,1.7375032295046806
592,7.8729499115953265,71.1960896928673,21.812136057103725,0.0871922853761378,1.7365994197647099
593,7.886248813473021,71.1960896928673,21.807911045535562,0.08720831193713949,1.7365009346101217
594,7.8995477153507165,71.1960896928673,21.81034852964263,0.08724689004987282,1.7370972574165457
595,7.912846617228411,71.1960896928673,21.818126964512118,0.08730167358562006,1.7382240865652212
596,7.926145519106106,71.1960896928673,21.829489991923865,0.08736538781789197,1.7396806468652362
597,7.939444420983801,71.1960896928673,21.842404150903487,0.08743030928441799,1.741248213812411
598,7.952743322861496,71.1960896928673,21.854724364866826,0.08748873917679034,1.7427085764660752
599,7.96604222473919,71.1960896928673,21.864361324374475,0.08753348643284498,1.7438615134589637
600,7.979341126616885,71.1960896928673,21.869446883109863,0.08755837575213637,1.7445406439472118
601,7.99264002849458,71.1960896928673,21.868493611459233,0.08755878113014078,1.744627170352721
602,8.005938930372274,71.1960896928673,21.860542587627048,0.08753216023100924,1.7440610210005432
603,8.019237832249969,71.1960896928673,21.845289867602453,0.08747853635138776,1.7428487525681684
604,8.032536734127664,71.1960896928673,21.823178004759352,0.08740085056938209,1.7410673655564355
605,8.045835636005359,71.1960896928673,21.795436070057416,0.0873050940313626,1.7388630714099786
606,8.059134537883054,71.1960896928673,21.76405160110428,0.08720013582117833,1.7364441533492114
607,8.072433439760749,71.1960896928673,21.73166208972287,0.08709718916280902,1.7340672711047311
608,8.085732341638444,71.1960896928673,21.701363319377002,0.08700890171946157,1.7320169352778176
609,8.099031243516139,71.1960896928673,21.676445875987653,0.08694810938048714,1.730578961805132
610,8.112330145393834,71.1960896928673,21.660079705211764,0.08692636399821402,1.7300103269678138
611,8.125629047271527,71.1960896928673,21.65496792688272,0.08695241930449153,1.7305089132730764
612,8.138927949149222,71.1960896928673,21.66300384707692,0.08703089624808974,1.7321869052346364
613,8.152226851026917,71.1960896928673,21.68498624115943,0.08716133840701148,1.735051481747291
614,8.165525752904612,71.1960896928673,21.720446896845072,0.08733782514936862,1.738995907178683
615,8.178824654782307,71.1960896928673,21.76762080948396,0.08754924020100821,1.74380297888535
616,8.192123556660002,71.1960896928673,21.82356661871658,0.08778020110301768,1.749161208595901
617,8.205422458537697,71.1960896928673,21.8844266900069,0.08801255663242495,1.7546923826851408
618,8.218721360415392,71.1960896928673,21.94579812132103,0.08822727268790644,1.7599875463792611
619,8.232020262293087,71.1960896928673,22.003170571893303,0.08840646716899588,1.7646472379016496
620,8.24531916417078,71.1960896928673,22.05237752641302,0.08853533069461549,1.7683211411719846
621,8.258618066048475,71.1960896928673,22.090005816340906,0.0886036857980077,1.770742228072519
622,8.27191696792617,71.1960896928673,22.1137141815681,0.08860698932018872,1.771750959182536
623,8.285215869803865,71.1960896928673,22.12242362537148,0.08854666280717102,1.7713068986554963
624,8.29851477168156,71.1960896928673,22.116358546220457,0.0884297309700506,1.7694878842744297
625,8.311813673559255,71.1960896928673,22.09694148943822,0.08826784265656674,1.7664782365481642
626,8.32511257543695,71.1960896928673,22.06657193125233,0.08807582794831623,1.7625471902636027
627,8.338411477314645,71.1960896928673,22.02833085993811,0.08786999892653514,1.7580195527269973
628,8.35171037919234,71.1960896928673,21.98564654318658,0.08766642307505776,1.7532424307272094
629,8.365009281070034,71.1960896928673,21.941955318718087,0.08747938429198356,1.7485524608621057
630,8.378308182947729,71.1960896928673,21.90039544846294,0.08732020132085606,1.7442472681104755
631,8.391607084825424,71.1960896928673,21.863566446557247,0.08719650697920771,1.740563804158784
632,8.404905986703119,71.1960896928673,21.833372206964242,0.08711201653108967,1.737665022017598
633,8.418204888580814,71.1960896928673,21.810952266616795,0.087066743147862,1.735635141448078
634,8.431503790458509,71.1960896928673,21.79669399711416,0.08705756378797164,1.7344827226112212
635,8.444802692336204,71.1960896928673,21.790310049941947,0.08707900686337154,1.734150000697598
636,8.458101594213899,71.1960896928673,21.790960551049587,0.08712412537568769,1.7345264904263915
637,8.471400496091594,71.1960896928673,21.79739821220252,0.08718533272788588,1.7354647380366153
638,8.484699397969287,71.1960896928673,21.80811618073846,0.08725510707772798,1.7367962368600114
639,8.497998299846982,71.1960896928673,21.821482370641267,0.08732650692273293,1.7383458736863158
640,8.511297201724677,71.1960896928673,21.835849468690782,0.08739347935222769,1.7399437778359272
641,8.524596103602372,71.1960896928673,21.849636076394845,0.08745097825727673,1.7414340423936356
642,8.537895005480067,71.1960896928673,21.86138079456986,0.08749493917869339,1.7426804076790188
643,8.551193907357762,71.1960896928673,21.869776651117526,0.08752217749877407,1.743569555567326
644,8.564492809235457,71.1960896928673,21.873697182677276,0.08753028479516622,1.7440130622210384
645,8.577791711113152,71.1960896928673,21.87222679624526,0.08751759244560815,1.7439492024993384
646,8.591090612990847,71.1960896928673,21.864706104139543,0.08748325146586668,1.743345629825587
647,8.60438951486854,71.1960896928673,21.850797635921776,0.08742744495246803,1.7422034671576578
648,8.617688416746235,71.1960896928673,21.83056934412327,0.08735170898823376,1.7405626247466515
649,8.63098731862393,71.1960896928673,21.80458412472901,0.08725929597646204,1.7385073548454564
650,8.644286220501625,71.1960896928673,21.77397529484278,0.08715548010663854,1.7361702611513397
651,8.65758512237932,71.1960896928673,21.740483012360528,0.0870476889381816,1.7337324318031426
652,8.670884024257015,71.1960896928673,21.70642698884435,0.08694535443406701,1.731417526227868
653,8.68418292613471,71.1960896928673,21.67459825879254,0.086859410723628,1.7294785803486386
654,8.697481828012405,71.1960896928673,21.64806651251542,0.08680142144856198,1.7281775331125828
655,8.7107807298901,71.1960896928673,21.629911647622656,0.08678239034637175,1.7277588121743779
656,8.724079631767795,71.1960896928673,21.622896431487966,0.08681138173921171,1.7284197422581664
657,8.737378533645488,71.1960896928673,21.629114477509216,0.0868941367681884,1.7302817293237496
658,8.750677435523183,71.1960896928673,21.649670270597245,0.08703190239541887,1.7333667221381697
659,8.763976337400878,71.1960896928673,21.68445073402484,0.08722068401088472,1.7375831773404598
660,8.777275239278573,71.1960896928673,21.732029780150885,0.08745108670195471,1.742724659300534
661,8.790574141156268,71.1960896928673,21.789726366862375,0.08770883080519869,1.7484824595563877
662,8.803873043033963,71.1960896928673,21.85381640008666,0.08797592725582264,1.754471527953738
663,8.817171944911658,71.1960896928673,21.91987707310844,0.08823239483212304,1.7602669415902361
664,8.830470846789353,71.1960896928673,21.983222473105293,0.08845831262506103,1.7654464616408185
665,8.843769748667048,71.1960896928673,22.039375554432095,0.08863594236910993,1.769633717796889
666,8.857068650544742,71.1960896928673,22.084516139980458,0.08875163451367338,1.772536373061109
667,8.870367552422437,71.1960896928673,22.115848279184412,0.08879725335189274,1.7739741630653567
668,8.883666454300132,71.1960896928673,22.13184232541831,0.08877093547164937,1.7738929052407841
669,8.896965356177827,71.1960896928673,22.132324667298136,0.08867711882525411,1.772363161725954
670,8.910264258055522,71.1960896928673,22.11840832821406,0.08852587734914567,1.7695657688261786
671,8.923563159933217,71.1960896928673,22.092283095259617,0.0883316522961592,1.765767899282913
672,8.936862061810912,71.1960896928673,22.05691017454722,0.08811154357414427,1.761292466627028
673,8.950160963688607,71.1960896928673,22.015674100996133,0.08788340181556843,1.7564839430608972
674,8.963459865566302,71.1960896928673,21.972032978069354,0.08766398473913857,1.7516750397812144
675,8.976758767443995,71.1960896928673,21.929200427568468,0.08746740784854896,1.747158592364765
676,8.99005766932169,71.1960896928673,21.88989104452007,0.08730405626843495,1.7431674777774941
677,9.003356571199385,71.1960896928673,21.856151385309364,0.08718004443818803,1.7398637145464426
678,9.01665547307708,71.1960896928673,21.829282622581967,0.08709722549217871,1.7373364158941633
679,9.029954374954777,71.1960896928673,21.809847590166783,0.08705367653857746,1.7356071131900248
680,9.04325327683247,71.1960896928673,21.79774600530302,0.08704453092136644,1.7346402900991678
681,9.056552178710165,71.1960896928673,21.79233708330562,0.08706300045843006,1.734356786593427
682,9.06985108058786,71.1960896928673,21.792588162574045,0.08710143028455324,1.7346479670576387
683,9.083149982465557,71.1960896928673,21.79723024468191,0.08715225162469542,1.7353890468887423
684,9.096448884343248,71.1960896928673,21.804905236841048,0.08720873538108105,1.7364505664716303
685,9.109747786220945,71.1960896928673,21.814293997180346,0.08726549266865388,1.7377075468230578
686,9.123046688098638,71.1960896928673,21.824218243200356,0.08731870959959175,1.7390462710437604
687,9.136345589976331,71.1960896928673,21.833712659026627,0.08736613769959783,1.7403688856557153
688,9.149644491854028,71.1960896928673,21.842066162249818,0.08740688624134667,1.7415961286256396
689,9.162943393731725,71.1960896928673,21.84883348292497,0.08744107845935609,1.7426685114295157
690,9.176242295609418,71.1960896928673,21.85382017056551,0.08746944087914495,1.7435462557059116
691,9.189541197487111,71.1960896928673,21.857045941256917,0.08749289462588726,1.7442082426193344
692,9.202840099364808,71.1960896928673,21.85869279172951,0.08751221004173722,1.7446501917557815
693,9.2161390012425,71.1960896928673,21.859045307912265,0.08752777170691657,1.7448822528944172
694,9.229437903120196,71.1960896928673,21.858430841522527,0.08753948106116993,1.7449261710135155
695,9.242736804997891,71.1960896928673,21.85716658119632,0.08754680029491721,1.7448121741788973
696,9.256035706875586,71.1960896928673,21.855519038114608,0.08754891712852393,1.7445757360392202
697,9.26933460875328,71.1960896928673,21.853679315243838,0.08754498933255378,1.7442543769597525
698,9.282633510630976,71.1960896928673,21.851755083545598,0.08753441416692657,1.7438846837350561
699,9.295932412508671,71.1960896928673,21.849777846880833,0.08751706426325719,1.7434997389510816
700,9.309231314386366,71.1960896928673,21.847722195614473,0.08749343909539878,1.7431271481324062
701,9.32253021626406,71.1960896928673,21.845532565791974,0.08746469912334355,1.7427878421793648
702,9.335829118141756,71.1960896928673,21.843152621890543,0.08743257483896257,1.7424958053810016
703,9.34912802001945,71.1960896928673,21.840552705508934,0.08739917035198114,1.7422587228326087
704,9.362426921897145,71.1960896928673,21.837751670215276,0.08736670621009457,1.7420792786902155
705,9.37572582377484,71.1960896928673,21.834830626748776,0.08733726299010393,1.7419567990700402
706,9.389024725652536,71.1960896928673,21.831937414618704,0.08731258237344369,1.741889124834094
707,9.40232362753023,71.1960896928673,21.829281782693734,0.08729395616098566,1.741874596643496
708,9.415622529407925,71.1960896928673,21.827122139083905,0.08728221496845259,1.7419138370016718
709,9.42892143128562,71.1960896928673,21.82574524046576,0.08727782109594776,1.7420109445240044
710,9.442220333163316,71.1960896928673,21.825440338620556,0.0872810439703763,1.7421737900737315
711,9.45551923504101,71.1960896928673,21.826469340217663,0.08729215813558926,1.7424132058527178
712,9.468818136918705,71.1960896928673,21.829034595760387,0.08731158644877944,1.7427409792746955
713,9.482117038796398,71.1960896928673,21.83324500665937,0.0873399201816659,1.7431667155802908
714,9.495415940674093,71.1960896928673,21.839079648203448,0.08737777371240177,1.7436938136599665
715,9.508714842551788,71.1960896928673,21.846349716612064,0.0874254703027331,1.7443150001930205
716,9.522013744429485,71.1960896928673,21.85466420473712,0.08748260112751649,1.7450080684856488
717,9.535312646307178,71.1960896928673,21.863407253220384,0.08754754297273726,1.7457326380620413
718,9.548611548184873,71.1960896928673,21.871735005669084,0.08761705119480948,1.7464288450557743
719,9.561910450062568,71.1960896928673,21.878599823130155,0.08768605534408679,1.7470188419598718
720,9.575209351940265,71.1960896928673,21.882809299498444,0.08774777002808132,1.7474117838922958
721,9.588508253817956,71.1960896928673,21.883124783718003,0.08779419197344335,1.747512582742092
722,9.601807155695653,71.1960896928673,21.87839874573397,0.08781698951000737,1.7472341307521873
723,9.615106057573346,71.1960896928673,21.86774277726436,0.08780871145385474,1.7465119876398019
724,9.62840495945104,71.1960896928673,21.8507093340424,0.08776416193353719,1.7453197957240718
725,9.641703861328736,71.1960896928673,21.82746243482048,0.08768172108315554,1.7436830815699724
726,9.655002763206433,71.1960896928673,21.79890747745722,0.08756435610363866,1.7416887839185657
727,9.668301665084126,71.1960896928673,21.766749793407396,0.08742008892585054,1.739487961829417
728,9.68160056696182,71.1960896928673,21.73345684895521,0.08726176865657195,1.7372897691006453
729,9.694899468839516,71.1960896928673,21.70210879833802,0.08710610073102805,1.7353459166779266
730,9.70819837071721,71.1960896928673,21.67613557384041,0.08697199245540337,1.7339263484699932
731,9.721497272594904,71.1960896928673,21.658959445822457,0.0868783807357549,1.7332884796875954
732,9.7347961744726,71.1960896928673,21.653586123513687,0.0868417904079874,1.7336437726006726
733,9.748095076350294,71.1960896928673,21.6622019745401,0.08687395416676615,1.7351263349523698
734,9.76139397822799,71.1960896928673,21.685836424430082,0.08697989104366882,1.737768383501436
735,9.774692880105684,71.1960896928673,21.724142174143857,0.08715679106183936,1.7414867260482148
736,9.78799178198338,71.1960896928673,21.775332132885563,0.08739389835006457,1.7460829602531587
737,9.801290683861074,71.1960896928673,21.836290621349914,0.08767342259202543,1.7512581055810277
738,9.81458958573877,71.1960896928673,21.90285097875556,0.08797236640199549,1.756640220592395
739,9.827888487616462,71.1960896928673,21.970206846306283,0.08826502772486745,1.7618215874098684
740,9.841187389494158,71.1960896928673,22.033404323487954,0.08852584020000769,1.7664006042911764
741,9.854486291371853,71.1960896928673,22.08785025416498,0.08873216614482876,1.7700228363763084
742,9.867785193249548,71.1960896928673,22.12977004163814,0.08886666449293444,1.772415843013391
743,9.881084095127244,71.1960896928673,22.156556614315562,0.08891893837175176,1.7734135213773121
744,9.894382997004938,71.1960896928673,22.166969066232173,0.08888630977885553,1.7729675729083012
745,9.907681898882633,71.1960896928673,22.161164161592197,0.08877369564222154,1.7711456222675293
746,9.920980800760328,71.1960896928673,22.14057191374697,0.08859264786518692,1.7681171560003108
747,9.934279702638024,71.1960896928673,22.107647481661484,0.08835972354400416,1.7641299943162958
748,9.947578604515716,71.1960896928673,22.065542087960473,0.08809445378144798,1.7594812177099395
749,9.96087750639341,71.1960896928673,22.017741371255152,0.08781721490540341,1.7544868262679805
750,9.974176408271106,71.1960896928673,21.967720297943778,0.08754727400674842,1.7494539271474747
751,9.9874753101488,71.1960896928673,21.918654996133014,0.08730121372006214,1.7446582365672685
752,10.000774212026496,71.1960896928673,21.873216238643714,0.08709185718105088,1.7403284118049944
753,10.01407311390419,71.1960896928673,21.833452452568103,0.08692772831287614,1.7366374574643015
754,10.027372015781886,71.1960896928673,21.800755442452747,0.08681300918845566,1.7337004122809816
755,10.04067091765958,71.1960896928673,21.775891555511897,0.08674790360343021,1.7315768615140408
756,10.053969819537276,71.1960896928673,21.759075830003113,0.08672928689153556,1.730276574117119
757,10.06726872141497,71.1960896928673,21.750066524787083,0.08675151449312525,1.7297666774500458
758,10.080567623292664,71.1960896928673,21.74826118365075,0.08680727125939228,1.7299791380343372
759,10.09386652517036,71.1960896928673,21.75278142000532,0.08688836451781029,1.7308177780220158
760,10.107165427048054,71.1960896928673,21.762540279466357,0.08698639159583742,1.7321645046947385
761,10.120464328925747,71.1960896928673,21.776292041020156,0.08709324278919461,1.7338847865320268
762,10.133763230803444,71.1960896928673,21.79266884436135,0.08720143133991831,1.7358326429917708
763,10.14706213268114,71.1960896928673,21.810211277240523,0.08730427020369463,1.7378555320673497
764,10.160361034558834,71.1960896928673,21.82740109480457,0.08739593316321716,1.7397995455297348
765,10.173659936436527,71.1960896928673,21.84270383161408,0.08747144412852838,1.7415152810974626
766,10.186958838314224,71.1960896928673,21.854627469641514,0.08752664826465031,1.7428646594224282
767,10.200257740191915,71.1960896928673,21.86180070360861,0.08755822963670631,1.743728787911871
768,10.213556642069612,71.1960896928673,21.86307076527601,0.0875638281414565,1.7440167459059053
769,10.226855543947307,71.1960896928673,21.857616319018515,0.08754227348849912,1.7436748692703035
770,10.240154445825002,71.1960896928673,21.8450659054484,0.08749391547679912,1.7426957419065057
771,10.253453347702695,71.1960896928673,21.82560741408314,0.0874209939307943,1.741125709973233
772,10.266752249580392,71.1960896928673,21.800070110177423,0.08732795995597353,1.739069428532127
773,10.280051151458087,71.1960896928673,21.769959077019212,0.08722164102823086,1.736689843562335
774,10.293350053335782,71.1960896928673,21.737423737357215,0.08711114424427288,1.734202205008565
775,10.306648955213475,71.1960896928673,21.70514827014987,0.08700741911469613,1.7318612603745087
776,10.31994785709117,71.1960896928673,21.67616201570003,0.0869224525063868,1.7299416779579613
777,10.333246758968864,71.1960896928673,21.653579609109617,0.08686813642067272,1.7287128824596885
778,10.34654566084656,71.1960896928673,21.640291690931527,0.08685492158273801,1.728410654901442
779,10.359844562724255,71.1960896928673,21.63863930918749,0.08689043083020245,1.729208805765211
780,10.37314346460195,71.1960896928673,21.650115796013434,0.08697824128093613,1.7311947367185934
781,10.386442366479644,71.1960896928673,21.675141089299313,0.08711704294069787,1.7343525970931248
782,10.39974126835734,71.1960896928673,21.712944367190172,0.0873003407392372,1.7385569734049695
783,10.413040170235035,71.1960896928673,21.761576614934153,0.08751679225621872,1.743578720935295
784,10.42633907211273,71.1960896928673,21.81805764737518,0.08775117733606459,1.7491028746559136
785,10.439637973990424,71.1960896928673,21.87864353377831,0.08798589580858036,1.754756853717942
786,10.45293687586812,71.1960896928673,21.939183413488124,0.0882028040565854,1.7601456972301286
787,10.466235777745814,71.1960896928673,21.99552231653673,0.08838514509101512,1.7648900826867948
788,10.479534679623509,71.1960896928673,22.04390070851984,0.08851930945009863,1.7686625219268461
789,10.492833581501204,71.1960896928673,22.081302703182754,0.08859617967825212,1.7712174312201532
790,10.5061324833789,71.1960896928673,22.105712712454014,0.08861185746746741,1.7724115814833563
791,10.519431385256594,71.1960896928673,22.116252018607945,0.08856770597346324,1.7722126226309476
792,10.532730287134289,71.1960896928673,22.113180664018362,0.08846983575186904,1.7706953471808717
793,10.546029189011984,71.1960896928673,22.09777379722967,0.08832821696821098,1.7680277930378314
794,10.559328090889675,71.1960896928673,22.07211128167065,0.08815550420837426,1.7644502455727944
795,10.572626992767372,71.1960896928673,22.03882459984951,0.08796566045409636,1.7602495615211093
796,10.585925894645069,71.1960896928673,22.00082544920915,0.08777256578206079,1.7557312527708424
797,10.599224796522762,71.1960896928673,21.961034397155522,0.08758880973081974,1.7511924876929763
798,10.612523698400455,71.1960896928673,21.922137225922285,0.08742479424667823,1.7468989688245662
799,10.625822600278152,71.1960896928673,21.886394533495864,0.08728819752758207,1.7430676074758324
800,10.639121502155849,71.1960896928673,21.855517443129465,0.08718378526992952,1.7398558477171437
801,10.652420404033542,71.1960896928673,21.830611052436105,0.08711350827108072,1.7373575974463364
802,10.665719305911235,71.1960896928673,21.812179424243077,0.08707680062559447,1.7356050450368308
803,10.67901820778893,71.1960896928673,21.800180871993682,0.08707099114005472,1.7345752182846965
804,10.692317109666623,71.1960896928673,21.794119858117405,0.08709175731979378,1.7341999512459496
805,10.70561601154432,71.1960896928673,21.793161306002723,0.08713357763956732,1.7343779017793566
806,10.718914913422015,71.1960896928673,21.79625377782362,0.08719016400212312,1.7349873356062608
807,10.73221381529971,71.1960896928673,21.802249190358438,0.0872548743431981,1.7358985076279498
808,10.745512717177403,71.1960896928673,21.81000826255058,0.08732111126391896,1.7369846085049905
809,10.7588116190551,71.1960896928673,21.81848278781784,0.08738270702587811,1.7381304176929318
810,10.772110520932795,71.1960896928673,21.826768381621115,0.08743428271999006,1.7392380438841368
811,10.78540942281049,71.1960896928673,21.83412482721523,0.08747155635361414,1.740229464511923
812,10.798708324688183,71.1960896928673,21.83996553772322,0.08749156718866921,1.741045994627662
813,10.812007226565878,71.1960896928673,21.843822593300352,0.08749278604476403,1.741645283022835
814,10.825306128443572,71.1960896928673,21.845298535047036,0.08747509447092622,1.7419968749175057
815,10.838605030321268,71.1960896928673,21.84401958884119,0.08743963736320846,1.7420777230392646
816,10.851903932198963,71.1960896928673,21.839606220192305,0.08738857866491764,1.7418691698328723
817,10.865202834076658,71.1960896928673,21.831675105571453,0.08732481150732564,1.7413566063333596
818,10.878501735954352,71.1960896928673,21.81988146800441,0.08725168597428143,1.7405322489006572
819,10.891800637832048,71.1960896928673,21.80400266398999,0.08717281460698853,1.7394008432656505
820,10.905099539709743,71.1960896928673,21.784054056268285,0.08709199485423677,1.7379877028753155
821,10.918398441587438,71.1960896928673,21.76041834199696,0.08701325201274042,1.7363477519083348
822,10.931697343465132,71.1960896928673,21.733961772365472,0.08694096699911978,1.7345733437885813
823,10.944996245342828,71.1960896928673,21.706107340538253,0.0868800204840878,1.732798267789451
824,10.958295147220522,71.1960896928673,21.678837517623844,0.08683586349099409,1.7311956819485101
825,10.971594049098217,71.1960896928673,21.654606773548046,0.08681442249723759,1.7299685517827068
826,10.984892950975912,71.1960896928673,21.636156300143274,0.08682177159451289,1.729332430182493
827,10.998191852853608,71.1960896928673,21.626241335459746,0.0868635524589391,1.7294919037689744
828,11.011490754731302,71.1960896928673,21.627301968762556,0.08694418421975718,1.7306134710954828
829,11.024789656608997,71.1960896928673,21.641122979485143,0.08706596658434673,1.732798701422568
830,11.038088558486692,71.1960896928673,21.668533834277067,0.08722822675980624,1.7360619874553707
831,11.051387460364383,71.1960896928673,21.709197861321105,0.08742668183452985,1.740316902709554
832,11.06468636224208,71.1960896928673,21.76152969633874,0.08765317630622858,1.7453741104186584
833,11.077985264119777,71.1960896928673,21.82276261000187,0.08789590884392212,1.7509521123385867
834,11.09128416599747,71.1960896928673,21.88916521996459,0.08814018938547362,1.7567001642816984
835,11.104583067875163,71.1960896928673,21.95638438163955,0.08836967937483253,1.7622307754049158
836,11.11788196975286,71.1960896928673,22.019871697314578,0.08856797939379821,1.7671576920759804
837,11.131180871630557,71.1960896928673,22.075338388020484,0.08872035611395658,1.7711344082835323
838,11.14447977350825,71.1960896928673,22.119179196990473,0.08881534939602252,1.7738881654549339
839,11.157778675385943,71.1960896928673,22.14881100108565,0.08884598384598069,1.7752451046401687
840,11.171077577263638,71.1960896928673,22.16288364741437,0.08881040894386982,1.775143701494092
841,11.184376479141331,71.1960896928673,22.16133728132473,0.08871198971832392,1.7736355772332426
842,11.197675381019028,71.1960896928673,22.14530857733885,0.08855892821636041,1.7708745514777564
843,11.210974282896723,71.1960896928673,22.116922835421683,0.08836340234995468,1.7670960833679692
844,11.224273184774418,71.1960896928673,22.079019318099693,0.0881402492201476,1.7625902901246222
845,11.237572086652111,71.1960896928673,22.0348420145496,0.0879053876641101,1.7576724003847064
846,11.250870988529808,71.1960896928673,21.987723688675253,0.08767424067463013,1.752654405067665
847,11.264169890407503,71.1960896928673,21.940799186281804,0.08746037355682175,1.7478209053372142
848,11.277468792285198,71.1960896928673,21.896779384481466,0.08727449702512204,1.7434110668121972
849,11.290767694162891,71.1960896928673,21.857801361352458,0.08712391230989991,1.7396074259751177
850,11.304066596040586,71.1960896928673,21.825356008035243,0.08701240148400544,1.7365312705008544
851,11.31736549791828,71.1960896928673,21.800284079499747,0.08694050241972989,1.7342435878933935
852,11.330664399795976,71.1960896928673,21.782825540165177,0.08690606250348966,1.7327502078079438
853,11.343963301673671,71.1960896928673,21.772704992323295,0.0869049436225394,1.7320097212857597
854,11.357262203551366,71.1960896928673,21.76923704443377,0.08693175340722885,1.7319429450360408
855,11.37056110542906,71.1960896928673,21.771438380478752,0.08698050021643632,1.7324429829998644
856,11.383860007306756,71.1960896928673,21.778136702873738,0.08704510451300258,1.7333852061719024
857,11.397158909184451,71.1960896928673,21.788069664979194,0.08711973836057751,1.7346366549183478
858,11.410457811062145,71.1960896928673,21.799968967841952,0.0871989999226045,1.736064453452913
859,11.42375671293984,71.1960896928673,21.812626121969625,0.08727795580807468,1.7375428527682093
860,11.437055614817536,71.1960896928673,21.824937512564713,0.08735209893799042,1.7389585541854553
861,11.45035451669523,71.1960896928673,21.83592798959514,0.08741727417293864,1.740214076993792
862,11.463653418572925,71.1960896928673,21.844754634756075,0.08746962066438975,1.7412291556346462
863,11.47695232045062,71.1960896928673,21.850695574030258,0.08750557132548634,1.741940470147244
864,11.490251222328316,71.1960896928673,21.853132116318665,0.08752193771190843,1.7423003630963318
865,11.50355012420601,71.1960896928673,21.851535112764886,0.08751609372618913,1.7422754753885463
866,11.516849026083705,71.1960896928673,21.84546713780376,0.08748625418637158,1.7418463451811328
867,11.5301479279614,71.1960896928673,21.83461002600489,0.08743182500650178,1.7410088729569833
868,11.543446829839093,71.1960896928673,21.81882217447212,0.0873537821092997,1.7397780426023988
869,11.556745731716788,71.1960896928673,21.798222359173455,0.08725501892996752,1.7381934722565724
870,11.570044633594485,71.1960896928673,21.77328796014682,0.08714059168558051,1.7363256526456168
871,11.583343535472178,71.1960896928673,21.74494748811515,0.0870177907056077,1.7342812893068498
872,11.596642437349873,71.1960896928673,21.714642380279752,0.08689597162913541,1.73220582081358
873,11.609941339227568,71.1960896928673,21.68433389083089,0.08678609419529995,1.730281085624642
874,11.623240241105265,71.1960896928673,21.65643818281036,0.08669995481748832,1.7287165991035731
875,11.636539142982958,71.1960896928673,21.633679187435693,0.08664915814785662,1.7277339500522448
876,11.649838044860653,71.1960896928673,21.618853731582536,0.08664392303329903,1.7275451721294026
877,11.663136946738346,71.1960896928673,21.61452338656483,0.08669185120933688,1.7283273276074747
878,11.67643584861604,71.1960896928673,21.622678506047034,0.0867968112427623,1.7301966720069604
879,11.689734750493736,71.1960896928673,21.64443233740277,0.08695809890336756,1.7331863774376983
880,11.703033652371431,71.1960896928673,21.679794036788724,0.087170017673473,1.7372317047098544
881,11.716332554249126,71.1960896928673,21.727557415782393,0.08742197929449062,1.7421656947879622
882,11.72963145612682,71.1960896928673,21.785329133095097,0.08769916002004742,1.7477270176650936
883,11.742930358004516,71.1960896928673,21.849701262104144,0.08798367307454928,1.7535798176704411
884,11.756229259882211,71.1960896928673,21.916551794135557,0.08825614367354334,1.759343547533201
885,11.769528161759906,71.1960896928673,21.981437270951997,0.08849751198785448,1.764629214845927
886,11.7828270636376,71.1960896928673,22.040027758708213,0.08869085155561823,1.7690774308324966
887,11.796125965515294,71.1960896928673,22.088528194278638,0.08882298232435858,1.772393314955298
888,11.80942486739299,71.1960896928673,22.12403260803435,0.08888567719172774,1.774373560738851
889,11.822723769270684,71.1960896928673,22.144768232696254,0.08887630684548292,1.7749217903332652
890,11.83602267114838,71.1960896928673,22.150201921799926,0.08879786058230145,1.774050800819437
891,11.849321573026074,71.1960896928673,22.140999102080137,0.08865840498751458,1.7718739846095202
892,11.86262047490377,71.1960896928673,22.118851736426404,0.08847010481067318,1.7685892367783616
893,11.875919376781464,71.1960896928673,22.086221880477527,0.08824792112181969,1.7644568685360131
894,11.88921827865916,71.1960896928673,22.046052425597768,0.08800812117617886,1.7597730817454478
895,11.902517180536853,71.1960896928673,22.001476152764607,0.08776678128476177,1.754842464181383
896,11.915816082414548,71.1960896928673,21.955544825518924,0.08753846092474397,1.7499532679563188
897,11.929114984292244,71.1960896928673,21.91100422752476,0.0873351764029759,1.7453579477345538
898,11.942413886169938,71.1960896928673,21.870134937628286,0.08716574403804164,1.7412600864527823
899,11.955712788047633,71.1960896928673,21.834663764214575,0.08703550755365189,1.7378077320558423
900,11.969011689925328,71.1960896928673,21.80573904444741,0.08694641714954592,1.7350923391389494
901,11.982310591803024,71.1960896928673,21.78395634988905,0.08689739392781295,1.7331520401598817
902,11.995609493680718,71.1960896928673,21.7694186613956,0.08688489487487953,1.731977845502585
903,12.008908395558413,71.1960896928673,21.761816033588268,0.0869035894406184,1.7315215098756256
904,12.022207297436106,71.1960896928673,21.760512765869073,0.08694706556376357,1.731704082148138
905,12.0355061993138,71.1960896928673,21.7646337057004,0.08700849630177028,1.7324244543502976
906,12.048805101191496,71.1960896928673,21.773144395948908,0.08708121382680745,1.7335674549295832
907,12.06210400306919,71.1960896928673,21.784921775616358,0.08715915269162099,1.7350111582168346
908,12.075402904946886,71.1960896928673,21.798813109663644,0.08723713823338765,1.7366331292984793
909,12.08870180682458,71.1960896928673,21.81368129593345,0.08731100983597141,1.7383153522784487
910,12.102000708702276,71.1960896928673,21.828435400103746,0.08737758431183626,1.7399476692948996
911,12.11529961057997,71.1960896928673,21.84204677772921,0.08743448299428024,1.7414297323229553
912,12.128598512457666,71.1960896928673,21.853553608309653,0.08747986644949121,1.7426717372961187
913,12.14189741433536,71.1960896928673,21.86205970256204,0.08751213983928093,1.7435945159756978
914,12.155196316213054,71.1960896928673,21.8667361953117,0.08752970508102269,1.744129812224919
915,12.168495218090747,71.1960896928673,21.866836118266875,0.08753083750792989,1.7442216669933828
916,12.181794119968444,71.1960896928673,21.861730882356163,0.08751374881462765,1.743829698491262
917,12.19509302184614,71.1960896928673,21.850973860970416,0.08747686396110685,1.7429346258102132
918,12.208391923723834,71.1960896928673,21.83438973284315,0.08741929569199197,1.741545693009301
919,12.221690825601527,71.1960896928673,21.812180005809783,0.08734145351604239,1.7397089229395406
920,12.234989727479224,71.1960896928673,21.785026896105155,0.08724567765889808,1.7375145281572149
921,12.24828862935692,71.1960896928673,21.754171618161084,0.08713675388968477,1.735101373890291
922,12.261587531234614,71.1960896928673,21.721441189449553,0.08702215727174908,1.7326562864696218
923,12.274886433112307,71.1960896928673,21.689201950681856,0.0869118978367337,1.7304064322953503
924,12.288185334990002,71.1960896928673,21.66022824517348,0.08681789677164087,1.7286039584294086
925,12.301484236867696,71.1960896928673,21.637486083161228,0.08675290067861362,1.7275034257817559
926,12.314783138745392,71.1960896928673,21.623842318575264,0.08672903077628302,1.727334046593164
927,12.328082040623087,71.1960896928673,21.62172760901471,0.08675614653623372,1.7282700656268213
928,12.341380942500782,71.1960896928673,21.632802478970103,0.08684026185381842,1.7304034979297611
929,12.354679844378476,71.1960896928673,21.65768238849301,0.08698227254619782,1.7337236236266964
930,12.367978746256172,71.1960896928673,21.695767994519876,0.08717722951561818,1.7381070400257979
931,12.381277648133867,71.1960896928673,21.745211899810684,0.08741432357026357,1.7433207419570536
932,12.39457655001156,71.1960896928673,21.803035481967814,0.08767764549925812,1.749038853091924
933,12.407875451889256,71.1960896928673,21.865388045452207,0.08794766529851211,1.7548715815421603
934,12.42117435376695,71.1960896928673,21.927919106628657,0.08820325810788965,1.7604030799865296
935,12.434473255644646,71.1960896928673,21.986217275178607,0.08842401181230164,1.765233481555046
936,12.44777215752234,71.1960896928673,22.036258916142238,0.08859249912970496,1.7690196914394873
937,12.461071059400036,71.1960896928673,22.074808321562763,0.08869619031919926,1.7715096496160614
938,12.47436996127773,71.1960896928673,22.09971868641564,0.08872872400329902,1.7725656545631587
939,12.487668863155426,71.1960896928673,22.110098329994685,0.08869037430626127,1.7721738115206156
940,12.50096776503312,71.1960896928673,22.106326686522017,0.08858773032370373,1.7704389483673877
941,12.514266666910814,71.1960896928673,22.089926799706912,0.08843270612568487,1.7675670360124143
942,12.527565568788509,71.1960896928673,22.06332159925468,0.08824100841978216,1.763838613536225
943,12.540864470666204,71.1960896928673,22.02951497813317,0.0880302407525169,1.7595767267636264
944,12.5541633725439,71.1960896928673,21.991743696381082,0.0878179117425271,1.7551130946636975
945,12.567462274421594,71.1960896928673,21.95314464457622,0.08761962775882079,1.7507566469672688
946,12.580761176299289,71.1960896928673,21.91647510190493,0.08744768888381664,1.7467680297019423
947,12.594060078176984,71.1960896928673,21.883911545457646,0.08731022332752454,1.743342306800128
948,12.60735898005468,71.1960896928673,21.856938015928918,0.08721090657255681,1.7406006341111568
949,12.620657881932374,71.1960896928673,21.83632147890299,0.08714922737050246,1.738590419653189
950,12.633956783810069,71.1960896928673,21.822161191679598,0.08712119539362825,1.7372925381307287
951,12.647255685687762,71.1960896928673,21.813992843313315,0.08712034253708054,1.7366336278179064
952,12.660554587565455,71.1960896928673,21.81092625955844,0.08713885443890033,1.7365013537912513
953,12.673853489443152,71.1960896928673,21.811796960692178,0.08716867847356037,1.7367606903657014
954,12.687152391320849,71.1960896928673,21.81531553108501,0.08720248303446207,1.7372696322669754
955,12.700451293198542,71.1960896928673,21.820203214060758,0.08723438201583161,1.7378931617079587
956,12.713750195076235,71.1960896928673,21.82530626080498,0.08726037979254128,1.7385146816511023
957,12.727049096953932,71.1960896928673,21.829684698678882,0.08727852934395376,1.7390444276508568
958,12.740347998831629,71.1960896928673,21.832673225955887,0.08728882599866992,1.739424592993938
959,12.75364690070932,71.1960896928673,21.833913173592595,0.08729288086326828,1.739631076709765
960,12.766945802587015,71.1960896928673,21.833355376042697,0.087293432397106,1.7396719312497775
961,12.78024470446471,71.1960896928673,21.83123480213416,0.08729376332430255,1.7395827726410988
962,12.793543606342404,71.1960896928673,21.82801915636081,0.08729709406049961,1.7394196229462089
963,12.8068425082201,71.1960896928673,21.82433536078436,0.08730602292641244,1.7392498621098207
964,12.820141410097795,71.1960896928673,21.820879654338704,0.08732207718454574,1.7391421438613872
965,12.83344031197549,71.1960896928673,21.818318696284333,0.08734542641325929,1.7391562484551095
966,12.846739213853184,71.1960896928673,21.81719026557384,0.08737478743310004,1.7393339216604822
967,12.86003811573088,71.1960896928673,21.81781275914273,0.08740752039455413,1.7396917663737568
968,12.873337017608575,71.1960896928673,21.820212694923292,0.08743989278229142,1.7402169139411618
969,12.886635919486269,71.1960896928673,21.824078883544487,0.08746747601592834,1.7408655671681026
970,12.899934821363964,71.1960896928673,21.828750890947113,0.087485627584678,1.741564447239389
971,12.91323372324166,71.1960896928673,21.83324780629403,0.08749000226503358,1.7422156750707603
972,12.926532625119354,71.1960896928673,21.836340944851138,0.0874770393288621,1.7427055017305744
973,12.939831526997049,71.1960896928673,21.83667065950435,0.08744438652091832,1.7429165341843795
974,12.953130428874744,71.1960896928673,21.83290268519596,0.0873912375257457,1.7427425243359558
975,12.96642933075244,71.1960896928673,21.823913458546173,0.08731857231635488,1.7421044478871195
976,12.979728232630134,71.1960896928673,21.80898716914754,0.08722929568368933,1.7409662231167473
977,12.993027134507829,71.1960896928673,21.788000993906717,0.08712826710504983,1.7393480677074764
978,13.006326036385522,71.1960896928673,21.761570561545305,0.08702220703226993,1.7373353086457122
979,13.019624938263217,71.1960896928673,21.731126988727635,0.08691945574275729,1.735080564375739
980,13.032923840140912,71.1960896928673,21.698901121767534,0.08682955767938648,1.732797703465157
981,13.046222742018609,71.1960896928673,21.667799325494933,0.08676265251586426,1.730746875272587
982,13.059521643896302,71.1960896928673,21.641167853936437,0.08672867672300195,1.7292111363209774
983,13.072820545773997,71.1960896928673,21.622460849314496,0.08673641423773934,1.7284665908097216
984,13.086119447651692,71.1960896928673,21.614847300675557,0.08679247530829962,1.7287492766281327
985,13.099418349529389,71.1960896928673,21.6208069901727,0.08690031892741816,1.7302229839359862
986,13.112717251407082,71.1960896928673,21.641771249806144,0.08705945626508811,1.732952555161931
987,13.126016153284777,71.1960896928673,21.677862285945313,0.08726497244215131,1.7368868470121837
988,13.13931505516247,71.1960896928673,21.72777453239783,0.0875074787031951,1.741854440453813
989,13.152613957040163,71.1960896928673,21.78882312467089,0.08777355873004879,1.7475735123837384
990,13.16591285891786,71.1960896928673,21.857161019245066,0.08804670832440907,1.7536752979107466
991,13.179211760795557,71.1960896928673,21.92814160192749,0.08830869696376627,1.7597386018951342
992,13.19251066267325,71.1960896928673,21.996782030620576,0.08854121382128256,1.7653311892934842
993,13.205809564550943,71.1960896928673,22.05826769012832,0.08872761050439824,1.770052849635303
994,13.21910846642864,71.1960896928673,22.10843243160381,0.08885452372952929,1.7735746492723818
995,13.232407368306337,71.1960896928673,22.144153592291296,0.08891316045212602,1.7756692320776064
996,13.245706270184028,71.1960896928673,22.16361402890108,0.08890008384666911,1.7762279808276245
997,13.259005172061723,71.1960896928673,22.166403282014393,0.08881744269542889,1.7752635445370544
998,13.272304073939418,71.1960896928673,22.153455344168616,0.088672653619134,1.7729001943219906
999,13.285602975817111,71.1960896928673,22.126846923073746,0.0884775635803132,1.7693556292394768
1000,13.298901877694808,71.1960896928673,22.089497137498135,0.08824717786937798,1.764916023345579
1001,13.312200779572503,71.1960896928673,22.044814598292337,0.08799812659413395,1.7599061809211776
1002,13.325499681450198,71.1960896928673,21.996338540696254,0.08774707854096632,1.7546586858729443
1003,13.338798583327891,71.1960896928673,21.94741781724352,0.0875092917673034,1.7494862361316328
1004,13.352097485205588,71.1960896928673,21.90096067628437,0.08729744881124524,1.7446599598312875
1005,13.36539638708328,71.1960896928673,21.859272130842562,0.08712087188525501,1.740395027314468
1006,13.378695288960976,71.1960896928673,21.82398003829313,0.08698515666281757,1.7368436313357458
1007,13.391994190838671,71.1960896928673,21.796038601774868,0.08689221056667369,1.7340944467126005
1008,13.405293092716366,71.1960896928673,21.77579020504874,0.08684063831685807,1.7321771015674094
1009,13.41859199459406,71.1960896928673,21.76306365197813,0.0868263870132454,1.7310699919606007
1010,13.431890896471756,71.1960896928673,21.757288246714648,0.08684354620933582,1.7307098808352064
1011,13.445189798349451,71.1960896928673,21.757607301108383,0.08688519476767848,1.7310020242945747
1012,13.458488700227146,71.1960896928673,21.762979965231885,0.08694419416488851,1.7318299385060496
1013,13.47178760210484,71.1960896928673,21.772265352710164,0.08701384501028926,1.7330642582628712
1014,13.485086503982536,71.1960896928673,21.784286910605065,0.08708834725030745,1.7345703883529269
1015,13.49838540586023,71.1960896928673,21.797877628411285,0.08716303242461917,1.7362148068577745
1016,13.511684307737925,71.1960896928673,21.811908285785996,0.0872343664330347,1.7378699800960216
1017,13.52498320961562,71.1960896928673,21.825302072831914,0.08729975185077055,1.7394179430800436
1018,13.538282111493317,71.1960896928673,21.837040104014378,0.08735718787403435,1.7407527273354921
1019,13.55158101337101,71.1960896928673,21.846163787140135,0.08740487048028295,1.7417819877007565
1020,13.564879915248705,71.1960896928673,21.851781437747242,0.08744083112797993,1.742428358002271
1021,13.5781788171264,71.1960896928673,21.853087269589345,0.08746271433371686,1.7426311849031417
1022,13.591477719004097,71.1960896928673,21.849400090011045,0.08746777822361074,1.7423492703523928
1023,13.60477662088179,71.1960896928673,21.840226004723274,0.0874531661365981,1.7415650344373879
1024,13.618075522759485,71.1960896928673,21.825344033962946,0.08741644515478267,1.7402900818850018
1025,13.631374424637178,71.1960896928673,21.804906360022493,0.08735634664409393,1.7385715687505967
1026,13.644673326514871,71.1960896928673,21.779537335554984,0.0872735849832706,1.7364981121690173
1027,13.657972228392568,71.1960896928673,21.750409293054332,0.0871715870958483,1.734203437837565
1028,13.671271130270265,71.1960896928673,21.71927062300238,0.08705695020798519,1.7318657762219887
1029,13.684570032147958,71.1960896928673,21.688404078644425,0.08693946611226731,1.7297013303116477
1030,13.697868934025651,71.1960896928673,21.66050149911263,0.08683160753801891,1.7279508761255498
1031,13.711167835903348,71.1960896928673,21.63845431951562,0.08674745886808596,1.726859647692511
1032,13.724466737781045,71.1960896928673,21.625074288652186,0.08670117524017983,1.7266519956951292
1033,13.737765639658736,71.1960896928673,21.622772843681954,0.08670515222734661,1.72750362521547
1034,13.751064541536431,71.1960896928673,21.633240021065216,0.0867681630972107,1.7295151868324965
1035,13.764363443414126,71.1960896928673,21.657171659811542,0.08689375561389381,1.7326913666860873
1036,13.77766234529182,71.1960896928673,21.69409150013025,0.08707918583153958,1.736929261269056
1037,13.790961247169516,71.1960896928673,21.742302452124527,0.08731510180781545,1.74201874263096
1038,13.804260149047211,71.1960896928673,21.798983175709555,0.0875860846144233,1.7476558795641801
1039,13.817559050924906,71.1960896928673,21.86042522660858,0.08787202439706442,1.7534685553752292
1040,13.8308579528026,71.1960896928673,21.92238501399337,0.08815017746486199,1.759051545022727
1041,13.844156854680296,71.1960896928673,21.980507263851855,0.08839763935227057,1.7640068083415172
1042,13.85745575655799,71.1960896928673,22.030765689915306,0.0885938983132365,1.7679838651082034
1043,13.870754658435684,71.1960896928673,22.069863892314046,0.08872311571360615,1.7707149838420262
1044,13.88405356031338,71.1960896928673,22.095545476473156,0.08877581816122179,1.772040382038974
1045,13.897352462191074,71.1960896928673,22.10677496510092,0.08874978264354728,1.771919661483669
1046,13.91065136406877,71.1960896928673,22.103768215303788,0.08865003267434844,1.7704285245080509
1047,13.923950265946464,71.1960896928673,22.08787705416534,0.0884879933455356,1.7677439287362018
1048,13.93724916782416,71.1960896928673,22.061363117168778,0.0882799530620496,1.7641218447785247
1049,13.950548069701854,71.1960896928673,22.02710620650552,0.08804506305248148,1.7598695182249584
1050,13.96384697157955,71.1960896928673,21.98828149837825,0.08780316104483933,1.7553139824891273
1051,13.977145873457244,71.1960896928673,21.94803596814681,0.087572705875441,1.7507706108418375
1052,13.990444775334938,71.1960896928673,21.909199119298297,0.08736906088442567,1.7465157863818088
1053,14.003743677212633,71.1960896928673,21.874057597694414,0.08720328806190018,1.7427663346524942
1054,14.017042579090328,71.1960896928673,21.84420925504084,0.08708152895313256,1.7396669404162965
1055,14.030341480968024,71.1960896928673,21.820499842046154,0.0870049669184181,1.7372856727787038
1056,14.043640382845718,71.1960896928673,21.803036864455226,0.08697030030042256,1.735616949771351
1057,14.056939284723413,71.1960896928673,21.79126989516231,0.0869706136105569,1.7345908198580042
1058,14.070238186601108,71.1960896928673,21.784124281597865,0.08699651446040757,1.7340872486288483
1059,14.083537088478804,71.1960896928673,21.780174463881117,0.08703740325611588,1.733954049361056
1060,14.096835990356496,71.1960896928673,21.777842692363837,0.08708275351621252,1.734027051099871
1061,14.110134892234193,71.1960896928673,21.775607847824407,0.0871232957736837,1.7341509683586438
1062,14.123433794111886,71.1960896928673,21.77220712214972,0.08715201234956446,1.7341992160276118
1063,14.13673269598958,71.1960896928673,21.76681115383761,0.08716486258320288,1.7340906848932067
1064,14.150031597867276,71.1960896928673,21.759152108488966,0.08716117115235594,1.7338014042844947
1065,14.163330499744973,71.1960896928673,21.749585606617728,0.08714363102602134,1.7333692232490312
1066,14.176629401622666,71.1960896928673,21.739072419813482,0.08711790404873458,1.7328902579291783
1067,14.18992830350036,71.1960896928673,21.729074700328585,0.08709184719259379,1.7325068696152737
1068,14.203227205378056,71.1960896928673,21.721373442384465,0.08707443264047161,1.7323880823141082
1069,14.216526107255753,71.1960896928673,21.717826923312842,0.08707445900214429,1.732704420421014
1070,14.229825009133444,71.1960896928673,21.7201002231779,0.08709920038852842,1.7336002979167155
1071,14.24312391101114,71.1960896928673,21.729401285674946,0.08715319716799123,1.7351680669973766
1072,14.256422812888834,71.1960896928673,21.746261214280263,0.08723739091984387,1.7374279098913736
1073,14.26972171476653,71.1960896928673,21.770394794287743,0.08734874355718156,1.7403168841359327
1074,14.283020616644224,71.1960896928673,21.80066716671057,0.08748040482961175,1.7436891144432731
1075,14.29631951852192,71.1960896928673,21.835175738977753,0.08762241648206122,1.7473275756531612
1076,14.309618420399614,71.1960896928673,21.8714388826561,0.08776286366100376,1.750966233214766
1077,14.32291732227731,71.1960896928673,21.906667578760967,0.08788931730722005,1.7543197589686186
1078,14.336216224155004,71.1960896928673,21.938084039714873,0.08799036759595662,1.7571168657587344
1079,14.349515126032696,71.1960896928673,21.963244189905783,0.08805703294817785,1.7591326764584778
1080,14.362814027910392,71.1960896928673,21.980319886744475,0.08808384393353194,1.7602154301516337
1081,14.376112929788087,71.1960896928673,21.988301427839115,0.08806945440946462,1.760303284208839
1082,14.389411831665782,71.1960896928673,21.987090685400418,0.08801671541614102,1.759428954076136
1083,14.402710733543476,71.1960896928673,21.97747354169938,0.087932221146894,1.75771311428497
1084,14.416009635421172,71.1960896928673,21.96098426239442,0.08782538973657272,1.755348690487937
1085,14.429308537298867,71.1960896928673,21.93968761022829,0.08770720297233005,1.7525772202143406
1086,14.442607439176562,71.1960896928673,21.91590493815298,0.08758878854738748,1.7496591115246594
1087,14.455906341054256,71.1960896928673,21.891915499207457,0.08748004980154594,1.7468418121449683
1088,14.46920524293195,71.1960896928673,21.86967333626588,0.0873885287124699,1.744330640476588
1089,14.482504144809646,71.1960896928673,21.850579591669103,0.08731864392847839,1.7422662342860225
1090,14.49580304668734,71.1960896928673,21.83534021328503,0.08727138662412745,1.7407114259596648
1091,14.509101948565036,71.1960896928673,21.82392634798949,0.08724449237385208,1.7396490688527533
1092,14.52240085044273,71.1960896928673,21.815641095726086,0.08723304654711768,1.7389909470597111
1093,14.535699752320426,71.1960896928673,21.809282660287096,0.08723043034429534,1.738596530953734
1094,14.54899865419812,71.1960896928673,21.80338156587907,0.08722947776764775,1.7382990996251713
1095,14.562297556075816,71.1960896928673,21.796479622667476,0.08722369157718574,1.7379357507216926
1096,14.57559645795351,71.1960896928673,21.787411805150516,0.08720835893629551,1.7373771739296435
1097,14.588895359831204,71.1960896928673,21.775550155763877,0.08718141583491532,1.7365528911179435
1098,14.6021942617089,71.1960896928673,21.7609720099794,0.08714393463676075,1.735468058629277
1099,14.615493163586594,71.1960896928673,21.744523559695548,0.08710015321299264,1.7342089166590693
1100,14.628792065464287,71.1960896928673,21.727763515840476,0.08705702459003363,1.7329355536337747
1101,14.642090967341984,71.1960896928673,21.71278937221886,0.08702332442332993,1.7318626287353847
1102,14.65538986921968,71.1960896928673,21.70196791251298,0.08700840281725598,1.7312302766513858
1103,14.668688771097374,71.1960896928673,21.69760526184395,0.0870207322362998,1.731268355673912
1104,14.681987672975067,71.1960896928673,21.701597574488623,0.08706647214714741,1.73215862072154
1105,14.695286574852764,71.1960896928673,21.715110012291277,0.08714828523679308,1.7340010378621686
1106,14.708585476730455,71.1960896928673,21.738337591724182,0.08726459496142652,1.7367902479616237
1107,14.721884378608152,71.1960896928673,21.770392177989088,0.0874094087858005,1.7404061391144494
1108,14.735183280485847,71.1960896928673,21.80933672594899,0.0875727557486287,1.7446202167178004
1109,14.748482182363542,71.1960896928673,21.852364380288922,0.08774169985160526,1.7491173211789772
1110,14.761781084241235,71.1960896928673,21.89609996273907,0.0879018051321784,1.753530059062717
1111,14.775079986118932,71.1960896928673,21.936983942201252,0.08803885822578104,1.7574813952478818
1112,14.788378887996627,71.1960896928673,21.971686728516143,0.08814061016835638,1.7606295604062865
1113,14.801677789874322,71.1960896928673,21.99749643474391,0.08819828404026712,1.7627088985835686
1114,14.814976691752015,71.1960896928673,22.01262682941415,0.08820761359315268,1.763560640125144
1115,14.82827559362971,71.1960896928673,22.016403674357438,0.08816926450170542,1.7631494132718475
1116,14.841574495507404,71.1960896928673,22.00930624668746,0.08808863148919667,1.761564307000444
1117,14.8548733973851,71.1960896928673,21.992863604789015,0.08797508688542946,1.7590053676568824
1118,14.868172299262795,71.1960896928673,21.969425867263897,0.08784076504658654,1.7557572045269254
1119,14.88147120114049,71.1960896928673,21.94184602231492,0.08769902312648901,1.75215292222476
1120,14.894770103018184,71.1960896928673,21.913118493795416,0.08756281129283242,1.7485336490409777
1121,14.90806900489588,71.1960896928673,21.886025366793113,0.0874432072725767,1.745209582702159
1122,14.921367906773575,71.1960896928673,21.862837039398617,0.08734831852233213,1.742427673834025
1123,14.93466680865127,71.1960896928673,21.845102384065694,0.08728267697094298,1.7403496332812929
1124,14.947965710528964,71.1960896928673,21.833547709923238,0.08724716318520134,1.7390421960934788
1125,14.96126461240666,71.1960896928673,21.828086886725604,0.08723941105524721,1.7384797383715176
1126,14.974563514284354,71.1960896928673,21.82792958329457,0.08725457495366172,1.7385577028741748
1127,14.987862416162049,71.1960896928673,21.831762844193577,0.0872862985651341,1.7391140497848794
1128,15.001161318039744,71.1960896928673,21.837974440448658,0.08732771290345956,1.7399552295967657
1129,15.01446021991744,71.1960896928673,21.844884911508043,0.08737230951606838,1.740883002925396
1130,15.027759121795134,71.1960896928673,21.850958458547915,0.08741457765061798,1.7417187560571834
1131,15.041058023672829,71.1960896928673,21.85496971777351,0.08745035158947838,1.742322671345716
1132,15.054356925550524,71.1960896928673,21.856112422736356,0.08747687479020969,1.7426060626554292
1133,15.06765582742822,71.1960896928673,21.85404542762103,0.08749263931951838,1.7425362203029504
1134,15.080954729305912,71.1960896928673,21.848880017906527,0.08749709297343451,1.7421340803213907
1135,15.094253631183609,71.1960896928673,21.84111875102485,0.08749031707025776,1.7414658223457695
1136,15.107552533061302,71.1960896928673,21.831559640696337,0.08747276478706559,1.7406300354680964
1137,15.120851434938997,71.1960896928673,21.821180307676638,0.08744511759800137,1.7397423472717652
1138,15.134150336816692,71.1960896928673,21.811015292738638,0.08740827422295908,1.738919409605903
1139,15.147449238694389,71.1960896928673,21.802036976440938,0.0873634429093659,1.7382639318802287
1140,15.160748140572082,71.1960896928673,21.79504753578109,0.08731227413977809,1.7378521350544065
1141,15.174047042449777,71.1960896928673,21.790587037067976,0.08725695507169907,1.737724641220342
1142,15.187345944327472,71.1960896928673,21.78886171516325,0.08720019342873112,1.7378813928527626
1143,15.200644846205163,71.1960896928673,21.789696815575443,0.08714504651200548,1.7382807635646111
1144,15.21394374808286,71.1960896928673,21.79251962694099,0.08709459540341496,1.7388428271548482
1145,15.227242649960557,71.1960896928673,21.796379601242702,0.08705151513416909,1.7394567635976135
1146,15.24054155183825,71.1960896928673,21.800012596225734,0.08701763112198847,1.7399922251721085
1147,15.253840453715943,71.1960896928673,21.801954200063165,0.08699356924747094,1.7403141061954106
1148,15.26713935559364,71.1960896928673,21.80070212268185,0.08697860719113894,1.7402997611685864
1149,15.280438257471337,71.1960896928673,21.794919691105505,0.08697081447992044,1.739857307935991
1150,15.29373715934903,71.1960896928673,21.783662531030977,0.08696751227181934,1.7389431934338617
1151,15.307036061226723,71.1960896928673,21.766600695056596,0.08696600193570174,1.7375767836906149
1152,15.320334963104418,71.1960896928673,21.744201267591695,0.08696443478623765,1.7358495168725605
1153,15.333633864982112,71.1960896928673,21.717833998860794,0.08696264265462338,1.7339262794443993
1154,15.346932766859808,71.1960896928673,21.689766773322614,0.0869627305255178,1.7320372483899245
1155,15.360231668737503,71.1960896928673,21.66302972907964,0.08696925671409027,1.7304595195741528
1156,15.373530570615198,71.1960896928673,21.64114563953249,0.08698889277187105,1.729489324863096
1157,15.386829472492892,71.1960896928673,21.627746858201682,0.0870295533910861,1.7294073101050842
1158,15.400128374370588,71.1960896928673,21.626121551272085,0.08709909657459616,1.7304408865124308
1159,15.413427276248283,71.1960896928673,21.638749441233102,0.08720379263965626,1.7327287344986892
1160,15.426726178125978,71.1960896928673,21.666895767183746,0.08734682510554516,1.7362928453057642
1161,15.440025080003672,71.1960896928673,21.710329149224027,0.0875271019324514,1.7410228830112786
1162,15.453323981881368,71.1960896928673,21.76721430755336,0.08773861719288205,1.7466761714857992
1163,15.466622883759062,71.1960896928673,21.834206282068987,0.08797051772101092,1.7528944717728918
1164,15.479921785636757,71.1960896928673,21.90674298708942,0.08820791275608045,1.7592362630796654
1165,15.493220687514452,71.1960896928673,21.979502734092236,0.08843333893896757,1.7652208853309714
1166,15.506519589392148,71.1960896928673,22.046967930697495,0.0886286811073485,1.770379024638417
1167,15.519818491269842,71.1960896928673,22.104019773392675,0.08877727107924013,1.7743029318813748
1168,15.533117393147537,71.1960896928673,22.146484081790952,0.08886585356776394,1.7766894858046365
1169,15.546416295025232,71.1960896928673,22.171555772960627,0.0888861263484634,1.7773698381275533
1170,15.559715196902925,71.1960896928673,22.178047579633226,0.08883564321514867,1.7763220764921381
1171,15.57301409878062,71.1960896928673,22.16643741252015,0.08871799708270231,1.773667636818725
1172,15.586313000658317,71.1960896928673,22.138723138731887,0.08854230920810577,1.769654052630028
1173,15.59961190253601,71.1960896928673,22.098119287626375,0.08832211790348977,1.7646257193975412
1174,15.612910804413705,71.1960896928673,22.048643012633576,0.08807383164145827,1.7589852758028648
1175,15.6262097062914,71.1960896928673,21.994645905417396,0.08781497638359795,1.753150847393298
1176,15.639508608169097,71.1960896928673,21.940353327481006,0.08756247563031587,1.74751509999346
1177,15.65280751004679,71.1960896928673,21.889465989417847,0.0873311590818697,1.7424107892217517
1178,15.666106411924485,71.1960896928673,21.84486210831793,0.08713263289717145,1.7380858642318076
1179,15.67940531380218,71.1960896928673,21.80841970110039,0.08697457815002292,1.7346895849671664
1180,15.692704215679871,71.1960896928673,21.780961245171092,0.08686048570981872,1.7322696758018108
1181,15.706003117557568,71.1960896928673,21.76230931995574,0.08678979343244461,1.7307794481675816
1182,15.719302019435265,71.1960896928673,21.75143312444326,0.08675836674517037,1.730093132726143
1183,15.732600921312958,71.1960896928673,21.746661681310904,0.08675925275404268,1.7300273199238674
1184,15.745899823190651,71.1960896928673,21.74593881904451,0.08678363425181973,1.7303662959094785
1185,15.759198725068348,71.1960896928673,21.747095999023152,0.08682190679483938,1.7308890434709003
1186,15.772497626946045,71.1960896928673,21.748120309203443,0.08686479520404444,1.7313956586924568
1187,15.785796528823738,71.1960896928673,21.74739579644608,0.08690441532990682,1.731730893635626
1188,15.799095430701431,71.1960896928673,21.743896978014217,0.08693517693329457,1.731802536475488
1189,15.812394332579126,71.1960896928673,21.73731482104444,0.08695442113740755,1.7315925087136397
1190,15.82569323445682,71.1960896928673,21.72809896160083,0.08696270003267817,1.731159023329566
1191,15.838992136334516,71.1960896928673,21.717406454267426,0.08696364087183578,1.7306290450907837
1192,15.852291038212211,71.1960896928673,21.70695709802896,0.08696338000685784,1.7301815709884962
1193,15.865589940089906,71.1960896928673,21.698807811894028,0.08696959762602323,1.7300232306653174
1194,15.8788888419676,71.1960896928673,21.69507164147022,0.0869902568629952,1.7303582344795734
1195,15.892187743845296,71.1960896928673,21.69761573117168,0.08703223479554877,1.7313559817286999
1196,15.905486645722991,71.1960896928673,21.70777496613563,0.08710006743648288,1.7331214049672437
1197,15.918785547600686,71.1960896928673,21.726119485700906,0.08719500697654595,1.7356732038527445
1198,15.93208444947838,71.1960896928673,21.752314113902607,0.08731454132873945,1.7389334532390024
1199,15.945383351356076,71.1960896928673,21.78509678881895,0.08745246141089134,1.742730246797526
1200,15.95868225323377,71.1960896928673,21.822382913162194,0.0875994797566262,1.7468133499673157
1201,15.971981155111465,71.1960896928673,21.86148296288229,0.08774431880449483,1.7508810321144437
1202,15.98528005698916,71.1960896928673,21.899404834399196,0.08787511425727954,1.7546145953769965
1203,15.998578958866856,71.1960896928673,21.933200267625608,0.08798092926904785,1.7577159343801867
1204,16.011877860744548,71.1960896928673,21.960308024598525,0.08805315612381892,1.7599429355863538
1205,16.025176762622245,71.1960896928673,21.978846693565004,0.0880865908504037,1.76113765000918
1206,16.038475664499938,71.1960896928673,21.987816236273098,0.08808000308785721,1.7612429663717823
1207,16.051774566377635,71.1960896928673,21.98717900231865,0.08803612623291682,1.760305689091063
1208,16.065073468255328,71.1960896928673,21.977812714896345,0.0879611443896892,1.7584671219363692
1209,16.078372370133025,71.1960896928673,21.961356191560405,0.0878638153872012,1.7559437750238884
1210,16.091671272010718,71.1960896928673,21.93998123227497,0.0877543318491561,1.7530003960211695
1211,16.104970173888415,71.1960896928673,21.91611911535041,0.08764304118307552,1.7499181678874862
1212,16.118269075766108,71.1960896928673,21.89217185213043,0.08753921719506476,1.7469625319611324
1213,16.1315679776438,71.1960896928673,21.870246871376107,0.08745007810807225,1.7443552939185913
1214,16.144866879521498,71.1960896928673,21.85195091073967,0.08738017987074609,1.7422544642953177
1215,16.15816578139919,71.1960896928673,21.83826553283274,0.08733123692508667,1.7407437625648179
1216,16.171464683276888,71.1960896928673,21.829512128826774,0.08730235120493471,1.7398321840320148
1217,16.18476358515458,71.1960896928673,21.825401208914982,0.0872905705417369,1.7394626346640925
1218,16.198062487032278,71.1960896928673,21.82515022187411,0.08729165740327029,1.739527560908595
1219,16.21136138890997,71.1960896928673,21.827647188559535,0.08730093085056637,1.7398888366102987
1220,16.224660290787668,71.1960896928673,21.831634405669554,0.08731404835145713,1.740398946080791
1221,16.23795919266536,71.1960896928673,21.835887162463585,0.08732761655711535,1.7409206865130535
1222,16.251258094543054,71.1960896928673,21.83936615156439,0.08733955649771263,1.7413431245215087
1223,16.26455699642075,71.1960896928673,21.841328105325204,0.08734919280530624,1.7415922719982708
1224,16.277855898298444,71.1960896928673,21.84138608133153,0.0873570816636732,1.7416357734168788
1225,16.29115480017614,71.1960896928673,21.83951770129033,0.08736463128593648,1.7414816993396207
1226,16.304453702053834,71.1960896928673,21.83602562575556,0.08737359592174895,1.7411722160248195
1227,16.31775260393153,71.1960896928673,21.831459024618695,0.08738553603060335,1.7407733792402493
1228,16.331051505809224,71.1960896928673,21.82650755901533,0.08740133280300354,1.7403625567754912
1229,16.34435040768692,71.1960896928673,21.821880583535165,0.08742082742852259,1.740015042918572
1230,16.357649309564614,71.1960896928673,21.81818435214965,0.0874426296682752,1.7397913464570565
1231,16.370948211442307,71.1960896928673,21.815809514719504,0.08746411266188303,1.7397265177439774
1232,16.384247113320004,71.1960896928673,21.8148405566478,0.08748158701350664,1.7398227688256735
1233,16.397546015197697,71.1960896928673,21.814998193845728,0.0874906304196324,1.740046238168475
1234,16.410844917075394,71.1960896928673,21.815624829451004,0.08748653996780358,1.7403280827435004
1235,16.424143818953088,71.1960896928673,21.815721410433824,0.08746487076267945,1.7405699746790932
1236,16.437442720830784,71.1960896928673,21.814040654797992,0.08742202325497372,1.740654452529872
1237,16.450741622708478,71.1960896928673,21.809236080836268,0.08735583909617543,1.7404601872167367
1238,16.464040524586174,71.1960896928673,21.80005847847748,0.08726615936113363,1.7398810519184467
1239,16.477339426463868,71.1960896928673,21.785582082270693,0.08715529018296365,1.7388468852833958
