,time,sample_rate,Red,Green,Blue
0,0.0,75.24274393143878,10.878578675655554,0.03506852019739416,1.6829617418390201
1,0.0132932747684196,75.24274393143878,10.885691260563124,0.03508160639729009,1.6836978723441716
2,0.0265865495368393,75.24274393143878,10.891379477782769,0.03509318824258139,1.6842589952454403
3,0.0398798243052589,75.24274393143878,10.89470540723131,0.03510225871878091,1.6845358202663079
4,0.0531730990736786,75.24274393143878,10.895650532027407,0.03510996600828132,1.6845504758631134
5,0.0664663738420982,75.24274393143878,10.89508449201599,0.03511934796519736,1.6844494182754768
6,0.0797596486105179,75.24274393143878,10.894515941002446,0.03513451578957812,1.684464628633385
7,0.0930529233789375,75.24274393143878,10.895728725764863,0.03515959770033898,1.6848585335026482
8,0.1063461981473572,75.24274393143878,10.900363803158543,0.03519759317180409,1.6858614177138203
9,0.1196394729157768,75.24274393143878,10.909517279313768,0.03524932849689064,1.6876119147664417
10,0.1329327476841965,75.24274393143878,10.923454713503096,0.03531283781305893,1.690116175963364
11,0.1462260224526161,75.24274393143878,10.941530153176624,0.035383480450571436,1.6932395964030504
12,0.1595192972210358,75.24274393143878,10.962331272346395,0.03545483091806929,1.6967339484747272
13,0.1728125719894554,75.24274393143878,10.983989388106567,0.035520018138373674,1.7002892283141156
14,0.1861058467578751,75.24274393143878,11.0045428123082,0.03557302997926485,1.7035918629250193
15,0.1993991215262947,75.24274393143878,11.022252273532757,0.0356096306648546,1.70637338193046
16,0.2126923962947144,75.24274393143878,11.035817904437067,0.035627791796657135,1.7084422332324916
17,0.225985671063134,75.24274393143878,11.044490079744621,0.03562770099068581,1.709698296957027
18,0.2392789458315537,75.24274393143878,11.048087124441508,0.03561145662208057,1.71013275628032
19,0.2525722205999733,75.24274393143878,11.046943001010291,0.0355825636414017,1.7098172638720959
20,0.265865495368393,75.24274393143878,11.041808886055628,0.03554534476646886,1.7088863180392542
21,0.2791587701368127,75.24274393143878,11.03372650638997,0.03550436344734329,1.7075158540647095
22,0.2924520449052323,75.24274393143878,11.023888188386353,0.03546392573610959,1.7059005212695857
23,0.3057453196736519,75.24274393143878,11.013499430474486,0.035427699800468164,1.704232052012747
24,0.3190385944420716,75.24274393143878,11.003658219097208,0.03539846789026264,1.7026807898112293
25,0.3323318692104912,75.24274393143878,10.99526107423493,0.03537800697895998,1.701381797425028
26,0.3456251439789109,75.24274393143878,10.98894146954545,0.03536708162970811,1.700426307722891
27,0.3589184187473305,75.24274393143878,10.985042253296601,0.035365525475087194,1.6998586591076796
28,0.3722116935157502,75.24274393143878,10.983620044450902,0.03537238513545243,1.6996782844529437
29,0.3855049682841698,75.24274393143878,10.984476596186411,0.03538610128191019,1.6998458480125587
30,0.3987982430525895,75.24274393143878,10.98721005498874,0.035404704765460544,1.7002922964055915
31,0.4120915178210091,75.24274393143878,10.991278069766242,0.03542601033804587,1.7009294445075223
32,0.4253847925894288,75.24274393143878,10.996064848450832,0.035447795711933634,1.7016607663362888
33,0.4386780673578485,75.24274393143878,11.000945380748437,0.03546795888522199,1.7023912842873377
34,0.4519713421262681,75.24274393143878,11.00534185669953,0.03548465121049904,1.703035796022771
35,0.4652646168946877,75.24274393143878,11.008769423665102,0.03549638706477976,1.703525074202133
36,0.4785578916631074,75.24274393143878,11.010870423444823,0.03550213276276452,1.7038100406491674
37,0.491851166431527,75.24274393143878,11.011437769008923,0.035501377307423504,1.7038641837491977
38,0.5051444411999467,75.24274393143878,11.0104289039235,0.035494185741712966,1.7036846099027858
39,0.5184377159683663,75.24274393143878,11.007971744777052,0.035481232645794364,1.7032920837350847
40,0.531730990736786,75.24274393143878,11.004363227084054,0.035463809450947084,1.7027302404899936
41,0.5450242655052057,75.24274393143878,11.00005982261082,0.035443795719141,1.70206390322664
42,0.5583175402736253,75.24274393143878,10.995658075479554,0.03542358249779838,1.7013761857957261
43,0.5716108150420449,75.24274393143878,10.991862297238871,0.035405936372225506,1.7007638972583117
44,0.5849040898104646,75.24274393143878,10.989436535822488,0.03539379670554991,1.7003307617793948
45,0.5981973645788843,75.24274393143878,10.989139137250959,0.035390006117223254,1.7001781785273307
46,0.6114906393473039,75.24274393143878,10.991640768077408,0.03539698521703836,1.700393671937962
47,0.6247839141157235,75.24274393143878,10.997430458338975,0.035416375923981086,1.7010377724006016
48,0.6380771888841432,75.24274393143878,11.006718502567159,0.035448691497666274,1.7021307160090247
49,0.6513704636525629,75.24274393143878,11.019349052289952,0.03549302299254205,1.7036409147972194
50,0.6646637384209825,75.24274393143878,11.034737901738923,0.035546857630897884,1.7054774675554907
51,0.6779570131894022,75.24274393143878,11.051851300887533,0.035606061575371474,1.707488918906941
52,0.6912502879578218,75.24274393143878,11.069238915647729,0.03566506605680127,1.7094699520684564
53,0.7045435627262414,75.24274393143878,11.085128124657635,0.03571727186682575,1.7111767281555068
54,0.7178368374946611,75.24274393143878,11.09757822369583,0.03575565930713647,1.7123502737793894
55,0.7311301122630808,75.24274393143878,11.104683033403651,0.03577356239505874,1.7127458741511539
56,0.7444233870315003,75.24274393143878,11.104800633005912,0.03576552894362591,1.7121651161440337
57,0.75771666179992,75.24274393143878,11.09678142512243,0.035728149624278456,1.710486317578487
58,0.7710099365683397,75.24274393143878,11.080162198872209,0.03566072663487809,1.7076887957425184
59,0.7843032113367594,75.24274393143878,11.055295391609464,0.03556567018187169,1.7038668852356438
60,0.797596486105179,75.24274393143878,11.023389533289015,0.0354485429755446,1.6992307918220968
61,0.8108897608735987,75.24274393143878,10.986448078386704,0.035317715192103284,1.6940931070112613
62,0.8241830356420183,75.24274393143878,10.947107817730393,0.035183644539597006,1.6888418396824127
63,0.8374763104104379,75.24274393143878,10.908392593623004,0.03505785077275578,1.6839028251163863
64,0.8507695851788576,75.24274393143878,10.873410768223666,0.03495170208930069,1.6796960228711086
65,0.8640628599472773,75.24274393143878,10.845033723997433,0.03487516582567719,1.6765913174255405
66,0.877356134715697,75.24274393143878,10.825596393256584,0.03483569087203315,1.6748697739647658
67,0.8906494094841165,75.24274393143878,10.816658667403978,0.0348373686927503,1.6746951656804099
68,0.9039426842525362,75.24274393143878,10.81885660247204,0.03488046676267402,1.6760981993019644
69,0.917235959020956,75.24274393143878,10.83185637598666,0.03496138263867599,1.6789743368127397
70,0.9305292337893756,75.24274393143878,10.854410559344721,0.035073035594638736,1.6830956883418557
71,0.9438225085577951,75.24274393143878,10.884507631095095,0.0352056575188891,1.688135891173534
72,0.9571157833262148,75.24274393143878,10.919595133446135,0.03534787436815709,1.693704419016433
73,0.9704090580946344,75.24274393143878,10.956845933542082,0.03548792718491264,1.6993854650173637
74,0.983702332863054,75.24274393143878,10.993433022197712,0.03561487413052109,1.7047765921722065
75,0.9969956076314738,75.24274393143878,11.02678139355582,0.03571962971587283,1.7095230039413005
76,1.0102888823998937,75.24274393143878,11.054772441609657,0.035795729740564726,1.7133443371580783
77,1.023582157168313,75.24274393143878,11.075885248053671,0.0358397550930849,1.7160521649398726
78,1.0368754319367326,75.24274393143878,11.08926864713678,0.035851396601947486,1.7175576871527538
79,1.0501687067051524,75.24274393143878,11.09474651083568,0.03583318846566475,1.7178701928768385
80,1.063461981473572,75.24274393143878,11.092765249902506,0.035789973630233375,1.717087679465369
81,1.0767552562419918,75.24274393143878,11.084296575888196,0.03572819187757951,1.7153814659183202
82,1.090048531010411,75.24274393143878,11.070710175087005,0.035655097994992106,1.7129767564692322
83,1.103341805778831,75.24274393143878,11.0536305509796,0.03557801009860386,1.7101309877529938
84,1.1166350805472507,75.24274393143878,11.03479060230638,0.035503660050847916,1.7071117152538056
85,1.1299283553156705,75.24274393143878,11.015892534388085,0.03543769174821264,1.7041758166396437
86,1.1432216300840898,75.24274393143878,10.998484911590868,0.035384333779455664,1.701551460263316
87,1.1565149048525096,75.24274393143878,10.983862198341484,0.035346250934311776,1.6994236356181216
88,1.1698081796209292,75.24274393143878,10.972990156648377,0.03532455693598469,1.6979236439880492
89,1.1831014543893488,75.24274393143878,10.96645892600791,0.03531895589473939,1.697122817132105
90,1.1963947291577686,75.24274393143878,10.964465337078584,0.03532797326902513,1.6970306789634038
91,1.209688003926188,75.24274393143878,10.966824764279012,0.035349236942406374,1.6975977343251827
92,1.2229812786946077,75.24274393143878,10.973010497268488,0.03537977363493543,1.6987227709031891
93,1.2362745534630275,75.24274393143878,10.982216550456958,0.035416293402058575,1.7002640237394715
94,1.249567828231447,75.24274393143878,10.993438309367951,0.03545544365340228,1.7020531515175628
95,1.2628611029998666,75.24274393143878,11.00556428946154,0.03549402257292289,1.7039107754700031
96,1.2761543777682864,75.24274393143878,11.017471720188693,0.03552914920590384,1.7056622434852011
97,1.289447652536706,75.24274393143878,11.028118784076389,0.03555839326185961,1.7071523130285036
98,1.3027409273051258,75.24274393143878,11.036627089981183,0.03557987139427725,1.7082576058989354
99,1.3160342020735454,75.24274393143878,11.042349164078173,0.035592317971608174,1.708895941213219
100,1.329327476841965,75.24274393143878,11.044917152697254,0.03559513658297421,1.7090319608663034
101,1.3426207516103847,75.24274393143878,11.044270184774387,0.035588434163919415,1.708678833727836
102,1.3559140263788043,75.24274393143878,11.040658816653822,0.03557303678953004,1.7078962057273013
103,1.369207301147224,75.24274393143878,11.034626588852541,0.0355504854588125,1.7067847544712524
104,1.3825005759156437,75.24274393143878,11.026970834800647,0.03552300353164937,1.7054777078326067
105,1.3957938506840633,75.24274393143878,11.018684873423847,0.035493416642504716,1.7041297420790404
106,1.4090871254524828,75.24274393143878,11.01088192187797,0.03546500503617825,1.7029038237332672
107,1.4223804002209026,75.24274393143878,11.004701529401347,0.035441278362145584,1.7019566698216406
108,1.4356736749893222,75.24274393143878,11.001202345144959,0.035425674605049945,1.7014235974076182
109,1.4489669497577418,75.24274393143878,11.001247859754058,0.035421196819113696,1.7014036929877718
110,1.4622602245261616,75.24274393143878,11.005394064750991,0.03543001567136353,1.7019464482215738
111,1.4755534992945811,75.24274393143878,11.013790332501035,0.035453080524949374,1.7030412277190659
112,1.4888467740630007,75.24274393143878,11.026106659202252,0.03548979362674452,1.7046110791293947
113,1.5021400488314205,75.24274393143878,11.041500856955118,0.03553780785668726,1.7065123693343742
114,1.51543332359984,75.24274393143878,11.058637616263079,0.03559300528902298,1.7085414443805376
115,1.52872659836826,75.24274393143878,11.075767148653267,0.0356496978788459,1.7104489134847773
116,1.5420198731366794,75.24274393143878,11.090864416792016,0.03570106376237649,1.7119612629950043
117,1.555313147905099,75.24274393143878,11.10182142742351,0.03573980030834121,1.7128084092090534
118,1.5686064226735188,75.24274393143878,11.106675942863703,0.0357589413368303,1.7127546695073712
119,1.5818996974419384,75.24274393143878,11.103851893128898,0.035752750519044064,1.711629686635659
120,1.595192972210358,75.24274393143878,11.092381442729652,0.03571757478325471,1.7093552996723453
121,1.6084862469787775,75.24274393143878,11.072077465000168,0.035652531775778595,1.705964384521917
122,1.6217795217471973,75.24274393143878,11.043628823297233,0.03555991653958752,1.7016083585362707
123,1.6350727965156169,75.24274393143878,11.008599206323305,0.03544524284491382,1.696551310654027
124,1.648366071284037,75.24274393143878,10.969322283069864,0.03531688091791154,1.6911504173930467
125,1.6616593460524562,75.24274393143878,10.928699892651753,0.03518530927487465,1.6858241854862364
126,1.6749526208208758,75.24274393143878,10.889923726261129,0.03506205543400618,1.6810118413188277
127,1.6882458955892956,75.24274393143878,10.856152407167853,0.03495844943667755,1.6771285866999475
128,1.7015391703577152,75.24274393143878,10.830183243401216,0.03488434824822157,1.6745223490984742
129,1.7148324451261348,75.24274393143878,10.814160898809735,0.034847001869314144,1.6734378695446634
130,1.7281257198945543,75.24274393143878,10.809362912383033,0.0348502124499541,1.6739924551715737
131,1.741418994662974,75.24274393143878,10.816087252948982,0.03489388858704871,1.676164762124039
132,1.754712269431394,75.24274393143878,10.833642634829298,0.03497404687213555,1.6797966500624413
133,1.7680055441998137,75.24274393143878,10.86043164078303,0.03508326896790852,1.684608648707266
134,1.781298818968233,75.24274393143878,10.894121310295333,0.03521156285946337,1.690228290279659
135,1.7945920937366528,75.24274393143878,10.931888477013771,0.03534751065826429,1.6962276526453761
136,1.8078853685050724,75.24274393143878,10.970708570447881,0.03547954422031011,1.7021649644417072
137,1.821178643273492,75.24274393143878,11.007649048802666,0.03559718031093326,1.7076252767310454
138,1.834471918041912,75.24274393143878,11.040133226637456,0.03569206156454043,1.7122559177840877
139,1.847765192810332,75.24274393143878,11.066148327829133,0.03575868423031493,1.7157934911342658
140,1.861058467578751,75.24274393143878,11.084381105536236,0.035794743073957434,1.7180804617086
141,1.8743517423471707,75.24274393143878,11.094274545194649,0.035801079436482745,1.7190706939297122
142,1.8876450171155903,75.24274393143878,11.096008549043349,0.03578127139824224,1.7188244931935555
143,1.9009382918840096,75.24274393143878,11.090415066897902,0.03574094788342928,1.7174946228995898
144,1.9142315666524297,75.24274393143878,11.078843265743897,0.035686938738451364,1.7153053790643087
145,1.9275248414208488,75.24274393143878,11.062992916022726,0.035626387279352176,1.7125272535485676
146,1.9408181161892688,75.24274393143878,11.044734618638602,0.03556594338714806,1.7094500159601995
147,1.9541113909576888,75.24274393143878,11.025934342972127,0.03551112679783813,1.706356827778365
148,1.967404665726108,75.24274393143878,11.008297129389792,0.03546591502984482,1.7035013404479824
149,1.980697940494528,75.24274393143878,10.993240660049864,0.03543257459581906,1.7010892560067536
150,1.9939912152629475,75.24274393143878,10.981804771685374,0.03541172065491225,1.6992655859232946
151,2.007284490031368,75.24274393143878,10.974599877216566,0.03540256362432915,1.6981083243711694
152,2.020577764799787,75.24274393143878,10.971795419898706,0.035403281676439274,1.6976284771654337
153,2.0338710395682065,75.24274393143878,10.973146695530293,0.03541144751015003,1.6977758591508778
154,2.047164314336626,75.24274393143878,10.9780548520379,0.035424440592912575,1.6984498339184622
155,2.0604575891050456,75.24274393143878,10.985652443234734,0.03543979055696213,1.699513819209178
156,2.073750863873465,75.24274393143878,10.99490575824147,0.03545541849486956,1.700811953457256
157,2.087044138641885,75.24274393143878,11.004724700359372,0.03546976615683293,1.70218615942263
158,2.1003374134103048,75.24274393143878,11.014071165788064,0.035481824345250136,1.7034919698819853
159,2.1136306881787243,75.24274393143878,11.02205762001718,0.03549108746338567,1.7046117550158093
160,2.126923962947144,75.24274393143878,11.028028703854359,0.03549746883511283,1.7054643257186954
161,2.1402172377155635,75.24274393143878,11.031620035166359,0.03550121034575049,1.7060102435529236
162,2.1535105124839835,75.24274393143878,11.032789689364982,0.035502811157807665,1.7062526997347878
163,2.166803787252403,75.24274393143878,11.03181913931853,0.035502986187157685,1.7062344569821244
164,2.1800970620208227,75.24274393143878,11.029282439723133,0.03550264915816433,1.7060314724038184
165,2.1933903367892422,75.24274393143878,11.025985185888308,0.03550290136009234,1.7057434747903435
166,2.206683611557662,75.24274393143878,11.022876576607235,0.035504999153844315,1.705481805836139
167,2.2199768863260814,75.24274393143878,11.020938937640283,0.03551027287964767,1.7053553133772648
168,2.2332701610945014,75.24274393143878,11.021061802412207,0.0355199780489389,1.7054554373762574
169,2.246563435862921,75.24274393143878,11.023911879871216,0.03553507619320413,1.7058418180978512
170,2.2598567106313405,75.24274393143878,11.029813572757538,0.03555596456310008,1.706529954194881
171,2.27314998539976,75.24274393143878,11.038656301893354,0.03558219601394404,1.7074825847541437
172,2.28644326016818,75.24274393143878,11.049844630856507,0.035612247426096214,1.708606441578315
173,2.2997365349365992,75.24274393143878,11.06230449285456,0.03564340190812468,1.7097557228346938
174,2.31302980970502,75.24274393143878,11.074553374748382,0.03567180325284939,1.710743022179035
175,2.326323084473439,75.24274393143878,11.084834414063607,0.035692719725596844,1.7113575263928507
176,2.3396163592418584,75.24274393143878,11.091304931861625,0.03570102058367114,1.7113891725678039
177,2.352909634010278,75.24274393143878,11.092260415006287,0.035691828176826625,1.7106563134166
178,2.366202908778697,75.24274393143878,11.086367120821055,0.03566126866861898,1.7090335017629408
179,2.3794961835471176,75.24274393143878,11.072871982608849,0.0356072136340086,1.7064754932898458
180,2.392789458315537,75.24274393143878,11.051758572136698,0.035529890229601804,1.7030336421292946
181,2.4060827330839567,75.24274393143878,11.023822989630053,0.035432243807947246,1.6988615866667411
182,2.4193760078523763,75.24274393143878,10.990653250264113,0.03531996449602482,1.6942084294162463
183,2.432669282620796,75.24274393143878,10.954508686537924,0.03520113504221327,1.6893993241693626
184,2.4459625573892154,75.24274393143878,10.918110102326464,0.03508551422552268,1.6848052286497537
185,2.4592558321576354,75.24274393143878,10.884364609270907,0.034983529061740695,1.6808052592947393
186,2.472549106926055,75.24274393143878,10.85605910558892,0.03490509984650534,1.6777463104460686
187,2.4858423816944746,75.24274393143878,10.835561556560918,0.0348584566388413,1.67590518688641
188,2.499135656462894,75.24274393143878,10.82456910850783,0.03484911706911362,1.6754583212943195
189,2.5124289312313137,75.24274393143878,10.823936456208685,0.03487917197595152,1.6764629609499753
190,2.5257222059997333,75.24274393143878,10.833604408079683,0.03494697098127085,1.6788517157096154
191,2.5390154807681533,75.24274393143878,10.852629664078567,0.035047246083812315,1.6824405862699137
192,2.552308755536573,75.24274393143878,10.879304269941962,0.03517166651357676,1.6869493286642825
193,2.5656020303049925,75.24274393143878,10.911348996471434,0.035309759526388936,1.6920315277281939
194,2.578895305073412,75.24274393143878,10.946157831394453,0.035450069119744514,1.6973102685711705
195,2.592188579841832,75.24274393143878,10.981061651677381,0.035581390503118336,1.7024147089691428
196,2.605481854610252,75.24274393143878,11.013577717765056,0.03569391768883099,1.70701321866162
197,2.618775129378671,75.24274393143878,11.041617779804769,0.03578016479192515,1.7108396739035077
198,2.6320684041470908,75.24274393143878,11.063636508300224,0.03583556257461463,1.7137107533508065
199,2.6453616789155103,75.24274393143878,11.078711707903976,0.0358586832983124,1.7155334616641285
200,2.65865495368393,75.24274393143878,11.08655706099776,0.03585109893388862,1.716303380572754
201,2.671948228452349,75.24274393143878,11.087475680795391,0.03581692248500791,1.7160951401741769
202,2.685241503220769,75.24274393143878,11.082267797257037,0.03576212204394876,1.7150472189036101
203,2.698534777989189,75.24274393143878,11.072108267505877,0.03569372737003197,1.7133434048369156
204,2.7118280527576086,75.24274393143878,11.058409603075273,0.03561904456100279,1.711193139188909
205,2.725121327526028,75.24274393143878,11.042684460193998,0.03554495906541973,1.7088126114725652
206,2.738414602294448,75.24274393143878,11.026418778214257,0.03547737862927131,1.7064080006698472
207,2.751707877062868,75.24274393143878,11.010963638678001,0.03542085192923682,1.704161795550545
208,2.765001151831288,75.24274393143878,10.997450934002767,0.03537837679984065,1.7022227430798214
209,2.778294426599707,75.24274393143878,10.986735340901017,0.03535138658159988,1.7006995673860914
210,2.7915877013681265,75.24274393143878,10.97936296085106,0.03533988185850496,1.6996581896773908
211,2.804880976136546,75.24274393143878,10.975565273666307,0.03534265989962424,1.6991220039716743
212,2.8181742509049656,75.24274393143878,10.97527567298322,0.03535759438249811,1.6990748022984823
213,2.8314675256733857,75.24274393143878,10.978164767967602,0.035381931334609755,1.6994659043286242
214,2.844760800441805,75.24274393143878,10.98368985611139,0.03541257703127963,1.700216914956518
215,2.858054075210225,75.24274393143878,10.991153557177942,0.03544635737972231,1.7012294829769845
216,2.8713473499786444,75.24274393143878,10.999766614844614,0.03548023496660961,1.7023934806330934
217,2.884640624747064,75.24274393143878,11.008710344978416,0.035511478917512385,1.7035951134863452
218,2.8979338995154835,75.24274393143878,11.017195082000475,0.03553778953629286,1.7047245872770174
219,2.9112271742839035,75.24274393143878,11.024512099003356,0.03555738338503918,1.705683085460629
220,2.924520449052323,75.24274393143878,11.030077631622603,0.03556904559371494,1.7063889139358572
221,2.9378137238207427,75.24274393143878,11.03346857079172,0.035572158158882414,1.7067827232205455
222,2.9511069985891623,75.24274393143878,11.034449891656564,0.03556671561559704,1.706831745618308
223,2.964400273357582,75.24274393143878,11.032993821758373,0.03555333416237377,1.706532977898251
224,2.9776935481260014,75.24274393143878,11.029290148810345,0.03553324809790207,1.705915104016372
225,2.9909868228944214,75.24274393143878,11.02374622808681,0.03550828154613957,1.705038727397602
226,3.004280097662841,75.24274393143878,11.01697445450352,0.0354807850867053,1.7039943702296116
227,3.017573372431261,75.24274393143878,11.009764241346488,0.03545352782781831,1.7028977515459844
228,3.03086664719968,75.24274393143878,11.003035310741915,0.03542953590491991,1.7018820050911343
229,3.0441599219681,75.24274393143878,10.997770169868792,0.03541187223618802,1.7010867591140366
230,3.05745319673652,75.24274393143878,10.994926182138652,0.03540336008238553,1.700644411046571
231,3.07074647150494,75.24274393143878,10.99533117394433,0.035406263807536795,1.7006644570642555
232,3.084039746273359,75.24274393143878,10.99957061783136,0.03542195302710762,1.7012173034241351
233,3.0973330210417784,75.24274393143878,11.007878537420968,0.035450588964917124,1.7023194902736194
234,3.110626295810198,75.24274393143878,11.020047491102405,0.0354908815163405,1.7039225782289302
235,3.1239195705786176,75.24274393143878,11.035374331257136,0.03553996913037766,1.7059079663633274
236,3.1372128453470376,75.24274393143878,11.052657091325658,0.035593468480695334,1.7080895414207258
237,3.150506120115457,75.24274393143878,11.070253895882194,0.03564572553953241,1.7102252755682614
238,3.1637993948838767,75.24274393143878,11.086207371347312,0.03569027461340833,1.7120377479625022
239,3.1770926696522963,75.24274393143878,11.098428483287432,0.03572047999350414,1.7132422050786749
240,3.190385944420716,75.24274393143878,11.104923483864528,0.03573030108847812,1.7135794104648423
241,3.2036792191891355,75.24274393143878,11.104038556289389,0.03571509251707324,1.7128494184990433
242,3.2169724939575555,75.24274393143878,11.094690662649725,0.03567233193243389,1.7109417781902885
243,3.230265768725975,75.24274393143878,11.076551528265925,0.035602165208100764,1.7078577041131762
244,3.2435590434943946,75.24274393143878,11.050155378682515,0.035507673321580266,1.7037205030607827
245,3.256852318262814,75.24274393143878,11.016909778758524,0.03539479689450862,1.6987719457024766
246,3.2701455930312338,75.24274393143878,10.979001541576697,0.035271898851062355,1.6933541278407975
247,3.2834388677996538,75.24274393143878,10.93920425834615,0.035148996590330224,1.6878783923658904
248,3.2967321425680733,75.24274393143878,10.900608226660808,0.03503674496698716,1.682784767046592
249,3.310025417336493,75.24274393143878,10.866305158704698,0.034945292534480865,1.6784968173554617
250,3.3233186921049125,75.24274393143878,10.839067160618121,0.034883162370711575,1.6753776591857554
251,3.336611966873332,75.24274393143878,10.8210613872849,0.03485631877228659,1.6736929540514653
252,3.349905241641752,75.24274393143878,10.81363796804162,0.03486754219609154,1.6735853780827157
253,3.363198516410172,75.24274393143878,10.817215916392854,0.0349161538611013,1.675062557673929
254,3.376491791178591,75.24274393143878,10.831272093381928,0.0349980931841304,1.6779988394131276
255,3.389785065947011,75.24274393143878,10.85442553626978,0.03510636137872464,1.6821507610665076
256,3.4030783407154304,75.24274393143878,10.88460561506748,0.03523180463849293,1.6871845863951098
257,3.41637161548385,75.24274393143878,10.91928408571014,0.03536412667778853,1.6927119773860941
258,3.429664890252269,75.24274393143878,10.955739246071683,0.03549297861928381,1.6983287781350094
259,3.442958165020689,75.24274393143878,10.991317016382936,0.03560898147003439,1.703652126690198
260,3.456251439789109,75.24274393143878,11.023659076646934,0.03570456231707295,1.708351957150894
261,3.4695447145575287,75.24274393143878,11.050876810046775,0.0357745223553507,1.7121741616281572
262,3.482837989325948,75.24274393143878,11.071659671343454,0.03581629862769738,1.7149540736521276
263,3.496131264094368,75.24274393143878,11.085316363275185,0.03582992441591843,1.7166202696508863
264,3.509424538862788,75.24274393143878,11.091755368297283,0.03581772938330838,1.7171897760040638
265,3.5227178136312074,75.24274393143878,11.09141702367953,0.035783845853156755,1.7167565005528205
266,3.536011088399627,75.24274393143878,11.085172112990103,0.03573360203356313,1.7154750491945492
267,3.5493043631680465,75.24274393143878,11.074202122108115,0.03567288660350036,1.7135420836059476
268,3.562597637936466,75.24274393143878,11.059874521345817,0.03560755887836958,1.7111771191967158
269,3.5758909127048857,75.24274393143878,11.043623544577756,0.035542957839223475,1.7086042667238324
270,3.5891841874733057,75.24274393143878,11.026843833176907,0.035483541719559544,1.706035996378775
271,3.6024774622417253,75.24274393143878,11.01080165365794,0.03543267120702212,1.703659655749556
272,3.615770737010145,75.24274393143878,10.9965662954309,0.03539253210421325,1.701627232677886
273,3.629064011778565,75.24274393143878,10.984962351051607,0.035364179200922684,1.70004859929322
274,3.642357286546984,75.24274393143878,10.97654204245354,0.03534767206727754,1.6989881863009522
275,3.655650561315404,75.24274393143878,10.971576469474222,0.03534226599925042,1.6984649263358884
276,3.668943836083824,75.24274393143878,10.97006513305521,0.03534662426914301,1.698455335194514
277,3.682237110852243,75.24274393143878,10.97176258605283,0.03535902927260766,1.698899465980088
278,3.695530385620663,75.24274393143878,10.976219594505302,0.03537757745070891,1.6997091757938363
279,3.7088236603890814,75.24274393143878,10.982835001095184,0.03540034455783038,1.7007779099896958
280,3.722116935157502,75.24274393143878,10.990913802498806,0.03542551146444348,1.7019910853324614
281,3.735410209925922,75.24274393143878,10.99972655482235,0.03545144660474355,1.7032361111079481
282,3.748703484694341,75.24274393143878,11.008565219815374,0.035476746562690994,1.704411141430172
283,3.761996759462761,75.24274393143878,11.016791072959416,0.03550024088713773,1.7054318112949327
284,3.7752900342311806,75.24274393143878,11.02387129358349,0.0355209710607428,1.7062354444072565
285,3.7885833089996,75.24274393143878,11.029402247885969,0.03553815610444061,1.706782510107806
286,3.80187658376802,75.24274393143878,11.03311908627646,0.03555115806276566,1.707055526244907
287,3.81516985853644,75.24274393143878,11.034892901032682,0.03555945919396438,1.707056089067973
288,3.8284631333048593,75.24274393143878,11.034718044894529,0.03556265921970932,1.706800888145669
289,3.841756408073279,75.24274393143878,11.032693133948989,0.03556049666511502,1.7063174104454606
290,3.8550496828416985,75.24274393143878,11.029000186012649,0.0355528938934866,1.705639980382787
291,3.868342957610118,75.24274393143878,11.023887051436063,0.03554002003517679,1.704806827479683
292,3.8816362323785376,75.24274393143878,11.017657022300115,0.03552236046213082,1.703858702948707
293,3.8949295071469576,75.24274393143878,11.010666371895788,0.035500778672666586,1.7028391895092614
294,3.908222781915377,75.24274393143878,11.00332808895627,0.03547655650168826,1.7017964270189598
295,3.9215160566837968,75.24274393143878,10.996118599511743,0.035451399406195225,1.700785575888626
296,3.934809331452216,75.24274393143878,10.989582534778432,0.03542739488416314,1.6998710148556688
297,3.948102606220636,75.24274393143878,10.984329004684648,0.03540691458882068,1.6991270900643045
298,3.961395880989056,75.24274393143878,10.981012483235299,0.0353924548454576,1.6986362621803022
299,3.974689155757476,75.24274393143878,10.980292732007053,0.035386416537786555,1.6984837817311391
300,3.987982430525895,75.24274393143878,10.982771264532085,0.035390834005672334,1.698748566997777
301,4.001275705294315,75.24274393143878,10.988906491407716,0.03540707331755528,1.6994907185247667
302,4.014568980062735,75.24274393143878,10.998915299038314,0.035435531731831754,1.7007369754360486
303,4.027862254831154,75.24274393143878,11.012674411107485,0.03547538027622093,1.7024662442434304
304,4.041155529599574,75.24274393143878,11.029639035174098,0.035524397338170054,1.7045979235570035
305,4.054448804367993,75.24274393143878,11.048797774838675,0.03557893903556693,1.7069859279071427
306,4.067742079136413,75.24274393143878,11.068680968666392,0.03563408040983362,1.7094209524402433
307,4.0810353539048325,75.24274393143878,11.087434164471105,0.035683943743351036,1.7116425825652475
308,4.094328628673252,75.24274393143878,11.102960301203286,0.03572220829693827,1.7133614231014669
309,4.107621903441672,75.24274393143878,11.113124348498717,0.035742767425981835,1.7142897046949663
310,4.120915178210091,75.24274393143878,11.11600158282424,0.03574046776318659,1.7141771175215397
311,4.134208452978511,75.24274393143878,11.110137782957459,0.03571184013739028,1.712847257383277
312,4.14750172774693,75.24274393143878,11.094783139121752,0.03565571990910142,1.710229349539223
313,4.160795002515351,75.24274393143878,11.07006324111362,0.035573657826587925,1.7063800436865884
314,4.17408827728377,75.24274393143878,11.037057236323212,0.03547004158929379,1.7014911018604015
315,4.18738155205219,75.24274393143878,10.997764326543361,0.03535188172545917,1.6958806115314546
316,4.2006748268206096,75.24274393143878,10.954954792745085,0.03522825930265255,1.6899676762311635
317,4.213968101589029,75.24274393143878,10.911918362585205,0.03510948098496786,1.684232987465293
318,4.227261376357449,75.24274393143878,10.872138087628535,0.03500603155598566,1.6791698538551878
319,4.240554651125868,75.24274393143878,10.838929441089801,0.034927448017348,1.6752317883539216
320,4.253847925894288,75.24274393143878,10.81509016267008,0.03488125814246943,1.6727833938847259
321,4.267141200662707,75.24274393143878,10.802605767399418,0.03487212593620395,1.6720609293633186
322,4.280434475431127,75.24274393143878,10.802448600578145,0.03490131641826458,1.6731474831254378
323,4.2937277501995466,75.24274393143878,10.814493806627855,0.03496653713469703,1.6759653858038313
324,4.307021024967967,75.24274393143878,10.837556107048796,0.03506216785999493,1.680286174912653
325,4.320314299736387,75.24274393143878,10.86953591549349,0.035179859710452815,1.6857564524481765
326,4.333607574504806,75.24274393143878,10.907654456151885,0.03530943992349936,1.691936075190397
327,4.346900849273226,75.24274393143878,10.948748526971185,0.03544000555017931,1.6983435517868974
328,4.360194124041645,75.24274393143878,10.9895873989149,0.03556106219619681,1.7045029155096785
329,4.373487398810065,75.24274393143878,11.027173708348743,0.03566356682778918,1.7099867218184066
330,4.3867806735784844,75.24274393143878,11.058996660517803,0.03574075519426368,1.7144508710634523
331,4.400073948346904,75.24274393143878,11.083215551302713,0.03578866954081585,1.7176584235400245
332,4.413367223115324,75.24274393143878,11.098762471851996,0.03580634577528076,1.719491192153167
333,4.426660497883743,75.24274393143878,11.105363505528713,0.035795663168918836,1.7199494027889304
334,4.439953772652163,75.24274393143878,11.103486352766042,0.03576089819744679,1.7191409097271657
335,4.453247047420583,75.24274393143878,11.09422809299498,0.03570806062524295,1.7172622224431744
336,4.466540322189003,75.24274393143878,11.079159662746099,0.03564411997219918,1.7145739450141395
337,4.479833596957422,75.24274393143878,11.060146050894536,0.03557622986825725,1.711373383797552
338,4.493126871725842,75.24274393143878,11.039163403505231,0.03551102854500891,1.707967117215093
339,4.5064201464942615,75.24274393143878,11.0181308196546,0.03545407089322334,1.7046458794716424
340,4.519713421262681,75.24274393143878,10.9987664340812,0.03540943565803202,1.7016632873351702
341,4.533006696031101,75.24274393143878,10.982473098094164,0.03537952923087194,1.6992194529287559
342,4.54629997079952,75.24274393143878,10.970258855670238,0.03536507781568042,1.6974503892746502
343,4.55959324556794,75.24274393143878,10.962695556805558,0.03536527924518617,1.696423619070423
344,4.572886520336359,75.24274393143878,10.959915546862318,0.035378076560982186,1.696139548608522
345,4.586179795104779,75.24274393143878,10.961643633748794,0.0354005098256449,1.6965378010455878
346,4.599473069873199,75.24274393143878,10.967259042056014,0.0354290997947309,1.6975078363989575
347,4.612766344641619,75.24274393143878,10.975879735703558,0.035460221130925625,1.6989029540184422
348,4.626059619410039,75.24274393143878,10.986460035086832,0.03549043234043547,1.700556200311462
349,4.639352894178458,75.24274393143878,10.997892053065563,0.03551674067905438,1.7022964765575934
350,4.652646168946878,75.24274393143878,11.009102024556347,0.03553679073050723,1.7039633118679667
351,4.665939443715297,75.24274393143878,11.019134041378186,0.035548974263938514,1.7054190867337955
352,4.679232718483717,75.24274393143878,11.027215848471021,0.03555246818498324,1.7065579050914905
353,4.692525993252136,75.24274393143878,11.032803883781915,0.03554721617804069,1.7073107823966096
354,4.705819268020556,75.24274393143878,11.035607251151484,0.035533870678652324,1.7076472785709425
355,4.719112542788976,75.24274393143878,11.035592401627472,0.03551370572237727,1.707574087964097
356,4.732405817557395,75.24274393143878,11.032971622575738,0.03548850855491557,1.7071313293379042
357,4.745699092325815,75.24274393143878,11.028178834953541,0.035460459280084615,1.7063873268357261
358,4.758992367094235,75.24274393143878,11.021835872111753,0.035432006153499625,1.705432563826469
359,4.772285641862655,75.24274393143878,11.014711545234029,0.03540573932555775,1.7043732632191564
360,4.785578916631074,75.24274393143878,11.00767428335449,0.03538426115025331,1.703324750407321
361,4.798872191399494,75.24274393143878,11.001637480066133,0.03537004768659594,1.7024044739546709
362,4.812165466167913,75.24274393143878,10.997496064780998,0.03536529458871275,1.7017243897456842
363,4.825458740936333,75.24274393143878,10.996053661194537,0.03537174232820676,1.7013824285732249
364,4.8387520157047526,75.24274393143878,10.997941682329905,0.03539048157465331,1.701452998421064
365,4.852045290473172,75.24274393143878,11.003534667922015,0.03542174924270067,1.7019769020230218
366,4.865338565241592,75.24274393143878,11.012869766194372,0.035464735349998826,1.702951599171566
367,4.878631840010011,75.24274393143878,11.02558167577265,0.03551742844452812,1.7043232811111062
368,4.891925114778431,75.24274393143878,11.04086654753035,0.03557653687085677,1.7059825911519895
369,4.905218389546851,75.24274393143878,11.057488305915907,0.03563753098013823,1.707765867926695
370,4.918511664315271,75.24274393143878,11.073837895815867,0.03569484476920628,1.709463400795222
371,4.93180493908369,75.24274393143878,11.088049966022572,0.03574225341073856,1.7108353523477176
372,4.94509821385211,75.24274393143878,11.098173046037605,0.0357734180526063,1.71163480939976
373,4.95839148862053,75.24274393143878,11.102379638457274,0.03578256447150833,1.7116360624019347
374,4.971684763388949,75.24274393143878,11.099193609247934,0.03576522954482602,1.7106649447962299
375,4.984978038157369,75.24274393143878,11.087705726136553,0.03571897571530107,1.708627165250154
376,4.998271312925788,75.24274393143878,11.06774579448565,0.03564396009978539,1.7055302664453675
377,5.011564587694208,75.24274393143878,11.039982514133122,0.03554325617244114,1.7014952715054268
378,5.0248578624626274,75.24274393143878,11.005929945529585,0.03542285217940949,1.6967552248883062
379,5.038151137231047,75.24274393143878,10.96785136980309,0.03529128876825944,1.6916395518981024
380,5.051444411999467,75.24274393143878,10.928565587998662,0.035158947404276567,1.6865451895485688
381,5.064737686767887,75.24274393143878,10.891175071411356,0.03503705388148844,1.681897467037471
382,5.078030961536307,75.24274393143878,10.858747590251937,0.0349365086655783,1.6781054080735405
383,5.091324236304726,75.24274393143878,10.833991031977234,0.03486669189330477,1.6755173415984101
384,5.104617511073146,75.24274393143878,10.818964677311063,0.03483440795605968,1.6743831757517356
385,5.117910785841565,75.24274393143878,10.81486819334931,0.03484311056909609,1.6748281654983495
386,5.131204060609985,75.24274393143878,10.821934112064394,0.03489248796959281,1.676839787815628
387,5.1444973353784045,75.24274393143878,10.839423506646021,0.03497844694341363,1.680268000265783
388,5.157790610146824,75.24274393143878,10.865713744948236,0.03509351977522257,1.6848398925335395
389,5.171083884915244,75.24274393143878,10.898473164165706,0.03522766734737221,1.6901883121117667
390,5.184377159683663,75.24274393143878,10.934910169363242,0.035369372361198526,1.6958906433736114
391,5.197670434452083,75.24274393143878,10.972064403713642,0.035506869782182135,1.7015121085083953
392,5.210963709220503,75.24274393143878,11.007099669393197,0.035629354793487715,1.7066480397115131
393,5.224256983988923,75.24274393143878,11.037563431745074,0.03572802321033412,1.710960311516762
394,5.237550258757342,75.24274393143878,11.061586507384082,0.035796830646406,1.7142042887926958
395,5.250843533525762,75.24274393143878,11.078006747142792,0.035832900623969904,1.716244151401693
396,5.2641368082941815,75.24274393143878,11.086411370757691,0.035836560025259125,1.717056054098561
397,5.277430083062601,75.24274393143878,11.087102527412917,0.035811025962658206,1.7167200469115491
398,5.290723357831021,75.24274393143878,11.08099853066627,0.03576181183484462,1.7154028362365357
399,5.30401663259944,75.24274393143878,11.069488377942333,0.03569595666309931,1.7133342053574885
400,5.31730990736786,75.24274393143878,11.054259475522137,0.035621189947932105,1.7107802099237763
401,5.330603182136279,75.24274393143878,11.037118239652205,0.03554512528292165,1.7080161623336716
402,5.343896456904699,75.24274393143878,11.019821000346791,0.03547455784999163,1.705302011599416
403,5.357189731673119,75.24274393143878,11.003929073346114,0.03541492847280995,1.7028621139353426
404,5.370483006441539,75.24274393143878,10.990697636723349,0.035369995027311446,1.700870634341708
405,5.383776281209959,75.24274393143878,10.98100368974392,0.035341718366384285,1.6994430273942132
406,5.397069555978378,75.24274393143878,10.975314281826005,0.03533033583896508,1.698633423939615
407,5.410362830746798,75.24274393143878,10.973692652734968,0.03533457913162876,1.6984373436464604
408,5.423656105515217,75.24274393143878,10.97583710173803,0.035351994705850105,1.698798809261271
409,5.436949380283637,75.24274393143878,10.981145416992412,0.03537932424201522,1.699620664204413
410,5.450242655052056,75.24274393143878,10.988796603689291,0.03541289785874508,1.7007768163392278
411,5.463535929820476,75.24274393143878,10.997841442654378,0.035448997902500154,1.7021252295086189
412,5.476829204588896,75.24274393143878,11.007294002993646,0.03548416461743088,1.703520673183932
413,5.490122479357315,75.24274393143878,11.016217448214789,0.03551542931464244,1.704826466173227
414,5.503415754125735,75.24274393143878,11.02379906292668,0.03554047315980339,1.7059246698795303
415,5.516709028894155,75.24274393143878,11.029411090546645,0.03555771917523672,1.7067243336745364
416,5.530002303662575,75.24274393143878,11.032655422080254,0.035566370246747143,1.707167462159382
417,5.543295578430994,75.24274393143878,11.033391192732713,0.035566406594312996,1.7072325981755565
418,5.556588853199414,75.24274393143878,11.031744815176458,0.03555855381992202,1.706936267581555
419,5.569882127967833,75.24274393143878,11.02810197933657,0.03554422826947381,1.7063323631060063
420,5.583175402736253,75.24274393143878,11.023081051565,0.03552545877134904,1.7055089243858248
421,5.596468677504673,75.24274393143878,11.017487425141352,0.0355047749773419,1.7045816809983423
422,5.609761952273092,75.24274393143878,11.012248667702625,0.03548504866766599,1.7036842354071433
423,5.623055227041512,75.24274393143878,11.008331118889897,0.035469277333743846,1.702955220528058
424,5.636348501809931,75.24274393143878,11.006640649948247,0.035460307124396705,1.7025231255444084
425,5.649641776578351,75.24274393143878,11.007913517540542,0.03546050444323203,1.7024899420847766
426,5.662935051346771,75.24274393143878,11.01260679331939,0.035471401486829646,1.702915273686768
427,5.676228326115191,75.24274393143878,11.020801013067585,0.03549335771100259,1.703802935223773
428,5.6895216008836105,75.24274393143878,11.032129748331833,0.03552529227086461,1.7050922258008967
429,5.70281487565203,75.24274393143878,11.045750898856085,0.035564547522082254,1.7066558869859603
430,5.71610815042045,75.24274393143878,11.060371965007896,0.03560693729804267,1.708306205351684
431,5.729401425188869,75.24274393143878,11.074336167403803,0.035647014592244876,1.7098097988473668
432,5.742694699957289,75.24274393143878,11.08576840984692,0.0356785629788334,1.7109104331531886
433,5.755987974725708,75.24274393143878,11.092770738951726,0.035695278951574566,1.7113579126376723
434,5.769281249494128,75.24274393143878,11.093647664999008,0.03569157486337736,1.7109398978045085
435,5.782574524262548,75.24274393143878,11.087134252747058,0.035663401665864375,1.7095126479793903
436,5.795867799030967,75.24274393143878,11.072595933473949,0.03560897380902415,1.7070263724748156
437,5.809161073799387,75.24274393143878,11.050169697548307,0.0355292799091407,1.7035412151624179
438,5.822454348567807,75.24274393143878,11.020822066487534,0.03542828342969602,1.6992309041949691
439,5.835747623336227,75.24274393143878,10.986309441084288,0.0353127555147771,1.694372655255515
440,5.849040898104646,75.24274393143878,10.949039627755617,0.035191732069433004,1.6893237988430345
441,5.862334172873066,75.24274393143878,10.911847485002177,0.035075641811884675,1.684487513884211
442,5.875627447641485,75.24274393143878,10.877710387919032,0.03497520286297806,1.6802716777037654
443,5.888920722409905,75.24274393143878,10.849438456511415,0.03490022451680665,1.6770459118313645
444,5.9022139971783245,75.24274393143878,10.829378671272096,0.03485847120855274,1.675102236061938
445,5.915507271946744,75.24274393143878,10.819170516615669,0.034854740681319836,1.6746242783441077
446,5.928800546715164,75.24274393143878,10.81958383048657,0.034890277960469354,1.6756687570493207
447,5.942093821483583,75.24274393143878,10.830457161422252,0.034962601859070276,1.6781611639982439
448,5.955387096252003,75.24274393143878,10.850739258815528,0.03506576831292303,1.6819056485692399
449,5.968680371020423,75.24274393143878,10.878622810939262,0.03519103453815987,1.6866073473942729
450,5.981973645788843,75.24274393143878,10.911750342045929,0.035327829845997,1.6919039297383138
451,5.995266920557262,75.24274393143878,10.947464749656042,0.03546489906463051,1.6974021405031414
452,6.008560195325682,75.24274393143878,10.983072185158672,0.03559146887560755,1.7027148473738518
453,6.0218534700941015,75.24274393143878,11.016086057229403,0.035698294569798845,1.7074945134845552
454,6.035146744862521,75.24274393143878,11.044427209447674,0.03577847155201435,1.7114599348867876
455,6.048440019630941,75.24274393143878,11.066564161272462,0.035827936361821834,1.7144142879046456
456,6.06173329439936,75.24274393143878,11.081586853782605,0.035845628187918054,1.7162537969185656
457,6.07502656916778,75.24274393143878,11.089216082096629,0.035833325580168544,1.7169674531586014
458,6.088319843936199,75.24274393143878,11.089757513027033,0.03579520853415861,1.7166290498514083
459,6.101613118704619,75.24274393143878,11.084013275443306,0.035737224853306,1.7153832917657648
460,6.114906393473039,75.24274393143878,11.073165579709773,0.03566635928421954,1.7134278999341863
461,6.128199668241459,75.24274393143878,11.058646083694711,0.03558989994619222,1.7109935480386373
462,6.141492943009879,75.24274393143878,11.042002599772399,0.03551477184554246,1.7083233210116036
463,6.154786217778298,75.24274393143878,11.024772779827183,0.03544698574404923,1.7056532567073315
464,6.168079492546718,75.24274393143878,11.00837320323838,0.03539123666091495,1.7031952405571167
465,6.181372767315137,75.24274393143878,10.99401002421938,0.0353506686386861,1.7011231123514372
466,6.194666042083557,75.24274393143878,10.982613433086332,0.03532680291213884,1.6995626201777412
467,6.207959316851976,75.24274393143878,10.97479550554129,0.03531961011896596,1.698585693309618
468,6.221252591620396,75.24274393143878,10.97083139641017,0.035327695003146295,1.6982091532999952
469,6.234545866388816,75.24274393143878,10.970664892961498,0.03534855960248534,1.6983977034602165
470,6.247839141157235,75.24274393143878,10.973938112013162,0.03537891665930611,1.6990709189920488
471,6.261132415925655,75.24274393143878,10.98004234517059,0.03541502841640723,1.70011364968689
472,6.274425690694075,75.24274393143878,10.988184976289526,0.035453045572369085,1.7013887770877192
473,6.287718965462495,75.24274393143878,10.997466311405741,0.035489322802204286,1.7027509834392283
474,6.301012240230914,75.24274393143878,11.006959600793303,0.03552069111152767,1.704060151203642
475,6.314305514999334,75.24274393143878,11.015787601299479,0.0355446712855846,1.705193136292879
476,6.3275987897677535,75.24274393143878,11.023189834004615,0.035559616904179574,1.7060529204715953
477,6.340892064536173,75.24274393143878,11.028576109805593,0.03556478049885952,1.7065745235945602
478,6.354185339304593,75.24274393143878,11.031563676624243,0.03556030400619635,1.7067275478951927
479,6.367478614073012,75.24274393143878,11.031997063993208,0.03554714384099119,1.7065157446364254
480,6.380771888841432,75.24274393143878,11.029951094048045,0.035526945971823744,1.7059742691286854
481,6.394065163609851,75.24274393143878,11.02571919075299,0.0355018863191706,1.7051652779822455
482,6.407358438378271,75.24274393143878,11.019790765770477,0.03547449205810818,1.7041724704912138
483,6.420651713146691,75.24274393143878,11.012820705012304,0.03544745980731381,1.7030951112222323
484,6.433944987915111,75.24274393143878,11.005591100418405,0.03542348298492843,1.7020418534230657
485,6.4472382626835305,75.24274393143878,10.998963991795799,0.03540509371201423,1.7011243802465332
486,6.46053153745195,75.24274393143878,10.993824507014024,0.03539451793263612,1.7004506502584504
487,6.47382481222037,75.24274393143878,10.991014422497,0.03539353787519482,1.7001174567553865
488,6.487118086988789,75.24274393143878,10.99125696451251,0.03540335497806129,1.7002021263455813
489,6.500411361757209,75.24274393143878,10.99507557858368,0.03542444977869902,1.7007534934568471
490,6.513704636525628,75.24274393143878,11.00271224995502,0.035456442804671764,1.701782743918214
491,6.526997911294048,75.24274393143878,11.014054122916434,0.035497970829848235,1.7032552241569692
492,6.540291186062468,75.24274393143878,11.028579833152596,0.03554660351910957,1.705084730756538
493,6.553584460830887,75.24274393143878,11.045338210902202,0.03559883334322397,1.7071319889106147
494,6.566877735599308,75.24274393143878,11.062971024247755,0.03565017352028363,1.7092088846885656
495,6.580171010367727,75.24274393143878,11.079787748476972,0.035695392204610245,1.711089481113805
496,6.593464285136147,75.24274393143878,11.093894052167947,0.03572889531889623,1.7125279507751332
497,6.606757559904566,75.24274393143878,11.10336750340562,0.03574524655077112,1.7132824165506482
498,6.620050834672986,75.24274393143878,11.10646521641994,0.03573978461678413,1.7131425006126118
499,6.633344109441405,75.24274393143878,11.101840432155825,0.0357092702858745,1.7119573739706189
500,6.646637384209825,75.24274393143878,11.088740026158257,0.03565247505529087,1.7096604998216716
501,6.6599306589782445,75.24274393143878,11.067153976368196,0.03557061545545596,1.706287240100778
502,6.673223933746664,75.24274393143878,11.037891539487596,0.03546754542074219,1.7019821124256127
503,6.686517208515084,75.24274393143878,11.002567062291769,0.03534964462459514,1.69699369126028
504,6.699810483283503,75.24274393143878,10.963489928931828,0.03522538029912295,1.6916567768538628
505,6.713103758051923,75.24274393143878,10.923466388061133,0.035104567921338176,1.6863632581476544
506,6.726397032820343,75.24274393143878,10.88553382468357,0.03499740454359547,1.6815247922021026
507,6.739690307588763,75.24274393143878,10.852658441498258,0.03491338915636229,1.6775317395180656
508,6.752983582357182,75.24274393143878,10.827433617453043,0.03486027220350747,1.674713630652956
509,6.766276857125602,75.24274393143878,10.811818286399323,0.03484318488486089,1.6733066029011563
510,6.779570131894022,75.24274393143878,10.806951763725078,0.03486406656627857,1.6734317023410785
511,6.792863406662441,75.24274393143878,10.813066113113903,0.034921441130505264,1.6750850005834232
512,6.806156681430861,75.24274393143878,10.829492304765857,0.03501055220836599,1.6781392527013312
513,6.81944995619928,75.24274393143878,10.854746886249863,0.03512385928624333,1.6823575092901217
514,6.8327432309677,75.24274393143878,10.886693059039223,0.0352518544936683,1.6874180222126083
515,6.846036505736119,75.24274393143878,10.922764716129793,0.03538409000858879,1.692947081422054
516,6.859329780504539,75.24274393143878,10.960224591737449,0.03551027050610121,1.6985551190189399
517,6.87262305527296,75.24274393143878,10.99642134538187,0.03562126969748176,1.703871709951807
518,6.885916330041379,75.24274393143878,11.029016059221034,0.03570995311173909,1.7085758588920639
519,6.899209604809799,75.24274393143878,11.056156963617472,0.03577172456157078,1.712418952682904
520,6.912502879578218,75.24274393143878,11.07659014092153,0.03580475652168988,1.715238899962922
521,6.925796154346638,75.24274393143878,11.089702890454008,0.03580990768023306,1.716965097170348
522,6.939089429115057,75.24274393143878,11.095504162684579,0.03579036743413149,1.7176148248736318
523,6.952382703883477,75.24274393143878,11.094552270586508,0.03575109306692455,1.7172824088948466
524,6.9656759786518965,75.24274393143878,11.087843645460753,0.03569812428993045,1.7161229516763705
525,6.978969253420316,75.24274393143878,11.076677830657616,0.03563787086154039,1.7143326679904483
526,6.992262528188736,75.24274393143878,11.062513556164435,0.03557645824902684,1.7121278859723155
527,7.005555802957155,75.24274393143878,11.046829144766637,0.03551918722423876,1.709724648024674
528,7.018849077725576,75.24274393143878,11.030998442776403,0.035470140771061545,1.707320616998311
529,7.032142352493995,75.24274393143878,11.01619129868027,0.035431959330430834,1.7050806866347907
530,7.045435627262415,75.24274393143878,11.00330474413066,0.035405789015565126,1.7031272978288825
531,7.058728902030834,75.24274393143878,10.992927342323206,0.03539138778447123,1.7015359879229126
532,7.072022176799254,75.24274393143878,10.985335831514837,0.03538736073654913,1.700336200281753
533,7.0853154515676735,75.24274393143878,10.980520993689398,0.0353914882118787,1.6995168540893681
534,7.098608726336093,75.24274393143878,10.978237926203963,0.03540110489596249,1.6990356415148968
535,7.111902001104513,75.24274393143878,10.97807378774073,0.035413484597245755,1.698830624467739
536,7.125195275872932,75.24274393143878,10.979524151538048,0.03542618655647893,1.698832518232668
537,7.138488550641352,75.24274393143878,10.982068307342653,0.03543732536247007,1.698976013375701
538,7.151781825409771,75.24274393143878,10.985234397649798,0.03544573648903167,1.6992086243167641
539,7.165075100178191,75.24274393143878,10.988646936246846,0.03545102251010623,1.6994959373819027
540,7.178368374946611,75.24274393143878,10.992051875323613,0.03545348166998088,1.699822715683815
541,7.191661649715031,75.24274393143878,10.99531767505346,0.03545393854401854,1.700189985176559
542,7.2049549244834505,75.24274393143878,10.99841434372871,0.03545350936670147,1.700608867694319
543,7.21824819925187,75.24274393143878,11.001375658329225,0.03545334022821159,1.7010924424596756
544,7.23154147402029,75.24274393143878,11.004252269127601,0.03545435827226343,1.701647225814917
545,7.244834748788709,75.24274393143878,11.007064764971872,0.035457073940862914,1.7022659141474639
546,7.258128023557129,75.24274393143878,11.009765815215989,0.03546146542271855,1.7029228325695709
547,7.271421298325548,75.24274393143878,11.012219184779685,0.03546696571504957,1.7035731064034343
548,7.284714573093968,75.24274393143878,11.01420090159108,0.03547255704561325,1.7041559885558797
549,7.2980078478623875,75.24274393143878,11.015424460506077,0.03547695918363754,1.7046021179435382
550,7.311301122630807,75.24274393143878,11.015588107341946,0.0354788829758984,1.7048438347679342
551,7.324594397399228,75.24274393143878,11.014438451126322,0.03547731003359383,1.7048271287664873
552,7.337887672167647,75.24274393143878,11.011841393504042,0.03547175394100507,1.7045234950480117
553,7.351180946936067,75.24274393143878,11.00784908641798,0.03546246042081364,1.7039399499198666
554,7.364474221704486,75.24274393143878,11.002750696261588,0.035450513257479485,1.7031255120102349
555,7.377767496472906,75.24274393143878,10.997095409037902,0.03543782240119317,1.702172583792519
556,7.391060771241325,75.24274393143878,10.991678452904546,0.03542697972855144,1.7012121543461665
557,7.404354046009745,75.24274393143878,10.987484889642557,0.035420983804223774,1.700402554559476
558,7.417647320778165,75.24274393143878,10.985591319342255,0.03542285621691086,1.6999123569943837
559,7.430940595546584,75.24274393143878,10.987031992218858,0.035435190358061634,1.699898844173747
560,7.444233870315004,75.24274393143878,10.992642534497243,0.03545968694472932,1.7004842647683205
561,7.457527145083423,75.24274393143878,11.00290057444972,0.03549673943439136,1.7017327558277777
562,7.470820419851844,75.24274393143878,11.017785855258813,0.03554513213226197,1.7036311991302786
563,7.484113694620263,75.24274393143878,11.036682098845493,0.03560190317466754,1.7060772842214715
564,7.497406969388683,75.24274393143878,11.058341192201643,0.0356624113151008,1.7088775670099543
565,7.5107002441571025,75.24274393143878,11.08092675660709,0.035720629737689705,1.7117572867084019
566,7.523993518925522,75.24274393143878,11.102144877247198,0.03576966438750864,1.7143822883105322
567,7.537286793693942,75.24274393143878,11.119455727551324,0.035802461104634115,1.716391823717451
568,7.550580068462361,75.24274393143878,11.13034659679639,0.03581263157775607,1.7174392662008293
569,7.563873343230781,75.24274393143878,11.132636636504445,0.03579529867170439,1.7172360536397107
570,7.5771666179992,75.24274393143878,11.124775402107218,0.03574784789928068,1.715593103553631
571,7.59045989276762,75.24274393143878,11.106092747565842,0.03567047708265404,1.7124538422707192
572,7.603753167536039,75.24274393143878,11.076960864007917,0.035566455424390374,1.7079137291740742
573,7.617046442304459,75.24274393143878,11.038840180797424,0.035442034642173166,1.7022226492413297
574,7.630339717072879,75.24274393143878,10.994196063486825,0.03530599729860896,1.695768691872316
575,7.643632991841299,75.24274393143878,10.94629047043122,0.03516887551532329,1.6890443344518153
576,7.656926266609719,75.24274393143878,10.898870079338508,0.03504191977315578,1.6825985203109846
577,7.670219541378138,75.24274393143878,10.855787193650487,0.03493593547525357,1.6769801905075925
578,7.683512816146558,75.24274393143878,10.82059959333448,0.03486012822733626,1.6726801753396865
579,7.696806090914977,75.24274393143878,10.796198867537859,0.034821104329332705,1.6700788605019354
580,7.710099365683397,75.24274393143878,10.784513366539972,0.034822158729969854,1.6694065828837228
581,7.723392640451816,75.24274393143878,10.786322197370074,0.03486294042249835,1.670721477094357
582,7.736685915220236,75.24274393143878,10.801200245958016,0.03493952160752345,1.673905884704867
583,7.749979189988656,75.24274393143878,10.827593761504554,0.035044847413618956,1.678680320704674
584,7.763272464757075,75.24274393143878,10.863009992039355,0.03516951476999163,1.6846336774957662
585,7.776565739525496,75.24274393143878,10.904295079691687,0.03530279134211914,1.691266772569922
586,7.789859014293915,75.24274393143878,10.947966087205915,0.03543374353200126,1.6980436952239413
587,7.803152289062335,75.24274393143878,10.990556453481629,0.035552328301118506,1.7044443214575151
588,7.816445563830754,75.24274393143878,11.028935014268752,0.0356503189911842,1.710011974610001
589,7.829738838599174,75.24274393143878,11.06056631906835,0.03572196721909628,1.7143914585443996
590,7.8430321133675935,75.24274393143878,11.08369062049519,0.03576434487932143,1.71735427812917
591,7.856325388136013,75.24274393143878,11.097413535779967,0.03577735623344875,1.7188096179030201
592,7.869618662904433,75.24274393143878,11.10170639954875,0.03576345238844969,1.7188013265919482
593,7.882911937672852,75.24274393143878,11.097327385436856,0.03572711337961518,1.7174925410755757
594,7.896205212441272,75.24274393143878,11.085679621405983,0.035674185769221836,1.7151405706123046
595,7.909498487209691,75.24274393143878,11.068625693985869,0.03561117425203167,1.7120654194226053
596,7.922791761978112,75.24274393143878,11.04828017872251,0.03554457652368592,1.7086158341799735
597,7.936085036746531,75.24274393143878,11.026803384726223,0.03548032532765966,1.705136480851123
598,7.949378311514951,75.24274393143878,11.006216169084672,0.035423376218832583,1.7019389070782927
599,7.962671586283371,75.24274393143878,10.988248106635876,0.03537745600639617,1.6992782354914178
600,7.97596486105179,75.24274393143878,10.974225462510967,0.03534496107125934,1.6973370004112223
601,7.98925813582021,75.24274393143878,10.965002000182407,0.0353269782181617,1.696216676955496
602,8.00255141058863,75.24274393143878,10.960933355814127,0.03532339801987249,1.6959367293794776
603,8.015844685357049,75.24274393143878,10.96189431221277,0.035333090155601314,1.6964406759074828
604,8.02913796012547,75.24274393143878,10.967335167324022,0.03535411003928548,1.6976081754873016
605,8.042431234893888,75.24274393143878,10.976368764275241,0.03538391240352469,1.6992714890941854
606,8.055724509662308,75.24274393143878,10.987877062466467,0.03541955810870162,1.7012343355755846
607,8.069017784430727,75.24274393143878,11.000625745048737,0.035457909533484856,1.7032911881098258
608,8.082311059199148,75.24274393143878,11.013376087107869,0.03549581543733089,1.7052452696533542
609,8.095604333967566,75.24274393143878,11.024984959421309,0.03553028785112785,1.706923857561776
610,8.108897608735987,75.24274393143878,11.03448629320352,0.0355586718527992,1.7081899542027668
611,8.122190883504405,75.24274393143878,11.041150204155826,0.035578805350394184,1.7089498590485506
612,8.135484158272826,75.24274393143878,11.04451883997778,0.03558916186739889,1.7091566841214962
613,8.148777433041246,75.24274393143878,11.044420388948504,0.03558896581566521,1.7088103193324125
614,8.162070707809665,75.24274393143878,11.040964264415617,0.03557826791893902,1.707954561547955
615,8.175363982578085,75.24274393143878,11.034521587260333,0.035557972100903286,1.7066720604557497
616,8.188657257346504,75.24274393143878,11.025695616024702,0.035529813117588016,1.705077653086279
617,8.201950532114925,75.24274393143878,11.015285424431122,0.035496285322082835,1.703310593981621
618,8.215243806883343,75.24274393143878,11.004243283291377,0.035460516880047754,1.7015260134630528
619,8.228537081651764,75.24274393143878,10.993624325821767,0.03542608438753976,1.699885703646231
620,8.241830356420182,75.24274393143878,10.984526725826502,0.03539677070577324,1.6985481695574574
621,8.255123631188603,75.24274393143878,10.978020809036344,0.035376274131917025,1.6976578535509586
622,8.268416905957022,75.24274393143878,10.975066498275165,0.03536788002773481,1.6973335754990362
623,8.281710180725442,75.24274393143878,10.976420873523898,0.0353741112344822,1.697656532417919
624,8.29500345549386,75.24274393143878,10.98254126680252,0.03539638200906697,1.6986586298867326
625,8.308296730262281,75.24274393143878,10.993493502664217,0.0354346904106766,1.7003123908309246
626,8.321590005030702,75.24274393143878,11.008878119308669,0.03548738984719072,1.7025240864433149
627,8.33488327979912,75.24274393143878,11.027788679581082,0.035551079601457175,1.705131925147302
628,8.34817655456754,75.24274393143878,11.048816293784201,0.035620655231220516,1.707910998294714
629,8.36146982933596,75.24274393143878,11.07011234141516,0.03568955923674276,1.7105861426994888
630,8.37476310410438,75.24274393143878,11.089514779786647,0.03575025282118535,1.7128529438541276
631,8.388056378872799,75.24274393143878,11.104734317736304,0.035794894070333434,1.7144058668072655
632,8.401349653641219,75.24274393143878,11.113587904749238,0.03581617224415013,1.7149711508046748
633,8.414642928409638,75.24274393143878,11.114256516506352,0.035808213017585695,1.714340887890927
634,8.427936203178058,75.24274393143878,11.105533663484598,0.03576743871004317,1.7124038887305673
635,8.441229477946477,75.24274393143878,11.087027439689614,0.03569325564779917,1.7091687421005026
636,8.454522752714897,75.24274393143878,11.05928356190001,0.0355884528089298,1.7047750218341016
637,8.467816027483318,75.24274393143878,11.023805975159702,0.03545922639704987,1.6994898766128255
638,8.481109302251737,75.24274393143878,10.982964056148907,0.03531479055220996,1.6936891019427747
639,8.494402577020157,75.24274393143878,10.939790769546963,0.03516659075035668,1.6878239670110815
640,8.507695851788576,75.24274393143878,10.897691965037911,0.03502719494039867,1.6823772131433703
641,8.520989126556996,75.24274393143878,10.860100621800514,0.034908988307402584,1.6778134005197527
642,8.534282401325415,75.24274393143878,10.830118960781006,0.034822832256529226,1.6745299394585957
643,8.547575676093835,75.24274393143878,10.810194935718583,0.03477686031755792,1.672815451608472
644,8.560868950862254,75.24274393143878,10.801876752423583,0.034775568403001125,1.6728207291222947
645,8.574162225630674,75.24274393143878,10.80567515236349,0.03481931601415779,1.674544746418692
646,8.587455500399093,75.24274393143878,10.821040754980004,0.03490429982942785,1.6778363930745706
647,8.600748775167514,75.24274393143878,10.846449653891405,0.03502300029042185,1.682412116713915
648,8.614042049935934,75.24274393143878,10.87958694266142,0.03516503817708109,1.6878878648809006
649,8.627335324704353,75.24274393143878,10.917607700126842,0.03531832191042518,1.6938208598442983
650,8.640628599472773,75.24274393143878,10.95743955201505,0.0354703312911885,1.6997552693726494
651,8.653921874241192,75.24274393143878,10.996085548407587,0.03560937438510459,1.7052659724987502
652,8.667215149009612,75.24274393143878,11.030891366216855,0.035725669306995306,1.7099955068297694
653,8.680508423778031,75.24274393143878,11.059750326767519,0.03581213741964935,1.7136806728404774
654,8.693801698546451,75.24274393143878,11.08123113646212,0.03586484195040772,1.7161669740341698
655,8.70709497331487,75.24274393143878,11.09462506853635,0.03588305726990484,1.7174107958959974
656,8.72038824808329,75.24274393143878,11.099919617403597,0.035869001011313933,1.717470715957368
657,8.73368152285171,75.24274393143878,11.097713150404864,0.03582730037740334,1.716490405172524
658,8.74697479762013,75.24274393143878,11.089089106153706,0.035764290984839346,1.7146761402171393
659,8.76026807238855,75.24274393143878,11.075468817886435,0.03568725184344681,1.7122719991112874
660,8.773561347156969,75.24274393143878,11.058459798887421,0.035603665314628816,1.7095354554263775
661,8.78685462192539,75.24274393143878,11.039713264518113,0.035520571099833066,1.706715545337842
662,8.800147896693808,75.24274393143878,11.020801692649352,0.035444063114351824,1.7040351912152454
663,8.813441171462228,75.24274393143878,11.00312258847817,0.03537895362483033,1.7016785201497826
664,8.826734446230647,75.24274393143878,10.987829104186828,0.03532860399256052,1.6997832133691082
665,8.840027720999068,75.24274393143878,10.975785595772717,0.035294902485527184,1.6984373656162441
666,8.853320995767486,75.24274393143878,10.967545798160218,0.035278358705517474,1.6976800562791745
667,8.866614270535907,75.24274393143878,10.963350275786464,0.03527827750490872,1.697504807775824
668,8.879907545304325,75.24274393143878,10.96313991886229,0.03529297233424711,1.697865271177145
669,8.893200820072746,75.24274393143878,10.966584072175213,0.035319986867698064,1.6986825567802624
670,8.906494094841166,75.24274393143878,10.973122175074657,0.03535631165001857,1.6998535793962923
671,8.919787369609585,75.24274393143878,10.98201630246107,0.03539859310176415,1.7012598152849485
672,8.933080644378006,75.24274393143878,10.992411033902453,0.035443333421322186,1.7027759699874994
673,8.946373919146424,75.24274393143878,11.003396890222952,0.03548708100328506,1.7042781425481883
674,8.959667193914845,75.24274393143878,11.014073494086896,0.035526612392355134,1.7056511384515551
675,8.972960468683263,75.24274393143878,11.02360869283039,0.03555910530499713,1.7067946240900986
676,8.986253743451684,75.24274393143878,11.03129026782002,0.03558229859726338,1.7076278491181713
677,8.999547018220103,75.24274393143878,11.036567532088304,0.035594630710261026,1.708092892796191
678,9.012840292988525,75.24274393143878,11.039080881441407,0.03559534460538143,1.708156777273636
679,9.026133567756942,75.24274393143878,11.038678157587267,0.03558454775897925,1.7078127623959836
680,9.039426842525362,75.24274393143878,11.035418506541085,0.035563220638560475,1.7070807012724776
681,9.05272011729378,75.24274393143878,11.029566891291987,0.035533170222543146,1.7060062523988344
682,9.0660133920622,75.24274393143878,11.021582115184966,0.03549692590059709,1.7046590258206524
683,9.079306666830622,75.24274393143878,11.012098172337401,0.03545758017867323,1.7031298250861076
684,9.09259994159904,75.24274393143878,11.001897487025735,0.035418584807677775,1.7015270089893377
685,9.10589321636746,75.24274393143878,10.991875428615641,0.03538351734927326,1.69997185960236
686,9.11918649113588,75.24274393143878,10.982995425128628,0.03535583308172706,1.6985927513142876
687,9.1324797659043,75.24274393143878,10.976233253569957,0.035338615122896884,1.69751788643602
688,9.14577304067272,75.24274393143878,10.972509247116427,0.03533433304114483,1.6968664370148192
689,9.15906631544114,75.24274393143878,10.97260862109097,0.035344618440529246,1.6967381404690378
690,9.172359590209558,75.24274393143878,10.977092815472686,0.03537006635249423,1.6972017478605985
691,9.185652864977978,75.24274393143878,10.986208513846874,0.03541007348706487,1.6982831897668964
692,9.198946139746395,75.24274393143878,10.999805108269529,0.03546272826722294,1.6999548313941926
693,9.212239414514816,75.24274393143878,11.01727391458934,0.03552477404904098,1.702127618362693
694,9.225532689283238,75.24274393143878,11.037522499370464,0.03559167326046321,1.7046481257382284
695,9.238825964051657,75.24274393143878,11.05899686440607,0.035657799351927984,1.7073023825441476
696,9.252119238820075,75.24274393143878,11.07976222345752,0.03571677308879961,1.7098277693110495
697,9.265412513588496,75.24274393143878,11.0976460762719,0.035761944970670055,1.711933281666081
698,9.278705788356916,75.24274393143878,11.110436718734874,0.03578700724650949,1.7133271305203577
699,9.291999063125337,75.24274393143878,11.11612037351674,0.03578669002122432,1.7137492216103927
700,9.305292337893755,75.24274393143878,11.11313083515044,0.03575746209592178,1.7130048003456206
701,9.318585612662174,75.24274393143878,11.100577974759487,0.03569813810804755,1.7109947432130992
702,9.331878887430594,75.24274393143878,11.078419979538543,0.03561029489422909,1.70773784410166
703,9.345172162199011,75.24274393143878,11.047549764462607,0.0354984150435049,1.7033810862375394
704,9.358465436967434,75.24274393143878,11.009776260628726,0.035369703623559616,1.6981952659332185
705,9.371758711735854,75.24274393143878,10.967694843390198,0.035233565147399115,1.692555259842683
706,9.385051986504273,75.24274393143878,10.924456654899176,0.03510077612386846,1.6869064107711487
707,9.398345261272691,75.24274393143878,10.883461530699797,0.03498243611447359,1.681720612106214
708,9.411638536041112,75.24274393143878,10.84801118321397,0.03488881920632735,1.677447359339284
709,9.424931810809532,75.24274393143878,10.820966266613828,0.03482827390207482,1.6744661611777643
710,9.438225085577953,75.24274393143878,10.804452740624653,0.03480632637503934,1.6730470080574547
711,9.451518360346371,75.24274393143878,10.799658820328032,0.03482510509693563,1.6733238662053633
712,9.46481163511479,75.24274393143878,10.806746051216825,0.03488313030277992,1.6752827273710742
713,9.47810490988321,75.24274393143878,10.824870005902191,0.03497547065612181,1.6787641736626218
714,9.49139818465163,75.24274393143878,10.852294287673574,0.03509426804832359,1.6834809485870281
715,9.50469145942005,75.24274393143878,10.88658771467684,0.03522959021593494,1.689049505365331
716,9.51798473418847,75.24274393143878,10.924888120100542,0.03537049622026215,1.6950311469955597
717,9.531278008956887,75.24274393143878,10.964197782692073,0.03550616299672833,1.7009767157420779
718,9.54457128372531,75.24274393143878,11.001669609653936,0.03562692825639585,1.706469104866236
719,9.557864558493728,75.24274393143878,11.03485066918039,0.035725130701889936,1.711158878982269
720,9.571157833262149,75.24274393143878,11.061860399545754,0.03579566591061724,1.7147897073982712
721,9.584451108030567,75.24274393143878,11.081492236178676,0.035836220745058066,1.7172119895739986
722,9.597744382798988,75.24274393143878,11.093238475349525,0.03584719340057749,1.7183846993676002
723,9.611037657567406,75.24274393143878,11.097247336760041,0.03583134300994805,1.7183668614515741
724,9.624330932335829,75.24274393143878,11.094227449476419,0.03579323809103579,1.7173010369359165
725,9.637624207104244,75.24274393143878,11.085318010153912,0.035738593343865525,1.7153916464783958
726,9.650917481872666,75.24274393143878,11.071942905681194,0.03567359764723506,1.712880936675771
727,9.664210756641086,75.24274393143878,11.05566482947652,0.03560431997636576,1.7100252065268033
728,9.677504031409503,75.24274393143878,11.038051771198178,0.03553623854053788,1.70707364970867
729,9.690797306177926,75.24274393143878,11.020564251812102,0.03547390929634095,1.7042513750110306
730,9.704090580946344,75.24274393143878,11.004468090748157,0.03542077849299579,1.701746987672818
731,9.717383855714765,75.24274393143878,10.990774416657572,0.0353791295860656,1.6997044615202264
732,9.730677130483183,75.24274393143878,10.980205668725077,0.0353501387883928,1.6982189730766482
733,9.743970405251604,75.24274393143878,10.973184001276888,0.03533400532974752,1.6973363010628402
734,9.757263680020024,75.24274393143878,10.969838287315609,0.03533012208762645,1.6970552523206504
735,9.770556954788445,75.24274393143878,10.970027166417033,0.035337256990624226,1.6973325407725608
736,9.783850229556862,75.24274393143878,10.973375770385996,0.03535372355093922,1.6980895847920119
737,9.797143504325282,75.24274393143878,10.979322806507906,0.0353775280072985,1.6992207179703713
738,9.810436779093704,75.24274393143878,10.987174212229661,0.03540648906591795,1.7006023084394595
739,9.82373005386212,75.24274393143878,10.996159724367107,0.03543833304645209,1.7021022657390015
740,9.837023328630542,75.24274393143878,11.005488885783647,0.03547077188274817,1.7035893941781997
741,9.85031660339896,75.24274393143878,11.014403255212041,0.03550157350934383,1.704942040869472
742,9.86360987816738,75.24274393143878,11.022221992430259,0.03552863353121904,1.7060554779120343
743,9.8769031529358,75.24274393143878,11.028378568439576,0.035550053888576,1.7068474798115416
744,9.89019642770422,75.24274393143878,11.032447085410746,0.035564229328090655,1.7072618355983993
745,9.90348970247264,75.24274393143878,11.034157542315082,0.03556993821887695,1.7072700271651162
746,9.91678297724106,75.24274393143878,11.03340030141105,0.035566431651893535,1.7068713757153535
747,9.930076252009478,75.24274393143878,11.030220975262543,0.03555351147888825,1.706091608560091
748,9.943369526777898,75.24274393143878,11.024807853136483,0.03553158469171282,1.7049798534998464
749,9.956662801546315,75.24274393143878,11.017474548968735,0.0355016829565402,1.7036045211472772
750,9.969956076314736,75.24274393143878,11.00864064522385,0.03546544169090285,1.7020487383861722
751,9.983249351083158,75.24274393143878,10.998812803533255,0.035425038386418584,1.7004058934331485
752,9.996542625851577,75.24274393143878,10.988568069302524,0.03538309368643557,1.6987756659870268
753,10.009835900619995,75.24274393143878,10.97853982849317,0.035342541431125855,1.6972606791778695
754,10.023129175388416,75.24274393143878,10.969405256423743,0.03530647518932309,1.6959636380111314
755,10.036422450156836,75.24274393143878,10.961871481908107,0.03527797861429721,1.6949845662534107
756,10.049715724925257,75.24274393143878,10.9566564994727,0.03525994631085785,1.6944175811298896
757,10.063008999693675,75.24274393143878,10.954460469894126,0.03525490121986747,1.6943466095615989
758,10.076302274462094,75.24274393143878,10.955923449590129,0.03526480974582972,1.6948396014375902
759,10.089595549230514,75.24274393143878,10.961567037586951,0.035290888901201196,1.6959411355551415
760,10.102888823998931,75.24274393143878,10.971720860426643,0.03533340564643467,1.6976637026083694
761,10.116182098767354,75.24274393143878,10.986439857720885,0.03539148703062378,1.699978340444569
762,10.129475373535774,75.24274393143878,11.005422993783142,0.035462970435514767,1.7028059035484413
763,10.142768648304193,75.24274393143878,11.02794734184187,0.03554432381295328,1.706010937104417
764,10.156061923072611,75.24274393143878,11.052833377405365,0.035630667730247964,1.7094003406322842
765,10.169355197841032,75.24274393143878,11.078456868998073,0.035715931991141085,1.712728630138789
766,10.182648472609452,75.24274393143878,11.102818938952536,0.03579317189273239,1.7157109058338584
767,10.195941747377873,75.24274393143878,11.1236786996187,0.035855050833799945,1.718043675330025
768,10.209235022146292,75.24274393143878,11.138743780312181,0.03589446919719025,1.7194324688477045
769,10.22252829691471,75.24274393143878,11.145904380586495,0.03590529318234391,1.7196238327361448
770,10.23582157168313,75.24274393143878,11.143486319388368,0.03588311634190571,1.7184380644078805
771,10.24911484645155,75.24274393143878,11.130490007819219,0.03582596266557318,1.7157983034345272
772,10.26240812121997,75.24274393143878,11.106779569655846,0.03573481938459431,1.711751522633563
773,10.27570139598839,75.24274393143878,11.073190493111701,0.03561389396922555,1.706477596701935
774,10.288994670756807,75.24274393143878,11.031533341857514,0.03547052412533839,1.7002839263566736
775,10.30228794552523,75.24274393143878,10.984483982851355,0.03531471446708709,1.6935849223997126
776,10.315581220293648,75.24274393143878,10.935366208719719,0.03515832238845651,1.6868677374552306
777,10.328874495062069,75.24274393143878,10.88784812703431,0.035013966176863275,1.6806476429325947
778,10.342167769830487,75.24274393143878,10.845586662465893,0.03489377280542625,1.6754180573376567
779,10.355461044598908,75.24274393143878,10.811862816507675,0.03480811301894033,1.6716011792353993
780,10.368754319367326,75.24274393143878,10.789252644151437,0.034764482136994,1.6695052920525015
781,10.382047594135749,75.24274393143878,10.77937475586223,0.034766673427775695,1.6692939656177999
782,10.395340868904166,75.24274393143878,10.782744257121012,0.034814353772754505,1.670970708007626
783,10.408634143672586,75.24274393143878,10.798747191033177,0.03490309384895146,1.6743806148325346
784,10.421927418441006,75.24274393143878,10.825733703126598,0.03502484614308183,1.6792285352728715
785,10.435220693209423,75.24274393143878,10.861214822014661,0.03516881292332965,1.6851112248455753
786,10.448513967977846,75.24274393143878,10.90213577308102,0.035322597098685786,1.691559190198618
787,10.461807242746264,75.24274393143878,10.945189774803001,0.035473489321040774,1.698082930227889
788,10.475100517514685,75.24274393143878,10.987133717876093,0.03560973075692569,1.7042181483832015
789,10.488393792283103,75.24274393143878,11.025070895461722,0.0357216039099809,1.7095651149720672
790,10.501687067051524,75.24274393143878,11.056673931820885,0.03580223603593812,1.7138185252911615
791,10.514980341819944,75.24274393143878,11.080331429208563,0.035848044198924,1.7167857012178132
792,10.528273616588365,75.24274393143878,11.09521280447033,0.035858799070095614,1.7183925602179337
793,10.541566891356782,75.24274393143878,11.101255624206761,0.03583732930059871,1.718678194670239
794,10.554860166125202,75.24274393143878,11.099087283328823,0.035788935253402085,1.7177799970047702
795,10.568153440893624,75.24274393143878,11.089897540351883,0.03572062407752379,1.7159119459900447
796,10.58144671566204,75.24274393143878,11.075280220929264,0.03564028328783892,1.7133389248128352
797,10.594739990430462,75.24274393143878,11.057061838164191,0.03555587882623023,1.710349834918186
798,10.60803326519888,75.24274393143878,11.037132988235644,0.03547474292551303,1.7072319551668331
799,10.6213265399673,75.24274393143878,11.01729594143695,0.03540301163399095,1.70424857134591
800,10.63461981473572,75.24274393143878,10.999138528097083,0.03534525367835923,1.7016213112687075
801,10.64791308950414,75.24274393143878,10.983939816024048,0.03530430338947238,1.6995179355696417
802,10.66120636427256,75.24274393143878,10.972608726282283,0.035281281279723894,1.6980457346224695
803,10.67449963904098,75.24274393143878,10.96565501738776,0.03527576077918923,1.6972502064065906
804,10.687792913809398,75.24274393143878,10.96319199595493,0.03528603190910535,1.6971184055973505
805,10.701086188577818,75.24274393143878,10.964968659472584,0.03530942157473544,1.697586245822366
806,10.71437946334624,75.24274393143878,10.970426017546236,0.03534263597103691,1.6985488658797308
807,10.727672738114656,75.24274393143878,10.978770497449347,0.03538209101288134,1.6998729387403384
808,10.740966012883078,75.24274393143878,10.989056844319148,0.03542420320251183,1.7014097268747939
809,10.754259287651497,75.24274393143878,11.00027304823383,0.03546562500026635,1.7030077815666633
810,10.767552562419915,75.24274393143878,11.01142054434468,0.03550341936469551,1.7045243572949802
811,10.780845837188336,75.24274393143878,11.02158426862335,0.035535176339085504,1.7058348404016273
812,10.794139111956756,75.24274393143878,11.029988943834658,0.03555908027081985,1.7068397309087802
813,10.807432386725177,75.24274393143878,11.036039950390753,0.03557393918700791,1.7074689512897712
814,10.820725661493595,75.24274393143878,11.039348983114754,0.03557918778499542,1.70768367884233
815,10.834018936262014,75.24274393143878,11.039745948318743,0.035574872978772376,1.7074764352751255
816,10.847312211030436,75.24274393143878,11.037279059584845,0.03556162944099535,1.7068701539391977
817,10.860605485798851,75.24274393143878,11.032206023334094,0.035540652340374505,1.705916387632321
818,10.873898760567274,75.24274393143878,11.024980370336477,0.035513668233273656,1.7046925887604891
819,10.887192035335694,75.24274393143878,11.016234932863274,0.03548289383239611,1.7032985365000848
820,10.900485310104113,75.24274393143878,11.006759668856503,0.03545096778041533,1.701851915300351
821,10.913778584872531,75.24274393143878,10.997468944397069,0.035420843505233175,1.7004827918999859
822,10.927071859640952,75.24274393143878,10.989354627712997,0.03539563430693619,1.6993265921477265
823,10.940365134409372,75.24274393143878,10.98342270433008,0.03537840509221001,1.6985152209649943
824,10.953658409177793,75.24274393143878,10.980612632088848,0.035371911838988676,1.6981662076914035
825,10.966951683946212,75.24274393143878,10.981701613337078,0.03537829998018221,1.6983701884188536
826,10.98024495871463,75.24274393143878,10.987200110782304,0.03539878518618817,1.6991776012815454
827,10.99353823348305,75.24274393143878,10.997249425750807,0.0354333526469245,1.7005860696511026
828,11.00683150825147,75.24274393143878,11.011536017840967,0.03548052121996089,1.7025304455366996
829,11.02012478301989,75.24274393143878,11.029239362241187,0.035537223581969944,1.704877732014354
830,11.03341805778831,75.24274393143878,11.049029459814255,0.035598849934009316,1.7074289691818314
831,11.046711332556727,75.24274393143878,11.06912606275427,0.035659488570163454,1.709929578377664
832,11.06000460732515,75.24274393143878,11.087424546883442,0.03571237204245386,1.712088626469334
833,11.073297882093568,75.24274393143878,11.10168389793565,0.03575050969561118,1.7136061112759609
834,11.086591156861989,75.24274393143878,11.109761507178787,0.0357674597264341,1.7142058919638898
835,11.099884431630407,75.24274393143878,11.109869322506794,0.03575815964622118,1.7136705684262188
836,11.113177706398828,75.24274393143878,11.10081881548803,0.035719700340744134,1.7118737331320049
837,11.126470981167246,75.24274393143878,11.08221989948697,0.035651919802817005,1.7088048042914594
838,11.139764255935669,75.24274393143878,11.054602076493332,0.035557711978505616,1.7045822159078141
839,11.153057530704086,75.24274393143878,11.0194346184471,0.03544298075040252,1.6994520594564368
840,11.166350805472506,75.24274393143878,10.979035463828158,0.03531621429028622,1.6937711687698134
841,11.179644080240926,75.24274393143878,10.936373794860025,0.035187708590845176,1.6879758232555144
842,11.192937355009343,75.24274393143878,10.89478652174023,0.035068522396791264,1.6825393660534815
843,11.206230629777766,75.24274393143878,10.857641702587001,0.03496928936083403,1.6779237450122821
844,11.219523904546184,75.24274393143878,10.8279902069537,0.0348990402101087,1.6745310506073467
845,11.232817179314605,75.24274393143878,10.808249766579204,0.034864192817651685,1.6726613475665675
846,11.246110454083023,75.24274393143878,10.799962322407405,0.03486784346273788,1.67248201612827
847,11.259403728851444,75.24274393143878,10.803653241535864,0.03490944224745014,1.674011633546716
848,11.272697003619864,75.24274393143878,10.818801748232731,0.03498488501738019,1.677119605085854
849,11.285990278388285,75.24274393143878,10.843918310297163,0.035087011007285375,1.6815415824329636
850,11.299283553156702,75.24274393143878,10.87671883704754,0.035206442898707294,1.6869088685461164
851,11.312576827925122,75.24274393143878,10.914375530656029,0.03533265210567339,1.6927877630479862
852,11.325870102693544,75.24274393143878,10.953811338429361,0.03545510267444769,1.6987235773024651
853,11.33916337746196,75.24274393143878,10.99200020353629,0.03556432648650278,1.7042839952630224
854,11.352456652230382,75.24274393143878,11.026239094968012,0.03565280274670362,1.7090970831610914
855,11.3657499269988,75.24274393143878,11.054365367228375,0.03571555100972235,1.712880363748118
856,11.37904320176722,75.24274393143878,11.074902527111139,0.03575039285770513,1.7154587900411769
857,11.39233647653564,75.24274393143878,11.087127668375832,0.035757884665595055,1.7167709394634323
858,11.40562975130406,75.24274393143878,11.091063169142812,0.03574096482824797,1.7168640958252221
859,11.41892302607248,75.24274393143878,11.087402674952424,0.035704388130255824,1.715879944568014
860,11.4322163008409,75.24274393143878,11.077386351198983,0.03565403860402302,1.7140333009454056
861,11.445509575609318,75.24274393143878,11.062642827501714,0.03559621952651548,1.7115866098999746
862,11.458802850377738,75.24274393143878,11.045015502003334,0.035537006662194504,1.7088229492021685
863,11.47209612514616,75.24274393143878,11.026389469511024,0.035481722794648514,1.706020065992808
864,11.485389399914578,75.24274393143878,11.008532873296717,0.03543456654736132,1.7034276482609285
865,11.498682674682998,75.24274393143878,10.992963463152096,0.03539840781373771,1.701249437137468
866,11.511975949451417,75.24274393143878,10.980847931882764,0.03537473895816107,1.6996309953222
867,11.525269224219835,75.24274393143878,10.972938412530068,0.03536375543201818,1.6986533911173012
868,11.538562498988256,75.24274393143878,10.969547464224526,0.035364536110355047,1.6983327651957576
869,11.551855773756676,75.24274393143878,10.970560036547793,0.03537529102591625,1.6986253367433315
870,11.565149048525097,75.24274393143878,10.975478378778105,0.03539364071478827,1.699436893273825
871,11.578442323293515,75.24274393143878,10.983493785266125,0.03541689437060204,1.700635474749302
872,11.591735598061934,75.24274393143878,10.993577592025076,0.03544230247147987,1.702065848570591
873,11.605028872830356,75.24274393143878,11.004583085042192,0.03546726898510692,1.7035644099265583
874,11.618322147598771,75.24274393143878,11.015349991893594,0.035489517108249435,1.7049733115386263
875,11.631615422367194,75.24274393143878,11.024803938100375,0.03550720991253176,1.7061528963939456
876,11.644908697135614,75.24274393143878,11.032044468418377,0.03551903229460077,1.7069918119281104
877,11.658201971904033,75.24274393143878,11.036416697265617,0.03552424270180642,1.707414467157769
878,11.671495246672452,75.24274393143878,11.037562964990963,0.03552270192107545,1.707385773605409
879,11.684788521440872,75.24274393143878,11.035451878339051,0.035514882348492975,1.7069133408697519
880,11.698081796209292,75.24274393143878,11.030383720079234,0.035501857334977814,1.7060472718818185
881,11.711375070977711,75.24274393143878,11.022973266081515,0.03548526743465625,1.7048774567310445
882,11.724668345746132,75.24274393143878,11.014110811980864,0.035467255146094376,1.7035281299212697
883,11.73796162051455,75.24274393143878,11.004900081133197,0.03545035361491963,1.702149511100512
884,11.75125489528297,75.24274393143878,10.9965719832582,0.03543731569908638,1.700906459556883
885,11.76454817005139,75.24274393143878,10.990376330515966,0.03543087855839105,1.6999642756338453
886,11.77784144481981,75.24274393143878,10.98745684386641,0.03543347038177564,1.6994721646578528
887,11.79113471958823,75.24274393143878,10.988717828230193,0.0354468786432912,1.699545412592771
888,11.804427994356647,75.24274393143878,10.994694379396996,0.03547191314408646,1.7002479143777334
889,11.81772126912507,75.24274393143878,11.00544135550846,0.035508109360225616,1.7015772169310948
890,11.831014543893488,75.24274393143878,11.020458441334402,0.03555352488704317,1.703454536795941
891,11.844307818661909,75.24274393143878,11.038667439748842,0.035604681134608955,1.7057221446032054
892,11.857601093430327,75.24274393143878,11.058452731108645,0.03565669197827304,1.7081499791235244
893,11.870894368198748,75.24274393143878,11.077769456402844,0.0357036005808276,1.7104523494692272
894,11.884187642967166,75.24274393143878,11.094318288733769,0.0357389169020289,1.7123141968050584
895,11.897480917735589,75.24274393143878,11.105777674021791,0.03575631534654306,1.7134248133374703
896,11.910774192504006,75.24274393143878,11.110071696975057,0.03575041997614112,1.713515430220212
897,11.924067467272426,75.24274393143878,11.105639337557061,0.035717579802403275,1.712395986454609
898,11.937360742040848,75.24274393143878,11.09166649882554,0.035656524469869916,1.7099859368503187
899,11.950654016809263,75.24274393143878,11.068246122568434,0.035568795007126675,1.7063343050421094
900,11.963947291577686,75.24274393143878,11.036440013437456,0.03545886639992948,1.701625348847266
901,11.977240566346104,75.24274393143878,10.998227735600443,0.03533391639642978,1.6961680357939284
902,11.990533841114525,75.24274393143878,10.956342878713453,0.03520324297215702,1.6903697517291354
903,12.003827115882943,75.24274393143878,10.914012858403359,0.03507738382066643,1.6846969312647737
904,12.017120390651364,75.24274393143878,10.874632484208663,0.03496703701500524,1.6796272466219038
905,12.030413665419784,75.24274393143878,10.841411527107013,0.03488191515262764,1.6755993098547768
906,12.043706940188205,75.24274393143878,10.81704080648286,0.03482968250044838,1.6729664098954957
907,12.057000214956622,75.24274393143878,10.803419727658882,0.034815122078740775,1.6719604915856763
908,12.070293489725042,75.24274393143878,10.801480757842512,0.03483963929144369,1.6726706788213628
909,12.083586764493464,75.24274393143878,10.811129586972307,0.034901137695562426,1.6750374969612856
910,12.09688003926188,75.24274393143878,10.831296688544786,0.03499425949812132,1.6788620740677394
911,12.110173314030302,75.24274393143878,10.860082752278188,0.03511097439299253,1.6838292864459576
912,12.12346658879872,75.24274393143878,10.894979048500874,0.035241462014255945,1.6895424090986615
913,12.13675986356714,75.24274393143878,10.933137725301917,0.03537517089446932,1.6955645196203004
914,12.15005313833556,75.24274393143878,10.971656875872316,0.03550190759042932,1.701461004986614
915,12.16334641310398,75.24274393143878,11.00784435552677,0.035612818445149616,1.7068381425697854
916,12.1766396878724,75.24274393143878,11.03943253507569,0.035701152739087416,1.7113739232179823
917,12.18993296264082,75.24274393143878,11.064726875322892,0.035762733620028936,1.7148387518176982
918,12.203226237409238,75.24274393143878,11.082682062428916,0.0357961075554909,1.717105210758419
919,12.216519512177658,75.24274393143878,11.092909181736383,0.03580238696485081,1.7181474589680186
920,12.22981278694608,75.24274393143878,11.09562473661911,0.03578483775627137,1.7180318907556684
921,12.243106061714498,75.24274393143878,11.091556632518003,0.03574828922651929,1.716901305598044
922,12.256399336482918,75.24274393143878,11.081823558849457,0.035698457497570196,1.714955020210605
923,12.269692611251337,75.24274393143878,11.067802958198167,0.03564127500055686,1.7124271749252868
924,12.282985886019755,75.24274393143878,11.050999878857562,0.03558230471855485,1.7095652729398958
925,12.296279160788176,75.24274393143878,11.03292624546761,0.03552629240865377,1.7066108301968728
926,12.309572435556596,75.24274393143878,11.014998071893675,0.03547688325398366,1.7037834205396354
927,12.322865710325017,75.24274393143878,10.998454937295874,0.03543650578978854,1.7012684666996023
928,12.336158985093435,75.24274393143878,10.984301969438333,0.03540640472832097,1.699208701121278
929,12.349452259861854,75.24274393143878,10.973272903245702,0.03538678797127665,1.6976993138866177
930,12.362745534630276,75.24274393143878,10.965813121164471,0.03537704448701557,1.6967867142790591
931,12.376038809398697,75.24274393143878,10.96208128407323,0.03537598897755554,1.6964705091996855
932,12.389332084167114,75.24274393143878,10.961967616990496,0.03538209557493552,1.696708188585276
933,12.402625358935534,75.24274393143878,10.965126858803343,0.03539369404944307,1.6974221015994282
934,12.415918633703953,75.24274393143878,10.971023353531866,0.03540911478909222,1.698508241252797
935,12.429211908472372,75.24274393143878,10.978984710321807,0.03542678069014357,1.699846132229211
936,12.442505183240792,75.24274393143878,10.98825976545265,0.03544525375732223,1.7013090043895311
937,12.455798458009212,75.24274393143878,10.998076413173575,0.03546325038240711,1.7027734621390866
938,12.469091732777631,75.24274393143878,11.007695064831637,0.03547964122304625,1.7041279429772436
939,12.482385007546052,75.24274393143878,11.016454069114161,0.03549344967147197,1.7052793896565424
940,12.49567828231447,75.24274393143878,11.02380438306809,0.03550385816624478,1.7061577243577277
941,12.50897155708289,75.24274393143878,11.029332028582017,0.03551022560999373,1.7067179053836692
942,12.52226483185131,75.24274393143878,11.032768260231935,0.03551211371530664,1.7069396957638452
943,12.53555810661973,75.24274393143878,11.033988678613486,0.03550931654197132,1.7068257267447329
944,12.54885138138815,75.24274393143878,11.033003593517666,0.03550188612982214,1.7063985505621342
945,12.562144656156567,75.24274393143878,11.029943070510177,0.03549014797953054,1.705697131821034
946,12.57543793092499,75.24274393143878,11.025041045610273,0.0354747030515586,1.7047731718441792
947,12.588731205693408,75.24274393143878,11.018622224630446,0.03545641671733591,1.7036877965308674
948,12.602024480461829,75.24274393143878,11.011093225008501,0.03543639788466199,1.7025090501787816
949,12.615317755230247,75.24274393143878,11.002937494079465,0.03541597218033885,1.7013103215097891
950,12.628611029998668,75.24274393143878,10.994712224059523,0.03539665124952017,1.7001694756529024
951,12.641904304767086,75.24274393143878,10.987043802382367,0.0353800962428319,1.6991681476458786
952,12.655197579535509,75.24274393143878,10.980616666456275,0.0353680685401343,1.69839042268938
953,12.668490854303926,75.24274393143878,10.976149747695734,0.03536235648952715,1.697920054158318
954,12.681784129072346,75.24274393143878,10.974355447083786,0.03536466543576668,1.6978355032664167
955,12.695077403840768,75.24274393143878,10.975878464184785,0.03537646129466705,1.698202444745546
956,12.708370678609183,75.24274393143878,10.981215727878695,0.03539876622580214,1.6990639462941057
957,12.721663953377606,75.24274393143878,10.990623732145322,0.03543191827045912,1.7004292198117563
958,12.734957228146024,75.24274393143878,11.00402489780338,0.03547532296721488,1.7022625357400574
959,12.748250502914445,75.24274393143878,11.02092864856688,0.0355272385293924,1.7044744326235153
960,12.761543777682864,75.24274393143878,11.040384552515933,0.0355846433274087,1.7069175831011831
961,12.774837052451284,75.24274393143878,11.060984139220068,0.03564323664408578,1.7093894686168971
962,12.788130327219704,75.24274393143878,11.08092428738266,0.035697618026486945,1.7116433124706256
963,12.801423601988123,75.24274393143878,11.098137377700002,0.03574166947861341,1.7134075682039063
964,12.814716876756542,75.24274393143878,11.110482632582558,0.0357691302666153,1.7144128107617072
965,12.828010151524962,75.24274393143878,11.115981241304683,0.03577431534260221,1.7144233771869064
966,12.841303426293385,75.24274393143878,11.113067258735587,0.03575289284643528,1.7132698470569612
967,12.8545967010618,75.24274393143878,11.100819706779212,0.03570261163691938,1.7108777231416414
968,12.867889975830222,75.24274393143878,11.079140457180706,0.0356238625878226,1.707287673908703
969,12.88118325059864,75.24274393143878,11.048847342521928,0.03551996954051071,1.7026635047785659
970,12.89447652536706,75.24274393143878,11.011662098443123,0.03539713687902411,1.6972855528275272
971,12.90776980013548,75.24274393143878,10.970086991134558,0.03526402703755155,1.6915292254753305
972,12.9210630749039,75.24274393143878,10.927180066129234,0.035130995579010234,1.6858306016629234
973,12.93435634967232,75.24274393143878,10.886254178174639,0.03500906501725252,1.6806430325249784
974,12.94764962444074,75.24274393143878,10.850536857323597,0.03490876245366841,1.6763901858566967
975,12.960942899209158,75.24274393143878,10.822834685690623,0.034838975859894476,1.6734218753888435
976,12.974236173977578,75.24274393143878,10.805246914400682,0.03480599306786327,1.6719790839901498
977,12.987529448746,75.24274393143878,10.798968031667306,0.03481284952228719,1.6721725023206806
978,13.000822723514418,75.24274393143878,10.804201891957828,0.034859032720900206,1.673975070278508
979,13.014115998282838,75.24274393143878,10.820184035276094,0.03494055080216692,1.6772275111146484
980,13.027409273051257,75.24274393143878,10.845296309841894,0.03505037599937981,1.6816569205038434
981,13.040702547819675,75.24274393143878,10.877260832823687,0.035179232265659034,1.6869073055140522
982,13.053995822588096,75.24274393143878,10.913393891967118,0.03531661647299186,1.692577715383691
983,13.067289097356516,75.24274393143878,10.950885273246914,0.03545190204005839,1.6982622054597054
984,13.080582372124937,75.24274393143878,10.987064709773513,0.03557537951673525,1.7035865529289704
985,13.093875646893355,75.24274393143878,11.019625030028212,0.03567911329566738,1.708237889633088
986,13.107168921661774,75.24274393143878,11.046782368325404,0.035757530301128514,1.7119848844026688
987,13.120462196430196,75.24274393143878,11.067364922592928,0.0358077007490343,1.7146876575180572
988,13.133755471198617,75.24274393143878,11.08083203091619,0.03582931502389422,1.7162979871052708
989,13.147048745967034,75.24274393143878,11.08723333111884,0.035824397787354786,1.7168513984342835
990,13.160342020735454,75.24274393143878,11.08712273891368,0.035796825226922256,1.716453324190129
991,13.173635295503871,75.24274393143878,11.081443844587664,0.03575172253239151,1.715261695611116
992,13.186928570272292,75.24274393143878,11.0714025820242,0.03569482417810683,1.713468153420224
993,13.200221845040712,75.24274393143878,11.05834050931669,0.03563188059342016,1.7112796773011694
994,13.213515119809133,75.24274393143878,11.043618691128176,0.035568174343790886,1.7089019525857183
995,13.226808394577551,75.24274393143878,11.028518790635033,0.03550817125599286,1.70652532911089
996,13.240101669345972,75.24274393143878,11.014165090786738,0.03545530793683228,1.7043138459313218
997,13.25339494411439,75.24274393143878,11.001468983042718,0.03541191000667327,1.7023975185187497
998,13.26668821888281,75.24274393143878,10.991095933802775,0.03537922638597951,1.7008678974024798
999,13.279981493651231,75.24274393143878,10.983453855623832,0.035357553933603264,1.6997767729805648
1000,13.29327476841965,75.24274393143878,10.978700933934705,0.03534642105750745,1.6991377818198736
1001,13.30656804318807,75.24274393143878,10.976770126899398,0.03534479739292757,1.698930539656159
1002,13.319861317956487,75.24274393143878,10.977406731853883,0.035351298022501865,1.699106782185183
1003,13.33315459272491,75.24274393143878,10.980214687396497,0.035364358023143486,1.6995978556084739
1004,13.346447867493328,75.24274393143878,10.984706821809265,0.03538236503933425,1.7003227979397433
1005,13.359741142261749,75.24274393143878,10.990354232954143,0.03540374741359991,1.7011962236285272
1006,13.373034417030167,75.24274393143878,10.996630489489114,0.03542702173364565,1.7021352899592788
1007,13.386327691798588,75.24274393143878,11.003047361532742,0.0354508092807621,1.703065185093302
1008,13.399620966567008,75.24274393143878,11.009180182874019,0.035473835097239316,1.7039228076881219
1009,13.412914241335429,75.24274393143878,11.014682486124642,0.03549492431096934,1.7046585699091743
1010,13.426207516103846,75.24274393143878,11.019290968288509,0.035513007947414035,1.705236546247254
1011,13.439500790872266,75.24274393143878,11.02282289326344,0.03552714545628341,1.7056334554413621
1012,13.452794065640688,75.24274393143878,11.025168559132986,0.03553656473508298,1.7058370401289198
1013,13.466087340409103,75.24274393143878,11.026281401421844,0.035540714619819454,1.7058442899257564
1014,13.479380615177526,75.24274393143878,11.026167761227109,0.03553932077900281,1.7056598240805534
1015,13.492673889945944,75.24274393143878,11.024877594813049,0.03553243261964859,1.7052946460384375
1016,13.505967164714365,75.24274393143878,11.022496671358022,0.035520446941198984,1.70476532225967
1017,13.519260439482784,75.24274393143878,11.019140102588524,0.035504096749349984,1.704093463468113
1018,13.532553714251204,75.24274393143878,11.014946553806574,0.03548440059451484,1.7033052853261792
1019,13.545846989019624,75.24274393143878,11.010072583660625,0.035462575981180564,1.7024310227824317
1020,13.559140263788043,75.24274393143878,11.004687186072196,0.03543992821445343,1.7015040598835587
1021,13.572433538556462,75.24274393143878,10.9989673329519,0.03541773248201496,1.7005597861524306
1022,13.585726813324882,75.24274393143878,10.993095855108825,0.03539713032137179,1.699634353463339
1023,13.599020088093305,75.24274393143878,10.987263151678228,0.03537906055109428,1.6987636272707387
1024,13.61231336286172,75.24274393143878,10.98167377155309,0.03536423887707609,1.6979826518195213
1025,13.625606637630142,75.24274393143878,10.976557771857793,0.035353190437026574,1.6973258489439897
1026,13.63889991239856,75.24274393143878,10.972185036215727,0.0353463272708628,1.6968279443233245
1027,13.65219318716698,75.24274393143878,10.968878744171883,0.035344050561881696,1.696525302027361
1028,13.6654864619354,75.24274393143878,10.967022414927735,0.03534684817506359,1.696457022686594
1029,13.67877973670382,75.24274393143878,10.967053990957098,0.03535535393068954,1.69666492154072
1030,13.69207301147224,75.24274393143878,10.96944083466701,0.03537033785486306,1.6971914508191452
1031,13.70536628624066,75.24274393143878,10.974631660035293,0.0353926068856754,1.698074841259074
1032,13.718659561009078,75.24274393143878,10.982985342549613,0.0354228124084386,1.6993412317976162
1033,13.731952835777498,75.24274393143878,10.99468178168343,0.03546118224088215,1.7009942846739392
1034,13.74524611054592,75.24274393143878,11.009625686365965,0.035507216281486995,1.70300362086917
1035,13.758539385314338,75.24274393143878,11.027359277870374,0.03555940257096017,1.705294175316775
1036,13.771832660082758,75.24274393143878,11.04700307756338,0.0356150205787777,1.7077390565971773
1037,13.785125934851177,75.24274393143878,11.067243724065365,0.035670097260768696,1.7101585200184546
1038,13.798419209619595,75.24274393143878,11.086383287389085,0.03571956546031252,1.7123271184593536
1039,13.811712484388016,75.24274393143878,11.102456157439741,0.03575764513673936,1.713989988674992
1040,13.825005759156436,75.24274393143878,11.11340959934254,0.03577843062775232,1.7148877001196394
1041,13.838299033924857,75.24274393143878,11.117333971816832,0.03577662612471165,1.7147873951098933
1042,13.851592308693276,75.24274393143878,11.11271692751987,0.03574833431995774,1.7135164127953497
1043,13.864885583461694,75.24274393143878,11.098685114648587,0.03569178030186214,1.710993548904127
1044,13.878178858230116,75.24274393143878,11.075193939476959,0.03560785003631284,1.7072528212389573
1045,13.891472132998535,75.24274393143878,11.04313189001974,0.0355003403705338,1.702455215178279
1046,13.904765407766954,75.24274393143878,11.004316786834746,0.03537585354676226,1.6968853322380142
1047,13.918058682535374,75.24274393143878,10.961375512621592,0.035243319000867676,1.6909319506659022
1048,13.931351957303791,75.24274393143878,10.917515350857718,0.035113180717032746,1.685053895419095
1049,13.944645232072212,75.24274393143878,10.876211388708425,0.03499634074713076,1.6797349169438869
1050,13.957938506840632,75.24274393143878,10.840847707133625,0.034902990358388536,1.675433110216187
1051,13.971231781609053,75.24274393143878,10.814358096092134,0.034841486625287806,1.67253156094722
1052,13.984525056377471,75.24274393143878,10.798914134677036,0.03481743843186059,1.671297143080548
1053,13.997818331145892,75.24274393143878,10.795703985134832,0.03483312093567572,1.6718527825145761
1054,14.01111160591431,75.24274393143878,10.804828867251592,0.03488725009266622,1.674165353323073
1055,14.02440488068273,75.24274393143878,10.825318900878033,0.03497511088682111,1.6780495258727506
1056,14.037698155451151,75.24274393143878,10.85525579924033,0.03508904972342023,1.6831876314365333
1057,14.05099143021957,75.24274393143878,10.89198898032674,0.03521930473526573,1.6891638574357222
1058,14.06428470498799,75.24274393143878,10.932422813524672,0.03535506250457378,1.6955080901844168
1059,14.07757797975641,75.24274393143878,10.973336992878,0.03548558724492948,1.7017432446823828
1060,14.09087125452483,75.24274393143878,11.011697334554055,0.03560127613203764,1.7074301804735814
1061,14.104164529293248,75.24274393143878,11.044921113439733,0.03569451982849126,1.7122052913320662
1062,14.117457804061669,75.24274393143878,11.071071668354438,0.03576028332837858,1.715807294535251
1063,14.130751078830087,75.24274393143878,11.088968959791696,0.03579636568031502,1.7180914531537335
1064,14.144044353598508,75.24274393143878,11.098214672304405,0.035803340800340304,1.7190311586689404
1065,14.157337628366928,75.24274393143878,11.099140584901027,0.03578421893572598,1.7187082482411284
1066,14.170630903135349,75.24274393143878,11.092696187800373,0.03574389521146541,1.717294470927558
1067,14.183924177903766,75.24274393143878,11.08029535192842,0.0356884702057173,1.715027066263165
1068,14.197217452672186,75.24274393143878,11.06364247344101,0.03562453692545703,1.712181507274554
1069,14.210510727440608,75.24274393143878,11.04455727879538,0.035558518643918374,1.709044330163828
1070,14.223804002209024,75.24274393143878,11.024815128251584,0.03549611604870152,1.705888712397619
1071,14.237097276977446,75.24274393143878,11.006015155281492,0.03544190007834746,1.7029547405408234
1072,14.250390551745864,75.24274393143878,10.989482658051607,0.03539907201176038,1.7004352599445995
1073,14.263683826514283,75.24274393143878,10.976207116976141,0.03536939190293619,1.6984674991695965
1074,14.276977101282704,75.24274393143878,10.966813543496071,0.035353252345943144,1.6971302553996002
1075,14.290270376051124,75.24274393143878,10.961563316628517,0.035349862729983896,1.696445913074809
1076,14.303563650819545,75.24274393143878,10.960380984227736,0.03535751022949581,1.696386271374374
1077,14.316856925587963,75.24274393143878,10.962902659385502,0.03537386332417941,1.6968812292310032
1078,14.330150200356382,75.24274393143878,10.968539517870372,0.0353962806341882,1.6978293630940682
1079,14.343443475124802,75.24274393143878,10.976549068980006,0.03542209136004655,1.6991092910362295
1080,14.356736749893225,75.24274393143878,10.986107450972952,0.035448822985072986,1.7005907654941401
1081,14.37003002466164,75.24274393143878,10.996376971975002,0.03547436221492935,1.7021446678599217
1082,14.383323299430062,75.24274393143878,11.006564341754327,0.03549704499595355,1.703651338898049
1083,14.39661657419848,75.24274393143878,11.01596652850008,0.035515680329768734,1.7050069302609856
1084,14.4099098489669,75.24274393143878,11.024002799907015,0.03552951953579648,1.7061276927387923
1085,14.42320312373532,75.24274393143878,11.030233120630509,0.03553818717420644,1.7069523004375327
1086,14.43649639850374,75.24274393143878,11.034364500930868,0.03554159342288068,1.7074424432090385
1087,14.44978967327216,75.24274393143878,11.036247959218228,0.03553984995368034,1.7075820763241307
1088,14.46308294804058,75.24274393143878,11.03586926121363,0.03553320766656144,1.7073758806551227
1089,14.476376222808998,75.24274393143878,11.033336499813325,0.03552202572893891,1.706847436142407
1090,14.48966949757742,75.24274393143878,11.028867589005884,0.03550677454714031,1.706037354045382
1091,14.50296277234584,75.24274393143878,11.022780788664269,0.03548807128187171,1.705001455054526
1092,14.516256047114258,75.24274393143878,11.01548955112076,0.0354667408345988,1.7038090378096566
1093,14.529549321882678,75.24274393143878,11.007499552345587,0.03544388800912827,1.7025411526254215
1094,14.542842596651097,75.24274393143878,10.999403774635319,0.035420960236884284,1.7012885932030481
1095,14.556135871419515,75.24274393143878,10.991871333263479,0.03539977609508976,1.7001491618273763
1096,14.569429146187936,75.24274393143878,10.985625699204663,0.0353824941341623,1.69922369930006
1097,14.582722420956356,75.24274393143878,10.981408246039555,0.03537150071980017,1.6986104305396799
1098,14.596015695724777,75.24274393143878,10.979924566980404,0.035369205529503046,1.698397386480277
1099,14.609308970493196,75.24274393143878,10.981773830797271,0.035377748725729685,1.6986530237095296
1100,14.622602245261614,75.24274393143878,10.987365248091056,0.03539864294951108,1.699415643214852
1101,14.635895520030036,75.24274393143878,10.996829969036158,0.03543239305751717,1.7006827386912526
1102,14.649188794798455,75.24274393143878,11.00994063891988,0.03547815338634392,1.7024018795564657
1103,14.662482069566874,75.24274393143878,11.026053465921176,0.035533491862881565,1.7044650315277676
1104,14.675775344335294,75.24274393143878,11.044088102760954,0.03559432550190607,1.7067082210125832
1105,14.689068619103711,75.24274393143878,11.062558257230556,0.03565507108516272,1.7089180766903729
1106,14.702361893872132,75.24274393143878,11.07966054095499,0.03570902870955526,1.710846014968536
1107,14.715655168640552,75.24274393143878,11.093421074323304,0.035748990764158044,1.7122297418098251
1108,14.728948443408973,75.24274393143878,11.10188986598927,0.035768035849741385,1.7128204741017343
1109,14.742241718177391,75.24274393143878,11.103363567600498,0.035760422430753266,1.7124130582371644
1110,14.755534992945812,75.24274393143878,11.096609688285657,0.035722458373990955,1.7108752279741433
1111,14.76882826771423,75.24274393143878,11.08106141109897,0.03565321112992844,1.7081718191287287
1112,14.78212154248265,75.24274393143878,11.056952926633535,0.03555493957406155,1.7043799893623655
1113,14.795414817251071,75.24274393143878,11.025371008877787,0.03543316176451305,1.699692405568485
1114,14.80870809201949,75.24274393143878,10.988208787602195,0.035296319065194155,1.6944068569162292
1115,14.82200136678791,75.24274393143878,10.948020845222132,0.03515505301661278,1.6889026095344464
1116,14.83529464155633,75.24274393143878,10.907792814561546,0.035021168505605986,1.683605742360725
1117,14.84858791632475,75.24274393143878,10.870651288490619,0.03490640555281505,1.6789473750949677
1118,14.861881191093168,75.24274393143878,10.83954900383391,0.03482117547560506,1.675319836261015
1119,14.875174465861589,75.24274393143878,10.816964411857946,0.03477342905285405,1.673036246245086
1120,14.888467740630007,75.24274393143878,10.80465348667023,0.03476780250840238,1.6722986230767267
1121,14.901761015398428,75.24274393143878,10.803485034804043,0.03480513528237517,1.6731783519383803
1122,14.915054290166848,75.24274393143878,10.813377484986574,0.03488240553744119,1.6756109105267651
1123,14.928347564935269,75.24274393143878,10.83333749005045,0.034993092667818804,1.6794048645004256
1124,14.941640839703688,75.24274393143878,10.861588056865559,0.035127922091644004,1.6842636416102783
1125,14.954934114472106,75.24274393143878,10.895768297177828,0.03527588482195556,1.6898171098808765
1126,14.968227389240528,75.24274393143878,10.933180263271788,0.03542538818311054,1.6956587318626077
1127,14.981520664008944,75.24274393143878,10.97105140110223,0.03556538984531202,1.701383629261955
1128,14.994813938777366,75.24274393143878,11.006781072003678,0.035686384264853495,1.706623284133007
1129,15.008107213545784,75.24274393143878,11.03814595899596,0.03578114334881113,1.7110735257271479
1130,15.021400488314203,75.24274393143878,11.063447975714524,0.03584515567984935,1.7145136873708802
1131,15.034693763082624,75.24274393143878,11.081597639570525,0.03587675295215728,1.7168161482119704
1132,15.047987037851044,75.24274393143878,11.092134441402226,0.035876951370012795,1.7179466841176347
1133,15.061280312619465,75.24274393143878,11.095192365829478,0.03584906418591524,1.7179569824977219
1134,15.074573587387883,75.24274393143878,11.091422801779139,0.035798157214678605,1.7169712437209435
1135,15.087866862156302,75.24274393143878,11.081888609983862,0.035730426300715275,1.715168992581376
1136,15.101160136924722,75.24274393143878,11.067942491303972,0.03565257545967417,1.7127660994341272
1137,15.114453411693145,75.24274393143878,11.051100786674263,0.03557125794284597,1.7099956701204668
1138,15.127746686461562,75.24274393143878,11.032921655860596,0.035492613750208915,1.7070901634914941
1139,15.141039961229982,75.24274393143878,11.014894819753515,0.03542191589136326,1.7042659061306493
1140,15.1543332359984,75.24274393143878,10.99834803644179,0.03536332752718857,1.701710747416943
1141,15.16762651076682,75.24274393143878,10.984373319915022,0.0353197634159941,1.6995749906981523
1142,15.18091978553524,75.24274393143878,10.973774248971985,0.03529284202885597,1.6979655044551396
1143,15.19421306030366,75.24274393143878,10.967034466804522,0.03528291299150181,1.6969429447222002
1144,15.20750633507208,75.24274393143878,10.964307507008623,0.035289146637656935,1.6965218768782937
1145,15.2207996098405,75.24274393143878,10.965429027568023,0.03530967573592286,1.6966735126445132
1146,15.234092884608918,75.24274393143878,10.969951540650976,0.035341782179999365,1.6973308995789853
1147,15.24738615937734,75.24274393143878,10.977198837090613,0.03538212223566159,1.6983963228590657
1148,15.26067943414576,75.24274393143878,10.986335045198286,0.03542698200067178,1.6997503888876846
1149,15.273972708914178,75.24274393143878,10.996442068680516,0.035472550738101426,1.7012620720766705
1150,15.287265983682598,75.24274393143878,11.00659845362667,0.03551519536950485,1.702798957767136
1151,15.300559258451017,75.24274393143878,11.01595267882598,0.035551716154376765,1.7042369143202787
1152,15.313852533219436,75.24274393143878,11.023784613154051,0.03557956205469711,1.7054684768550328
1153,15.327145807987856,75.24274393143878,11.02955037834924,0.035596985417395706,1.7064093083106386
1154,15.340439082756276,75.24274393143878,11.032907894708554,0.03560312346284254,1.7070022299901453
1155,15.353732357524695,75.24274393143878,11.033722707289805,0.03559800733702677,1.7072187177193558
1156,15.367025632293116,75.24274393143878,11.032056163376117,0.03558250580441842,1.7070583740479246
1157,15.380318907061534,75.24274393143878,11.028140267251688,0.035558209176591006,1.706546983139397
1158,15.393612181829956,75.24274393143878,11.022344714713048,0.03552726400277915,1.705733326507972
1159,15.406905456598375,75.24274393143878,11.015141508487465,0.03549217965908638,1.7046849112434137
1160,15.420198731366794,75.24274393143878,11.007071848480004,0.0354556320781575,1.7034831415008487
1161,15.433492006135214,75.24274393143878,10.998718757036807,0.03542028634064413,1.702218542556626
1162,15.446785280903631,75.24274393143878,10.990686808332804,0.035388652939852536,1.7009863935392489
1163,15.460078555672052,75.24274393143878,10.983587738272199,0.0353629834409626,1.699882823969141
1164,15.473371830440472,75.24274393143878,10.978028323819991,0.03534520120302328,1.699001152270194
1165,15.486665105208893,75.24274393143878,10.974595298600585,0.035336854006241696,1.6984280309584248
1166,15.499958379977311,75.24274393143878,10.973831678853012,0.03533907009441614,1.698238880338858
1167,15.513251654745732,75.24274393143878,10.9762000267604,0.03535249912729798,1.6984921896753586
1168,15.52654492951415,75.24274393143878,10.982030923375142,0.03537722562285614,1.699222560375349
1169,15.539838204282573,75.24274393143878,10.991458969587214,0.03541265402732449,1.700432831555459
1170,15.553131479050991,75.24274393143878,11.004353349243729,0.035457379476889275,1.702086185357566
1171,15.56642475381941,75.24274393143878,11.02025442243723,0.03550907330806225,1.7040996550740206
1172,15.57971802858783,75.24274393143878,11.038330757752743,0.035564423528126936,1.7063408082482483
1173,15.59301130335625,75.24274393143878,11.057371411715907,0.035619174078155055,1.7086294128295338
1174,15.60630457812467,75.24274393143878,11.07582578843629,0.03566830023824396,1.7107455257498678
1175,15.619597852893088,75.24274393143878,11.091898325144356,0.03570634031344325,1.7124446565519424
1176,15.632891127661509,75.24274393143878,11.103697583373059,0.035727877624212596,1.7134795376306313
1177,15.646184402429927,75.24274393143878,11.10942917427887,0.035728136044376094,1.713626754980999
1178,15.659477677198348,75.24274393143878,11.10761146220262,0.0357036228450709,1.7127153022865427
1179,15.672770951966768,75.24274393143878,11.09728571512723,0.035652730858920685,1.710653275626915
1180,15.686064226735189,75.24274393143878,11.078189897201995,0.03557620340658093,1.7074486411492213
1181,15.699357501503608,75.24274393143878,11.050867469948747,0.03547737313823854,1.7032204018698949
1182,15.712650776272026,75.24274393143878,11.016689415788141,0.03536210997250316,1.6981975514162337
1183,15.725944051040448,75.24274393143878,10.977778748315218,0.035238450631521444,1.6927047899167302
1184,15.739237325808864,75.24274393143878,10.936840357007437,0.03511592738313629,1.6871358438388526
1185,15.752530600577286,75.24274393143878,10.896912907313332,0.035004659837416505,1.6819170777256465
1186,15.765823875345705,75.24274393143878,10.86107140499506,0.0349143138432358,1.6774656083069417
1187,15.779117150114123,75.24274393143878,10.83211695322583,0.03485306212256066,1.6741471208435914
1188,15.792410424882544,75.24274393143878,10.812293014557358,0.03482669548920396,1.6722388555398937
1189,15.805703699650964,75.24274393143878,10.803064546933722,0.034838002226082285,1.6719023443392185
1190,15.818996974419385,75.24274393143878,10.80498660238323,0.03488646188244786,1.6731685923464907
1191,15.832290249187803,75.24274393143878,10.817674039435188,0.03496826739086391,1.6759368212837638
1192,15.845583523956224,75.24274393143878,10.839870475147515,0.03507670053377458,1.679986877763404
1193,15.858876798724642,75.24274393143878,10.869604722349234,0.03520284709837353,1.68500377568835
1194,15.872170073493065,75.24274393143878,10.904412824315946,0.03533655559615258,1.690610841947764
1195,15.885463348261482,75.24274393143878,10.941594875146627,0.0354674986017754,1.6964068695210919
1196,15.898756623029902,75.24274393143878,10.978473290969855,0.03558619647886877,1.7020026943698003
1197,15.91204989779832,75.24274393143878,11.01262306346446,0.03568488218022887,1.707053248853781
1198,15.92534317256674,75.24274393143878,11.04205203891145,0.03575811703596044,1.7112822072759786
1199,15.93863644733516,75.24274393143878,11.065318636306241,0.03580310770207793,1.714497638664712
1200,15.95192972210358,75.24274393143878,11.081584019221614,0.035819716778823556,1.7165983768273256
1201,15.965222996872,75.24274393143878,11.090604008531535,0.035810197878039476,1.7175719099013818
1202,15.97851627164042,75.24274393143878,11.092671924903618,0.035778714819049436,1.7174853530941483
1203,15.991809546408838,75.24274393143878,11.088526648757698,0.03573072170576138,1.7164714559453746
1204,16.00510282117726,75.24274393143878,11.079240642538714,0.03567228960119901,1.7147116428722569
1205,16.01839609594568,75.24274393143878,11.066101092036597,0.03560946655027502,1.7124178717726342
1206,16.031689370714098,75.24274393143878,11.050494527164592,0.03554774054228612,1.7098147349587407
1207,16.044982645482516,75.24274393143878,11.033802183121889,0.03549164335062504,1.707122895631623
1208,16.05827592025094,75.24274393143878,11.017310621468969,0.03544450791852189,1.7045447193459784
1209,16.071569195019357,75.24274393143878,11.002139961995212,0.03540837731951583,1.7022526670997502
1210,16.084862469787776,75.24274393143878,10.98919061332685,0.035384049517878345,1.7003806934310477
1211,16.098155744556195,75.24274393143878,10.97910871595566,0.03537122830690537,1.6990187794443248
1212,16.111449019324617,75.24274393143878,10.972270087032031,0.03536874216347312,1.6982106566543942
1213,16.124742294093036,75.24274393143878,10.968781830570054,0.0353747941167629,1.6979545307472343
1214,16.138035568861454,75.24274393143878,10.968500416234308,0.03538721484513262,1.6982065494744563
1215,16.151328843629877,75.24274393143878,10.97106487653109,0.03540369907901637,1.698886924984661
1216,16.164622118398295,75.24274393143878,10.975942906957062,0.03542201010835164,1.6998884956037128
1217,16.177915393166714,75.24274393143878,10.982486214471129,0.0354401427655969,1.70108709716119
1218,16.191208667935133,75.24274393143878,10.989990387570831,0.03545644124127741,1.7023528323713322
1219,16.204501942703555,75.24274393143878,10.997754115565755,0.03546967228090111,1.7035612350646154
1220,16.217795217471974,75.24274393143878,11.005132661241564,0.035479056642407775,1.7046032985262844
1221,16.231088492240392,75.24274393143878,11.011581128861895,0.035484262874582784,1.7053933928647005
