,time,sample_rate,Red,Green,Blue
0,0.0,75.24452921705617,0.6463288444970747,0.13497568373435817,0.6483171831763492
1,0.0132929593661904,75.24452921705617,0.6478715913657034,0.13517202291560712,0.6496960355329141
2,0.0265859187323808,75.24452921705617,0.6491936696792211,0.1353388007956374,0.650896562762541
3,0.0398788780985712,75.24452921705617,0.65013067904082,0.13545424280883858,0.6517848507416533
4,0.0531718374647617,75.24452921705617,0.6505919974803128,0.135508397062401,0.6522934253133663
5,0.0664647968309521,75.24452921705617,0.6505685446706887,0.13550384089624581,0.6524261452535364
6,0.0797577561971425,75.24452921705617,0.6501253561901739,0.13545383621999071,0.6522489842729772
7,0.093050715563333,75.24452921705617,0.6493842704284275,0.13537894878063836,0.6518721737057759
8,0.1063436749295234,75.24452921705617,0.6484999891927528,0.13530267846230337,0.6514266664978393
9,0.1196366342957138,75.24452921705617,0.6476324884492203,0.1352466466836376,0.6510377365056039
10,0.1329295936619042,75.24452921705617,0.6469205914534907,0.1352263588722354,0.6508010328895873
11,0.1462225530280947,75.24452921705617,0.6464633136701791,0.1352489167490612,0.6507685806223895
12,0.1595155123942851,75.24452921705617,0.6463131797961854,0.13531336395974805,0.6509487051370929
13,0.1728084717604755,75.24452921705617,0.6464798510157659,0.13541293890420597,0.6513162267851245
14,0.186101431126666,75.24452921705617,0.6469391418679495,0.1355378625965696,0.6518257794897402
15,0.1993943904928564,75.24452921705617,0.6476435396213834,0.13567773382583928,0.6524235390531471
16,0.2126873498590468,75.24452921705617,0.648532206716391,0.1358232188333835,0.6530558514085144
17,0.2259803092252372,75.24452921705617,0.649539435029738,0.1359670246470792,0.6536747294873074
18,0.2392732685914277,75.24452921705617,0.6506010900851131,0.13610425534321385,0.6542407133031705
19,0.2525662279576181,75.24452921705617,0.6516589350707868,0.13623229018169222,0.6547237671923705
20,0.2658591873238085,75.24452921705617,0.6526629285470003,0.1363503303650352,0.655102888216513
21,0.279152146689999,75.24452921705617,0.653571799293391,0.1364587557847084,0.6553650190761132
22,0.2924451060561894,75.24452921705617,0.6543524048945777,0.13655842104175664,0.655503739526358
23,0.3057380654223798,75.24452921705617,0.6549785013825092,0.13665000309674616,0.6555180763091879
24,0.3190310247885702,75.24452921705617,0.6554295604603289,0.13673349083792674,0.655411635952346
25,0.3323239841547606,75.24452921705617,0.6556901632366867,0.1368078776412681,0.6551921360913597
26,0.3456169435209511,75.24452921705617,0.6557502867930255,0.1368710829979199,0.654871297001698
27,0.3589099028871415,75.24452921705617,0.6556065183736633,0.136920104010378,0.6544649642611182
28,0.372202862253332,75.24452921705617,0.6552639355706366,0.13695138338149312,0.6539932747612731
29,0.3854958216195224,75.24452921705617,0.6547381413401303,0.13696134451811817,0.6534806583430234
30,0.3987887809857128,75.24452921705617,0.6540567986803075,0.13694699250423237,0.6529554911345302
31,0.4120817403519032,75.24452921705617,0.6532600131776249,0.13690646676477147,0.6524492782623703
32,0.4253746997180936,75.24452921705617,0.6523990725843495,0.13683945973681233,0.6519953064894614
33,0.4386676590842841,75.24452921705617,0.6515333448339371,0.13674744669767327,0.6516267620694703
34,0.4519606184504745,75.24452921705617,0.6507255027438198,0.13663369886021712,0.6513744145574848
35,0.465253577816665,75.24452921705617,0.6500356081088565,0.13650308288426116,0.6512641072321939
36,0.4785465371828554,75.24452921705617,0.649514873855852,0.13636168009311378,0.6513143576122816
37,0.4918394965490458,75.24452921705617,0.649200063652669,0.1362162813698949,0.651534348212276
38,0.5051324559152363,75.24452921705617,0.6491094128211663,0.1360738257317176,0.6519225497400448
39,0.5184254152814267,75.24452921705617,0.6492406777114994,0.13594085104026557,0.6524661724551882
40,0.5317183746476171,75.24452921705617,0.6495715981711779,0.1358230156962399,0.6531415653284091
41,0.5450113340138075,75.24452921705617,0.6500627541089133,0.13572473360722564,0.6539155842109419
42,0.558304293379998,75.24452921705617,0.650662436952455,0.13564894510438988,0.6547478444288258
43,0.5715972527461883,75.24452921705617,0.6513128031354944,0.13559702758280537,0.6555936736034613
44,0.5848902121123788,75.24452921705617,0.6519563872080164,0.13556883440611653,0.6564075001157195
45,0.5981831714785693,75.24452921705617,0.6525420547436457,0.13556284072945293,0.6571463614996629
46,0.6114761308447597,75.24452921705617,0.6530296246677549,0.13557637067590328,0.6577732008923041
47,0.6247690902109501,75.24452921705617,0.6533926537847059,0.13560588071393193,0.6582596393485927
48,0.6380620495771405,75.24452921705617,0.6536192073465849,0.13564727807514995,0.658587963900861
49,0.651355008943331,75.24452921705617,0.6537107766096962,0.13569625788522222,0.658752149194177
50,0.6646479683095213,75.24452921705617,0.6536797853325711,0.13574863864651648,0.6587578256257212
51,0.6779409276757118,75.24452921705617,0.6535463020669889,0.13580066369882482,0.6586212099157025
52,0.6912338870419023,75.24452921705617,0.6533346177211843,0.13584923967008988,0.6583671095588978
53,0.7045268464080926,75.24452921705617,0.6530702616749234,0.13589210263293383,0.6580261942526199
54,0.7178198057742831,75.24452921705617,0.6527778456317107,0.13592790968172824,0.6576318369675572
55,0.7311127651404735,75.24452921705617,0.6524798912787548,0.135956248201294,0.6572169459766517
56,0.744405724506664,75.24452921705617,0.6521965688641543,0.13597755944227677,0.6568111834322446
57,0.7576986838728543,75.24452921705617,0.6519460933423575,0.13599298670319654,0.6564387983202316
58,0.7709916432390448,75.24452921705617,0.65174541969216,0.13600417056393305,0.6561171951067871
59,0.7842846026052352,75.24452921705617,0.6516108565899668,0.1360130207993878,0.655856330234238
60,0.7975775619714256,75.24452921705617,0.6515582687697464,0.13602149578937017,0.6556589476569235
61,0.8108705213376161,75.24452921705617,0.6516026443831836,0.13603141510121386,0.6555215423244715
62,0.8241634807038065,75.24452921705617,0.6517569427607239,0.13604432090591764,0.6554358470589906
63,0.837456440069997,75.24452921705617,0.6520302899063373,0.13606139171863155,0.6553905897078796
64,0.8507493994361873,75.24452921705617,0.6524257363864353,0.13608340091815063,0.6553732624134369
65,0.8640423588023778,75.24452921705617,0.6529379191953901,0.13611070549753906,0.6553716794611611
66,0.8773353181685682,75.24452921705617,0.6535510595427128,0.13614324920599846,0.6553751639283788
67,0.8906282775347586,75.24452921705617,0.6542377648776924,0.13618056861822878,0.6553752827141018
68,0.903921236900949,75.24452921705617,0.6549590689428785,0.13622179894911451,0.6553661302213574
69,0.9172141962671396,75.24452921705617,0.6556660260206334,0.13626568565058056,0.6553442301763532
70,0.93050715563333,75.24452921705617,0.6563029749523666,0.1363106147133561,0.6553081728750662
71,0.9438001149995204,75.24452921705617,0.6568123162723855,0.13635467660121803,0.655258125570064
72,0.9570930743657108,75.24452921705617,0.6571403445924456,0.13639577485857918,0.6551953455829073
73,0.9703860337319012,75.24452921705617,0.6572434647832781,0.13643178150282065,0.6551217931129467
74,0.9836789930980916,75.24452921705617,0.6570940419442916,0.13646072976244406,0.6550398923779032
75,0.996971952464282,75.24452921705617,0.6566850637458636,0.13648102376172205,0.6549524373766814
76,1.0102649118304723,75.24452921705617,0.6560327586640495,0.13649163739087067,0.6548625941639356
77,1.0235578711966629,75.24452921705617,0.6551765450517111,0.13649227279413378,0.6547739244479596
78,1.0368508305628534,75.24452921705617,0.654176148367459,0.1364834531068694,0.6546903503750879
79,1.0501437899290438,75.24452921705617,0.6531061774846524,0.1364665332420157,0.6546159971301404
80,1.063436749295234,75.24452921705617,0.6520488129867873,0.13644362454610148,0.6545548834599388
81,1.0767297086614247,75.24452921705617,0.6510855286036817,0.1364174414045502,0.654510472273413
82,1.090022668027615,75.24452921705617,0.6502888996640703,0.136391087891443,0.65448513458564
83,1.1033156273938054,75.24452921705617,0.6497155219057079,0.1363678085028656,0.6544796112168001
84,1.116608586759996,75.24452921705617,0.6494008771006304,0.13635072809790763,0.6544925709942513
85,1.1299015461261863,75.24452921705617,0.64935667186188,0.1363426028258387,0.6545203585625807
86,1.1431945054923769,75.24452921705617,0.6495707983537226,0.13634559760284484,0.6545570005810957
87,1.1564874648585672,75.24452921705617,0.650009689275908,0.13636109885204467,0.6545945015816002
88,1.1697804242247576,75.24452921705617,0.6506225337352295,0.13638956606533367,0.6546234182606941
89,1.183073383590948,75.24452921705617,0.6513466399890119,0.13643042327104543,0.6546336619896568
90,1.1963663429571385,75.24452921705617,0.6521132015547498,0.13648199239972805,0.6546154502929044
91,1.2096593023233289,75.24452921705617,0.6528528347014022,0.13654147936888208,0.6545603120135068
92,1.2229522616895194,75.24452921705617,0.6535004636486106,0.1366050369649463,0.6544620476064346
93,1.2362452210557098,75.24452921705617,0.6539993686360851,0.1366679271483127,0.6543175532424569
94,1.2495381804219,75.24452921705617,0.6543044118995345,0.13672478745833444,0.6541274324668062
95,1.2628311397880907,75.24452921705617,0.6543845646600024,0.13676999298957895,0.6538963396805926
96,1.276124099154281,75.24452921705617,0.6542248531546612,0.13679809849544594,0.6536330235489587
97,1.2894170585204714,75.24452921705617,0.6538277391496626,0.13680433111162854,0.6533500629976581
98,1.302710017886662,75.24452921705617,0.6532137976734076,0.13678508595746414,0.6530633109147369
99,1.3160029772528523,75.24452921705617,0.6524214167961676,0.13673836453844582,0.6527910779729733
100,1.3292959366190429,75.24452921705617,0.6515051845705727,0.13666409340265498,0.652553097133114
101,1.3425888959852332,75.24452921705617,0.6505326897094006,0.1365642691901578,0.6523693105998054
102,1.3558818553514236,75.24452921705617,0.6495796558442523,0.13644289575053045,0.6522585275869536
103,1.369174814717614,75.24452921705617,0.6487236253558447,0.13630570665614133,0.6522370175657811
104,1.3824677740838045,75.24452921705617,0.6480367640154012,0.13615969751731483,0.6523171210609794
105,1.3957607334499949,75.24452921705617,0.6475786806375198,0.13601252122579024,0.6525059766060521
106,1.4090536928161852,75.24452921705617,0.6473902047338481,0.13587182003446044,0.6528044804005049
107,1.4223466521823758,75.24452921705617,0.6474888157273645,0.13574457717816404,0.6532066066134193
108,1.435639611548566,75.24452921705617,0.6478663173636819,0.13563656601487187,0.6536992102424622
109,1.4489325709147567,75.24452921705617,0.6484894098621397,0.13555195771069273,0.6542624059968742
110,1.462225530280947,75.24452921705617,0.649303456141559,0.13549312297410238,0.6548705662793954
111,1.4755184896471374,75.24452921705617,0.6502390271911428,0.13546063447694096,0.6554939141653121
112,1.488811449013328,75.24452921705617,0.6512202859738863,0.13545344963845288,0.6561006124292292
113,1.5021044083795183,75.24452921705617,0.6521740238337799,0.1354692346329111,0.6566591783761776
114,1.5153973677457089,75.24452921705617,0.6530380784936531,0.13550478127073506,0.6571409979311541
115,1.5286903271118992,75.24452921705617,0.6537679472641864,0.13555645214000245,0.657522681015602
116,1.5419832864780896,75.24452921705617,0.6543406741966967,0.13562056849242204,0.6577880005340966
117,1.55527624584428,75.24452921705617,0.6547555003906489,0.13569367721368136,0.657929191902857
118,1.5685692052104705,75.24452921705617,0.6550312626384711,0.13577269351150803,0.6579474565520168
119,1.5818621645766608,75.24452921705617,0.655201027985783,0.13585494446742682,0.6578526033836846
120,1.5951551239428512,75.24452921705617,0.6553048772366805,0.13593813063483529,0.6576618647008986
121,1.6084480833090418,75.24452921705617,0.6553820270391361,0.13602022503351321,0.6573980244179284
122,1.621741042675232,75.24452921705617,0.6554635619042575,0.13609934227594916,0.6570870808053647
123,1.6350340020414225,75.24452921705617,0.6555669228573708,0.13617361646818008,0.6567557160027974
124,1.648326961407613,75.24452921705617,0.6556929925160349,0.13624112354187964,0.6564288532660243
125,1.6616199207738034,75.24452921705617,0.6558261812184141,0.13629987445383251,0.6561275573551608
126,1.674912880139994,75.24452921705617,0.6559374276903226,0.13634789175071085,0.6558674801709631
127,1.6882058395061843,75.24452921705617,0.6559895608856274,0.1363833655860541,0.6556579783640223
128,1.7014987988723749,75.24452921705617,0.6559441085207061,0.13640486890186274,0.6555019442757495
129,1.7147917582385652,75.24452921705617,0.6557684373000994,0.13641159780297285,0.6553963095631196
130,1.7280847176047556,75.24452921705617,0.6554420780633278,0.13640359452948383,0.6553331113995476
131,1.741377676970946,75.24452921705617,0.6549612264778715,0.13638190852294427,0.6553009602006198
132,1.7546706363371365,75.24452921705617,0.654340716067197,0.13634865648101052,0.6552867188497106
133,1.7679635957033268,75.24452921705617,0.6536131812062508,0.1363069544412967,0.6552771973525386
134,1.7812565550695172,75.24452921705617,0.6528255725170582,0.1362607122594023,0.6552606822903165
135,1.7945495144357078,75.24452921705617,0.652033584673516,0.13621430107376412,0.6552281536371848
136,1.807842473801898,75.24452921705617,0.6512948553746906,0.13617212481210372,0.6551740869885727
137,1.8211354331680885,75.24452921705617,0.6506619537482231,0.13613814467093693,0.6550967908679658
138,1.834428392534279,75.24452921705617,0.650176177544644,0.13611541802355814,0.6549982809384166
139,1.8477213519004687,75.24452921705617,0.6498630266623224,0.13610571793203244,0.6548837413315803
140,1.86101431126666,75.24452921705617,0.6497299430573935,0.13610929461567284,0.6547606647694181
141,1.8743072706328503,75.24452921705617,0.6497665524757673,0.13612482532358644,0.6546377948575166
142,1.8876002299990409,75.24452921705617,0.649947268002165,0.13614957516094384,0.6545240125393633
143,1.9008931893652312,75.24452921705617,0.650235755236206,0.1361797614073835,0.6544273104285953
144,1.9141861487314216,75.24452921705617,0.6505904731518615,0.13621108216630115,0.654353980594699
145,1.927479108097612,75.24452921705617,0.6509704022218012,0.13623934209047572,0.6543081031854154
146,1.9407720674638025,75.24452921705617,0.6513401608060595,0.13626108861909583,0.6542913693216877
147,1.9540650268299928,75.24452921705617,0.6516738774042797,0.13627416560837752,0.6543032110435055
148,1.9673579861961832,75.24452921705617,0.6519573891144959,0.13627809929676074,0.654341155948113
149,1.9806509455623733,75.24452921705617,0.6521885971542108,0.13627425343880084,0.6544012869889391
150,1.993943904928564,75.24452921705617,0.6523760829881189,0.13626572281666569,0.6544786779984366
151,2.0072368642947547,75.24452921705617,0.6525363087709449,0.13625697190974054,0.6545676963928685
152,2.020529823660945,75.24452921705617,0.6526898700080088,0.1362532621366851,0.6546621127727464
153,2.033822783027136,75.24452921705617,0.6528573356453686,0.13625994103290293,0.6547550227691228
154,2.0471157423933257,75.24452921705617,0.6530552110840719,0.13628168568742413,0.6548386548534493
155,2.060408701759516,75.24452921705617,0.6532925095617704,0.13632179850190118,0.6549041925416306
156,2.073701661125707,75.24452921705617,0.653568332944892,0.13638164577253395,0.6549417658700765
157,2.086994620491897,75.24452921705617,0.6538707554871054,0.13646031048877091,0.6549407558223711
158,2.100287579858088,75.24452921705617,0.6541771759556525,0.13655450304670916,0.654890505014072
159,2.113580539224278,75.24452921705617,0.6544561575991558,0.13665874106363868,0.6547814457628729
160,2.1268734985904683,75.24452921705617,0.6546706379327359,0.13676577521503966,0.6546065579159228
161,2.1401664579566586,75.24452921705617,0.6547822629192328,0.1368672067613949,0.6543629736339384
162,2.1534594173228494,75.24452921705617,0.6547564269289454,0.13695422742902502,0.6540534755694054
163,2.16675237668904,75.24452921705617,0.6545674053818356,0.13701841457731037,0.6536876057871058
164,2.18004533605523,75.24452921705617,0.6542028739011995,0.13705250849701683,0.653282124999225
165,2.1933382954214204,75.24452921705617,0.6536671454783061,0.1370510847052488,0.6528606379631406
166,2.206631254787611,75.24452921705617,0.6529825745504895,0.13701104681002882,0.6524523196737928
167,2.2199242141538016,75.24452921705617,0.6521887726896872,0.13693190251997026,0.6520897955747079
168,2.233217173519992,75.24452921705617,0.6513395618811354,0.13681581603529192,0.6518063288214085
169,2.2465101328861823,75.24452921705617,0.6504979207164006,0.13666744935600406,0.6516325942341135
170,2.2598030922523726,75.24452921705617,0.6497294992261065,0.1364936202762016,0.6515934492577499
171,2.273096051618563,75.24452921705617,0.6490955296856578,0.13630281569412214,0.6517051393446993
172,2.2863890109847533,75.24452921705617,0.6486461019937839,0.13610460452779272,0.6519732932630834
173,2.299681970350944,75.24452921705617,0.6484147675678819,0.13590899600973716,0.6523919497751979
174,2.3129749297171345,75.24452921705617,0.6484151969699609,0.13572578767416896,0.6529437315851551
175,2.326267889083325,75.24452921705617,0.648640189305181,0.13556394406240868,0.6536011422716489
176,2.339560848449515,75.24452921705617,0.6490630161789459,0.13543104271584744,0.6543288277539072
177,2.352853807815705,75.24452921705617,0.6496409335677829,0.13533281867141117,0.6550865374042395
178,2.366146767181896,75.24452921705617,0.6503204322432815,0.13527283251448424,0.6558324539160393
179,2.3794397265480867,75.24452921705617,0.6510434582848483,0.13525228050012295,0.6565265407966849
180,2.392732685914277,75.24452921705617,0.6517536934913428,0.13526995872709585,0.6571335798194522
181,2.406025645280468,75.24452921705617,0.6524020613253294,0.13532239012193648,0.6576256300821951
182,2.4193186046466577,75.24452921705617,0.6529508132990955,0.13540412125353402,0.657983723661221
183,2.432611564012848,75.24452921705617,0.65337581379165,0.13550816881408614,0.6581987066194456
184,2.445904523379039,75.24452921705617,0.6536669413559868,0.13562654721648096,0.6582712248063579
185,2.459197482745229,75.24452921705617,0.6538268093192958,0.13575081374637255,0.6582109307603773
186,2.47249044211142,75.24452921705617,0.6538682301196528,0.13587262401672084,0.6580350400142475
187,2.48578340147761,75.24452921705617,0.6538109722697839,0.13598429740201515,0.6577663929760384
188,2.4990763608438,75.24452921705617,0.6536783743072427,0.13607934880448372,0.6574312245627537
189,2.5123693202099906,75.24452921705617,0.653494298928696,0.13615292576761692,0.6570569043850403
190,2.5256622795761814,75.24452921705617,0.6532807642673927,0.13620210400562435,0.6566698754648519
191,2.538955238942372,75.24452921705617,0.6530564184978561,0.13622601277743962,0.6562938964111966
192,2.552248198308562,75.24452921705617,0.6528358663850772,0.13622578073504163,0.6559486387304069
193,2.5655411576747524,75.24452921705617,0.6526297376424396,0.13620431341130942,0.6556487135466067
194,2.578834117040943,75.24452921705617,0.6524453163571929,0.1361659325592697,0.6554031887951512
195,2.592127076407133,75.24452921705617,0.6522875230205003,0.13611592251423243,0.6552156046535703
196,2.605420035773324,75.24452921705617,0.6521600419744382,0.1360600372799199,0.6550844455090741
197,2.6187129951395143,75.24452921705617,0.6520664023739179,0.136004022700953,0.6550039873721776
198,2.6320059545057046,75.24452921705617,0.6520108401915573,0.13595320064551264,0.6549654091766451
199,2.645298913871895,75.24452921705617,0.651998790592271,0.13591214779556143,0.654958037942899
200,2.6585918732380853,75.24452921705617,0.6520368896465187,0.1358844830787804,0.6549705936008012
201,2.671884832604276,75.24452921705617,0.652132410692235,0.13587275871240334,0.6549923106889085
202,2.6851777919704665,75.24452921705617,0.6522921306549659,0.13587843433286848,0.6550138401844664
203,2.698470751336657,75.24452921705617,0.6525207155095877,0.13590190514358969,0.6550278715381351
204,2.711763710702847,75.24452921705617,0.6528188223873177,0.13594255516277823,0.6550294562456774
205,2.725056670069037,75.24452921705617,0.6531812195255365,0.1359988150140125,0.6550160525982756
206,2.738349629435228,75.24452921705617,0.6535952986582376,0.13606821764918692,0.6549873402827415
207,2.7516425888014187,75.24452921705617,0.6540403711862138,0.13614746085880386,0.6549448697956597
208,2.764935548167609,75.24452921705617,0.6544880788131231,0.13623249798061543,0.6548916152627121
209,2.7782285075338,75.24452921705617,0.6549041049983042,0.13631868417586024,0.6548314930118361
210,2.7915214668999897,75.24452921705617,0.6552511466195199,0.13640100286200812,0.6547688959066511
211,2.80481442626618,75.24452921705617,0.6554928350957785,0.1364743851646714,0.654708278093765
212,2.8181073856323704,75.24452921705617,0.6555981344698614,0.1365341163082351,0.6546538082319425
213,2.831400344998561,75.24452921705617,0.655545724438854,0.13657630010150684,0.654609092541796
214,2.8446933043647515,75.24452921705617,0.6553277510950328,0.13659833068027166,0.6545769537846449
215,2.857986263730942,75.24452921705617,0.6549521351126957,0.13659930452446653,0.6545592415300746
216,2.871279223097132,75.24452921705617,0.6544427692704226,0.1365803000950606,0.6545566466442756
217,2.8845721824633226,75.24452921705617,0.6538373993319059,0.13654446027711442,0.654568501804635
218,2.8978651418295134,75.24452921705617,0.653183421790727,0.1364968346176637,0.6545925700592324
219,2.911158101195704,75.24452921705617,0.6525321665975268,0.13644397142764556,0.6546248509011835
220,2.924451060561894,75.24452921705617,0.6519325007022119,0.1363932886272949,0.6546594603097905
221,2.9377440199280844,75.24452921705617,0.6514247393785049,0.13635228945252345,0.6546886586483098
222,2.9510369792942748,75.24452921705617,0.65103583905586,0.136327717440432,0.6547031007860387
223,2.964329938660465,75.24452921705617,0.6507766599708125,0.13632475879205047,0.654692363093579
224,2.977622898026656,75.24452921705617,0.6506417526312833,0.13634639655982173,0.6546457640077082
225,2.9909158573928463,75.24452921705617,0.6506116925163424,0.13639300078093455,0.6545534451306492
226,3.0042088167590366,75.24452921705617,0.6506575378884388,0.13646220548351776,0.6544076273621602
227,3.017501776125227,75.24452921705617,0.6507466004869101,0.13654908236483806,0.6542039107969189
228,3.0307947354914173,75.24452921705617,0.6508484757177325,0.13664657931676913,0.6539424562040766
229,3.044087694857608,75.24452921705617,0.650940231706179,0.1367461653648002,0.6536288757191168
230,3.0573806542237985,75.24452921705617,0.6510098219121687,0.1368386151603432,0.6532746747548458
231,3.070673613589989,75.24452921705617,0.6510571365987415,0.13691485267464248,0.6528971267661456
232,3.083966572956179,75.24452921705617,0.651092576029183,0.1369667559720771,0.6525185312967469
233,3.097259532322369,75.24452921705617,0.6511335175385771,0.1369878355567299,0.6521648935370262
234,3.11055249168856,75.24452921705617,0.6511994578148933,0.13697373460138956,0.6518641025192358
235,3.12384545105475,75.24452921705617,0.6513068613551043,0.13692252997742962,0.6516436734327713
236,3.137138410420941,75.24452921705617,0.6514647861821229,0.13683483260780133,0.6515282088388571
237,3.150431369787132,75.24452921705617,0.6516721458567581,0.13671370063243987,0.6515369077375632
238,3.1637243291533217,75.24452921705617,0.6519170561278027,0.13656438888060388,0.6516814806769725
239,3.177017288519512,75.24452921705617,0.6521783044601408,0.13639396295225167,0.651964707157263
240,3.1903102478857024,75.24452921705617,0.6524286568708864,0.13621080776829658,0.6523797673169149
241,3.203603207251893,75.24452921705617,0.6526393952461392,0.1360240609956247,0.6529104128072597
242,3.2168961666180835,75.24452921705617,0.6527852131642173,0.13584300311973813,0.6535319648832637
243,3.230189125984274,75.24452921705617,0.6528485383713181,0.13567643887298395,0.6542130483269548
244,3.243482085350464,75.24452921705617,0.6528225053339654,0.13553210869684465,0.654917903589282
245,3.2567750447166546,75.24452921705617,0.6527120934386796,0.13541617229677325,0.6556090723647695
246,3.270068004082845,75.24452921705617,0.6525332962258541,0.13533280694173017,0.6562502260883242
247,3.283360963449036,75.24452921705617,0.6523105331399723,0.13528395889194592,0.65680890122943
248,3.296653922815226,75.24452921705617,0.652072818391467,0.1352692761329796,0.6572589167490233
249,3.3099468821814164,75.24452921705617,0.6518494144609165,0.13528623470804946,0.6575822746818782
250,3.3232398415476068,75.24452921705617,0.6516657639447315,0.13533045290634993,0.6577703828350964
251,3.336532800913797,75.24452921705617,0.6515403472527576,0.1353961695190669,0.6578244888215077
252,3.349825760279988,75.24452921705617,0.6514828041854547,0.13547683297703475,0.6577552771933861
253,3.3631187196461783,75.24452921705617,0.6514934174115706,0.13556571359492264,0.6575816544179568
254,3.3764116790123686,75.24452921705617,0.6515639388019903,0.13565645613894387,0.6573288248201181
255,3.389704638378559,75.24452921705617,0.6516795532480815,0.1357435333885994,0.6570258310601113
256,3.4029975977447493,75.24452921705617,0.6518215466715573,0.1358225836044337,0.6567027864925363
257,3.41629055711094,75.24452921705617,0.6519701648435717,0.1358906112804353,0.656388092778963
258,3.4295835164771304,75.24452921705617,0.6521072162945779,0.1359460400305783,0.6561059985031223
259,3.442876475843321,75.24452921705617,0.6522180950868922,0.13598862805824113,0.6558747961836353
260,3.456169435209511,75.24452921705617,0.6522930411410082,0.13601927263479965,0.6557057838317272
261,3.469462394575701,75.24452921705617,0.6523275953805857,0.1360397380850276,0.6556029993108919
262,3.482755353941892,75.24452921705617,0.6523223233584023,0.13605234376856612,0.6555636909184631
263,3.496048313308082,75.24452921705617,0.6522819632286476,0.13605964570280976,0.655579419652575
264,3.509341272674273,75.24452921705617,0.6522141987817968,0.13606413973305578,0.6556376066269477
265,3.522634232040464,75.24452921705617,0.6521282688935676,0.1360680074084364,0.6557232950189182
266,3.5359271914066537,75.24452921705617,0.6520336080754824,0.13607291948371789,0.6558208967854996
267,3.549220150772844,75.24452921705617,0.6519386774005742,0.1360799070305868,0.6559157318686826
268,3.5625131101390344,75.24452921705617,0.6518500993629655,0.13608930646174794,0.6559952308994339
269,3.575806069505225,75.24452921705617,0.6517721613660611,0.13610078160422368,0.656049745926372
270,3.5890990288714155,75.24452921705617,0.6517067057615011,0.13611342225563813,0.6560729812264643
271,3.602391988237606,75.24452921705617,0.6516533830050755,0.13612591358066659,0.6560621042691568
272,3.615684947603796,75.24452921705617,0.6516102104447494,0.13613676408037467,0.6560176176885553
273,3.6289779069699866,75.24452921705617,0.6515743536122568,0.13614457238924046,0.6559430664166096
274,3.642270866336177,75.24452921705617,0.6515430304148875,0.13614830624225052,0.6558446269060804
275,3.655563825702368,75.24452921705617,0.651514431738046,0.13614756230410502,0.6557305896957587
276,3.668856785068558,75.24452921705617,0.651488554371241,0.1361427745615294,0.6556107162513108
277,3.682149744434749,75.24452921705617,0.6514678524450279,0.13613534226999383,0.6554954379017098
278,3.6954427038009374,75.24452921705617,0.6514576292265302,0.13612765567415136,0.6553948755946047
279,3.708735663167129,75.24452921705617,0.6514661093253132,0.13612300773017308,0.6553176941405787
280,3.72202862253332,75.24452921705617,0.6515041501255621,0.1361253912825704,0.6552698567560635
281,3.7353215818995102,75.24452921705617,0.6515845705833515,0.13613919208541364,0.6552534028300371
282,3.7486145412657006,75.24452921705617,0.6517210977381105,0.13616879762047007,0.6552654190817094
283,3.761907500631891,75.24452921705617,0.6519269601893675,0.1362181493136467,0.6552973975235171
284,3.775200459998081,75.24452921705617,0.6522131967182003,0.1362902714226582,0.6553351627546492
285,3.788493419364272,75.24452921705617,0.6525867976678998,0.136386813776741,0.6553595023762186
286,3.8017863787304624,75.24452921705617,0.6530488523639149,0.1365076479537644,0.6553475516104662
287,3.815079338096653,75.24452921705617,0.6535929281251855,0.13665055743799134,0.6552748776061977
288,3.828372297462843,75.24452921705617,0.6542039414402725,0.13681106149621253,0.655118096929899
289,3.8416652568290335,75.24452921705617,0.6548577843852097,0.1369824087729549,0.6548577604285547
290,3.854958216195224,75.24452921705617,0.6555219262673745,0.13715576851549605,0.6544811711098447
291,3.868251175561414,75.24452921705617,0.6561571157031052,0.13732062947928475,0.6539847765816333
292,3.881544134927605,75.24452921705617,0.6567201623707534,0.13746539039172026,0.6533758043656187
293,3.8948370942937953,75.24452921705617,0.6571675993545605,0.13757812694652455,0.6526728838279228
294,3.9081300536599857,75.24452921705617,0.6574598782985516,0.13764754433561333,0.6519055122113271
295,3.921423013026176,75.24452921705617,0.6575656586319389,0.13766407581189813,0.6511123578830654
296,3.9347159723923664,75.24452921705617,0.6574656559279642,0.1376209757211711,0.6503385344031951
297,3.948008931758557,75.24452921705617,0.6571554418217546,0.13751522187798632,0.6496321070977528
298,3.961301891124748,75.24452921705617,0.6566466806917179,0.13734809642272564,0.649040218689987
299,3.974594850490938,75.24452921705617,0.6559665392110179,0.1371253608200562,0.6486053187005241
300,3.987887809857128,75.24452921705617,0.6551552865915456,0.1368569734962909,0.6483618402528575
301,4.001180769223319,75.24452921705617,0.6542623652318924,0.13655634916633116,0.6483333251574201
302,4.014473728589509,75.24452921705617,0.6533414387809102,0.13623922155617801,0.6485300434733038
303,4.027766687955699,75.24452921705617,0.652445076558272,0.1359222312772982,0.6489475725284409
304,4.04105964732189,75.24452921705617,0.6516197783476352,0.13562140674700965,0.6495667993703352
305,4.05435260668808,75.24452921705617,0.6509019751693955,0.1353507287329943,0.6503553766143828
306,4.067645566054271,75.24452921705617,0.6503154744861609,0.13512096308503896,0.6512703888973308
307,4.0809385254204615,75.24452921705617,0.6498705848044855,0.13493891126345325,0.6522619227150681
308,4.094231484786651,75.24452921705617,0.6495648971828983,0.1348071692054458,0.6532771793393467
309,4.107524444152842,75.24452921705617,0.6493854636365344,0.1347244108500431,0.6542647256410077
310,4.120817403519032,75.24452921705617,0.6493119324780705,0.13468613517904612,0.6551784723962516
311,4.134110362885223,75.24452921705617,0.6493201037344761,0.13468574758808957,0.6559810069018415
312,4.147403322251414,75.24452921705617,0.6493853637840271,0.13471580240482622,0.6566459840254278
313,4.160696281617604,75.24452921705617,0.6494855406511263,0.13476922019107063,0.6571593872177991
314,4.173989240983794,75.24452921705617,0.649602868719143,0.1348402878989664,0.6575195952603688
315,4.187282200349984,75.24452921705617,0.6497249325284123,0.13492525498850738,0.6577363170218999
316,4.200575159716175,75.24452921705617,0.6498446385968679,0.1350224227825414,0.6578285710889908
317,4.213868119082366,75.24452921705617,0.6499594107517994,0.1351317721394875,0.6578219772769714
318,4.227161078448556,75.24452921705617,0.6500698968290728,0.13525426619734587,0.6577456830032284
319,4.240454037814747,75.24452921705617,0.6501785115959753,0.13539098289292203,0.6576292637126789
320,4.2537469971809365,75.24452921705617,0.6502881240617681,0.13554224150667468,0.6574999126209106
321,4.267039956547127,75.24452921705617,0.6504010829344069,0.13570688870848224,0.6573801762365177
322,4.280332915913317,75.24452921705617,0.6505185934005653,0.13588187773457647,0.6572864085225655
323,4.293625875279508,75.24452921705617,0.6506404004046327,0.13606221617854192,0.6572280211677947
324,4.306918834645699,75.24452921705617,0.6507648066001659,0.13624128890353038,0.6572075136471301
325,4.320211794011889,75.24452921705617,0.6508890334170709,0.13641149610324674,0.6572211860243877
326,4.33350475337808,75.24452921705617,0.6510098156669779,0.1365650942511454,0.6572603770931175
327,4.346797712744269,75.24452921705617,0.6511240689909458,0.13669509750512834,0.6573130340875523
328,4.36009067211046,75.24452921705617,0.6512294910231086,0.1367960927255915,0.6573654004092395
329,4.373383631476651,75.24452921705617,0.6513249874583874,0.136864841891247,0.6574036063305093
330,4.386676590842841,75.24452921705617,0.651410847006371,0.13690058666663996,0.6574150262966257
331,4.399969550209032,75.24452921705617,0.6514886298246987,0.13690502330443022,0.6573894074360254
332,4.413262509575222,75.24452921705617,0.6515607803124622,0.13688197211273612,0.6573197836122284
333,4.426555468941412,75.24452921705617,0.6516300232075496,0.1368368142716567,0.6572030690137162
334,4.439848428307603,75.24452921705617,0.6516986451190374,0.13677580138911255,0.6570402271167991
335,4.453141387673793,75.24452921705617,0.65176779426199,0.1367053547522806,0.6568360398154741
336,4.466434347039984,75.24452921705617,0.6518369423381158,0.136631461011144,0.6565985702922135
337,4.479727306406174,75.24452921705617,0.6519036399596394,0.13655924250768967,0.6563384109428541
338,4.493020265772365,75.24452921705617,0.6519636603793485,0.13649274036208667,0.6560678019530063
339,4.5063132251385545,75.24452921705617,0.6520115694687402,0.13643490441876677,0.6557997018364555
340,4.519606184504745,75.24452921705617,0.65204169053694,0.13638774459066486,0.6555468808547702
341,4.532899143870936,75.24452921705617,0.6520493609379966,0.13635257454178135,0.6553210918952049
342,4.546192103237126,75.24452921705617,0.6520323147083574,0.1363302739241028,0.6551323520492581
343,4.559485062603317,75.24452921705617,0.6519919822589629,0.13632149606708296,0.6549883450543784
344,4.572778021969507,75.24452921705617,0.6519344826985656,0.1363267534027465,0.6548939346659909
345,4.5860709813356975,75.24452921705617,0.6518711014079293,0.13634633985101238,0.6548507673508591
346,4.599363940701888,75.24452921705617,0.651818095332885,0.13638009381550925,0.6548569440868566
347,4.612656900068078,75.24452921705617,0.6517957467373192,0.13642704710724576,0.6549067576435202
348,4.625949859434269,75.24452921705617,0.6518266840959862,0.13648503692812894,0.6549905215667736
349,4.639242818800459,75.24452921705617,0.6519335941555452,0.13655037907429138,0.6550945534993421
350,4.65253577816665,75.24452921705617,0.6521365475512955,0.13661770583486396,0.6552014075853602
351,4.66582873753284,75.24452921705617,0.6524502369274154,0.13668005771627187,0.6552904656538486
352,4.67912169689903,75.24452921705617,0.6528814680850431,0.13672928373450574,0.6553389831098483
353,4.692414656265221,75.24452921705617,0.6534272419121138,0.13675675395202017,0.6553236366527331
354,4.705707615631411,75.24452921705617,0.6540737142593477,0.13675432751137992,0.6552225392063248
355,4.719000574997602,75.24452921705617,0.6547962263097863,0.13671546009969554,0.6550175847168155
356,4.732293534363792,75.24452921705617,0.6555604706568117,0.13663628850707527,0.6546968821072311
357,4.745586493729983,75.24452921705617,0.6563247150796553,0.13651650778373925,0.6542569582502575
358,4.758879453096173,75.24452921705617,0.6570428674692735,0.13635986611134887,0.6537043771100808
359,4.772172412462363,75.24452921705617,0.6576680447070196,0.13617414603399086,0.6530564510933748
360,4.785465371828554,75.24452921705617,0.6581562269602366,0.13597057369076512,0.6523408138301698
361,4.798758331194744,75.24452921705617,0.6584696131678878,0.135762689360679,0.6515937704353056
362,4.812051290560935,75.24452921705617,0.6585794340245215,0.1355648075232523,0.6508575196045904
363,4.8253442499271255,75.24452921705617,0.6584680341024834,0.13539027538614465,0.6501765238891587
364,4.838637209293315,75.24452921705617,0.6581299975600853,0.13524978986041142,0.649593459482073
365,4.851930168659506,75.24452921705617,0.6575721956633949,0.13515004305188733,0.6491452956160956
366,4.865223128025696,75.24452921705617,0.6568128634428013,0.13509293559927082,0.6488601048315359
367,4.878516087391887,75.24452921705617,0.6558799607040837,0.13507552659202315,0.6487550145874792
368,4.891809046758078,75.24452921705617,0.6548091111424037,0.13509074984185823,0.6488353139467294
369,4.905102006124268,75.24452921705617,0.6536414004808868,0.13512874374701814,0.6490946149360047
370,4.918394965490458,75.24452921705617,0.652421258190719,0.13517854935168236,0.6495161538961469
371,4.931687924856648,75.24452921705617,0.6511945549444303,0.1352299451980903,0.6500752052333317
372,4.944980884222839,75.24452921705617,0.6500069432059373,0.13527517100702433,0.6507421887158183
373,4.958273843589029,75.24452921705617,0.6489023780420455,0.1353102497262262,0.6514858744913086
374,4.97156680295522,75.24452921705617,0.6479217031071649,0.13533565998136976,0.6522761654888761
375,4.984859762321411,75.24452921705617,0.6471011863683052,0.13535623353413329,0.6530860882459112
376,4.9981527216876005,75.24452921705617,0.6464709412374655,0.13538029429286266,0.6538928118100555
377,5.011445681053791,75.24452921705617,0.6460532573050303,0.13541818850844467,0.6546777203946704
378,5.024738640419981,75.24452921705617,0.6458609680774342,0.1354804594331704,0.6554257478194225
379,5.038031599786172,75.24452921705617,0.6458960739881126,0.13557597476659172,0.6561243061848405
380,5.051324559152363,75.24452921705617,0.6461489065692694,0.13571031284142376,0.6567621854438844
381,5.064617518518553,75.24452921705617,0.6465981400979479,0.1358846565841115,0.6573287604414969
382,5.077910477884744,75.24452921705617,0.6472118070620307,0.13609534677459081,0.6578137316862078
383,5.091203437250933,75.24452921705617,0.6479491832423998,0.1363341293294485,0.6582074739270819
384,5.104496396617124,75.24452921705617,0.6487633314420811,0.1365890186275887,0.6585019080224398
385,5.117789355983315,75.24452921705617,0.6496042435603318,0.13684561045640203,0.6586916810781568
386,5.131082315349505,75.24452921705617,0.6504224669448303,0.1370886270482238,0.6587753634975908
387,5.144375274715696,75.24452921705617,0.6511728515392218,0.1373034671812788,0.6587563622228613
388,5.157668234081886,75.24452921705617,0.6518179555105313,0.1374775624189721,0.6586433045497833
389,5.170961193448076,75.24452921705617,0.6523307198830547,0.13760139602024643,0.6584497508808954
390,5.184254152814266,75.24452921705617,0.6526961375691074,0.13766911022420789,0.6581932193593639
391,5.197547112180457,75.24452921705617,0.6529117730347069,0.1376786964421355,0.657893625479832
392,5.210840071546648,75.24452921705617,0.6529871276259562,0.13763181970614252,0.6575713657239696
393,5.224133030912838,75.24452921705617,0.6529419718832511,0.1375333655522833,0.6572453826363079
394,5.2374259902790286,75.24452921705617,0.6528038648033572,0.13739081074661122,0.6569315344456957
395,5.2507189496452185,75.24452921705617,0.6526051418700355,0.1372135113164092,0.6566414617965465
396,5.264011909011409,75.24452921705617,0.6523796776610479,0.13701197985582173,0.6563820426544449
397,5.2773048683776,75.24452921705617,0.6521597203688227,0.13679719771450954,0.6561554747549712
398,5.29059782774379,75.24452921705617,0.6519730637183944,0.13657998403506827,0.6559599446176583
399,5.303890787109981,75.24452921705617,0.6518407758659456,0.1363704286387375,0.6557907448996153
400,5.317183746476171,75.24452921705617,0.6517756518425167,0.1361773920228547,0.6556416362202087
401,5.330476705842361,75.24452921705617,0.6517814992903885,0.13600808152015895,0.6555062256388007
402,5.343769665208552,75.24452921705617,0.651853306786972,0.13586772310094739,0.6553791489093538
403,5.357062624574742,75.24452921705617,0.6519782787015932,0.13575935710303078,0.6552568922661607
404,5.370355583940933,75.24452921705617,0.6521376499126668,0.1356837876967143,0.6551381613931696
405,5.383648543307123,75.24452921705617,0.6523091204073307,0.13563970692971905,0.6550237871372019
406,5.396941502673314,75.24452921705617,0.6524696803698169,0.1356239950820665,0.6549162352761456
407,5.410234462039504,75.24452921705617,0.6525985409158261,0.1356321736459487,0.6548188485447951
408,5.423527421405694,75.24452921705617,0.6526798556192935,0.13565896175478429,0.6547349838608201
409,5.436820380771885,75.24452921705617,0.6527049230681865,0.13569886798867764,0.6546672116601192
410,5.450113340138075,75.24452921705617,0.6526736054550324,0.13574674224535901,0.654616717957045
411,5.463406299504266,75.24452921705617,0.6525947799908165,0.1357982187816112,0.6545829986355616
412,5.476699258870456,75.24452921705617,0.652485748658868,0.13585000011566167,0.6545638692221393
413,5.489992218236647,75.24452921705617,0.6523706520145872,0.135899957961033,0.6545557446926487
414,5.503285177602837,75.24452921705617,0.6522780469676285,0.135947056094156,0.6545540866631436
415,5.516578136969027,75.24452921705617,0.6522379011792205,0.13599112561127852,0.6545538823256317
416,5.529871096335218,75.24452921705617,0.6522783170216848,0.13603254140196364,0.6545500193510817
417,5.543164055701408,75.24452921705617,0.6524223211484421,0.13607185785450052,0.6545374556772994
418,5.556457015067599,75.24452921705617,0.6526850424579147,0.13610946175407207,0.6545111465904343
419,5.5697499744337895,75.24452921705617,0.6530715567150469,0.1361452924457691,0.6544657702733995
420,5.583042933799979,75.24452921705617,0.653575607787584,0.13617866585649388,0.654395368591675
421,5.59633589316617,75.24452921705617,0.6541793316497557,0.13620822240686362,0.6542930729821544
422,5.60962885253236,75.24452921705617,0.6548540166758322,0.13623200154140125,0.654151100150155
423,5.622921811898551,75.24452921705617,0.6555618388395359,0.1362476295090737,0.6539611705613249
424,5.636214771264741,75.24452921705617,0.6562584047162391,0.13625259359867858,0.6537154260410407
425,5.649507730630932,75.24452921705617,0.6568958331363283,0.1362445662738738,0.6534078132208901
426,5.662800689997122,75.24452921705617,0.6574261433699792,0.13622173717610986,0.6530357780188762
427,5.676093649363312,75.24452921705617,0.6578048754793698,0.13618311009097978,0.6526020090148075
428,5.689386608729503,75.24452921705617,0.6579947851855379,0.13612872579025245,0.6521159005691923
429,5.702679568095693,75.24452921705617,0.6579691473811095,0.1360597800159209,0.6515944010041016
430,5.715972527461884,75.24452921705617,0.6577141712319698,0.13597861830671298,0.6510619760688718
431,5.729265486828075,75.24452921705617,0.6572302893864094,0.13588860496596555,0.6505495612468557
432,5.7425584461942645,75.24452921705617,0.6565322666517267,0.13579388085290042,0.6500925692837748
433,5.755851405560455,75.24452921705617,0.6556481508903509,0.13569904169932548,0.6497281060132087
434,5.769144364926645,75.24452921705617,0.6546171806293208,0.13560878423312783,0.6494915164314706
435,5.782437324292836,75.24452921705617,0.6534868644299023,0.13552757761129017,0.6494125556402558
436,5.795730283659027,75.24452921705617,0.6523095259520384,0.1354594052933872,0.6495118233772355
437,5.809023243025217,75.24452921705617,0.6511386521359943,0.13540758919928148,0.6497981291030851
438,5.822316202391408,75.24452921705617,0.6500253816344176,0.13537469667559568,0.6502671600043498
439,5.835609161757597,75.24452921705617,0.6490154275769556,0.13536254312468848,0.6509015743305022
440,5.848902121123788,75.24452921705617,0.6481466518595345,0.13537228672641305,0.6516724833119235
441,5.862195080489978,75.24452921705617,0.6474474121930391,0.13540457036743156,0.6525421196102686
442,5.875488039856169,75.24452921705617,0.6469357052828556,0.13545964619296497,0.6534673386241913
443,5.88878099922236,75.24452921705617,0.6466190457878639,0.1355374256083485,0.6544034991153446
444,5.9020739585885496,75.24452921705617,0.6464949629721808,0.13563741747795452,0.6553082374274275
445,5.91536691795474,75.24452921705617,0.6465519718409666,0.13575854612078977,0.6561446902249003
446,5.92865987732093,75.24452921705617,0.6467708822201435,0.13589887498657593,0.6568838258603268
447,5.941952836687121,75.24452921705617,0.6471263507662273,0.1360552946229145,0.6575056950675863
448,5.955245796053312,75.24452921705617,0.6475886385995094,0.13622325720786965,0.657999581102622
449,5.968538755419502,75.24452921705617,0.6481255028923627,0.13639664790007852,0.6583631886191021
450,5.9818317147856925,75.24452921705617,0.6487040292160731,0.13656787164560708,0.658601133193628
451,5.995124674151882,75.24452921705617,0.6492922614222727,0.13672820298817231,0.6587230609286296
452,6.008417633518073,75.24452921705617,0.6498606985971755,0.1368684004693629,0.6587417324920599
453,6.021710592884264,75.24452921705617,0.6503837491764008,0.1369795348669654,0.6586713530838113
454,6.035003552250454,75.24452921705617,0.6508410623097931,0.13705393237229077,0.658526334469527
455,6.048296511616645,75.24452921705617,0.6512185723176063,0.13708610023664294,0.6583205596558303
456,6.061589470982835,75.24452921705617,0.651509118219321,0.13707349019366272,0.6580671068903254
457,6.074882430349025,75.24452921705617,0.6517125449743612,0.137016967925681,0.6577782992082004
458,6.088175389715215,75.24452921705617,0.6518352464309661,0.13692090161410697,0.6574659104127115
459,6.101468349081406,75.24452921705617,0.6518891744878098,0.13679285098979735,0.6571413796354411
460,6.114761308447597,75.24452921705617,0.6518904040196009,0.13664289622154066,0.6568159095508438
461,6.128054267813787,75.24452921705617,0.6518573983411615,0.13648268313266143,0.6565003399427367
462,6.141347227179978,75.24452921705617,0.6518091560220032,0.1363243002850521,0.6562047550968793
463,6.154640186546168,75.24452921705617,0.6517634308479747,0.13617913771797782,0.6559378865325756
464,6.167933145912358,75.24452921705617,0.6517352010288987,0.13605687896596025,0.6557064450051021
465,6.181226105278549,75.24452921705617,0.6517355242424332,0.1359647471280446,0.6555145415122968
466,6.194519064644739,75.24452921705617,0.6517708587906318,0.1359070766959635,0.6553633470841698
467,6.20781202401093,75.24452921705617,0.6518428681714463,0.135885225751734,0.6552510968973673
468,6.22110498337712,75.24452921705617,0.6519486682549205,0.13589778854862405,0.6551734726960365
469,6.234397942743311,75.24452921705617,0.6520814334855646,0.13594102734043534,0.6551243151884636
470,6.247690902109501,75.24452921705617,0.6522312579610748,0.13600942242461544,0.6550965452605313
471,6.260983861475691,75.24452921705617,0.6523861701093339,0.13609624348491572,0.6550831280552379
472,6.274276820841882,75.24452921705617,0.6525332210571977,0.13619407030767058,0.6550779083369865
473,6.287569780208072,75.24452921705617,0.6526595967353825,0.1362952285033234,0.6550761794036616
474,6.300862739574263,75.24452921705617,0.6527537301941141,0.1363921447504803,0.6550749107270221
475,6.314155698940453,75.24452921705617,0.6528064028320698,0.13647765516932797,0.65507263393217
476,6.327448658306643,75.24452921705617,0.6528118153100865,0.13654531174578718,0.6550690535336235
477,6.340741617672834,75.24452921705617,0.6527685816135624,0.13658972256252838,0.6550644928573134
478,6.354034577039024,75.24452921705617,0.6526805606833027,0.13660693515297376,0.655059299293233
479,6.367327536405215,75.24452921705617,0.6525574019367214,0.13659483669276637,0.655053317630261
480,6.380620495771405,75.24452921705617,0.6524146583229565,0.1365535106943022,0.6550455041194166
481,6.393913455137596,75.24452921705617,0.6522733257227832,0.13648546777089934,0.6550337095824479
482,6.407206414503786,75.24452921705617,0.6521587074507175,0.13639566527124597,0.6550146202055906
483,6.420499373869976,75.24452921705617,0.6520985765810002,0.1362912497616703,0.6549838195381413
484,6.433792333236167,75.24452921705617,0.6521207079170873,0.13618099484876356,0.6549359292791284
485,6.447085292602357,75.24452921705617,0.6522499600860856,0.13607445770315513,0.6548647982548808
486,6.460378251968548,75.24452921705617,0.6525051871564782,0.1359809312144832,0.65476373197744
487,6.4736712113347386,75.24452921705617,0.6528963290681942,0.13590831469697334,0.6546257798364649
488,6.4869641707009285,75.24452921705617,0.6534220555470953,0.13586205545168198,0.6544441137930082
489,6.500257130067119,75.24452921705617,0.6540683103969074,0.1358443199739932,0.6542125344396864
490,6.513550089433309,75.24452921705617,0.6548080221177792,0.13585353455632398,0.6539261246578086
491,6.5268430487995,75.24452921705617,0.6556021214598007,0.13588439200048624,0.6535820396448438
492,6.54013600816569,75.24452921705617,0.6564018534343161,0.13592835969577755,0.6531803807470986
493,6.553428967531881,75.24452921705617,0.6571522100245861,0.13597465333950276,0.6527250582711662
494,6.566721926898071,75.24452921705617,0.657796165079741,0.1360115709418785,0.6522245156403901
495,6.580014886264261,75.24452921705617,0.6582793058006952,0.1360280244670464,0.6516921735822291
496,6.593307845630452,75.24452921705617,0.658554436198368,0.13601507073563693,0.6511464652217507
497,6.606600804996642,75.24452921705617,0.65858572414941,0.13596723494620405,0.6506103722855174
498,6.619893764362833,75.24452921705617,0.6583519731537985,0.13588344108495953,0.6501104362527005
499,6.633186723729024,75.24452921705617,0.6578486901617684,0.1357674110816377,0.6496752939092718
500,6.6464796830952135,75.24452921705617,0.6570887780269186,0.13562746263207692,0.6493338393817977
501,6.659772642461404,75.24452921705617,0.6561018304375195,0.13547571535803313,0.6491131356149857
502,6.673065601827594,75.24452921705617,0.6549321296502305,0.13532679578198162,0.6490362394204657
503,6.686358561193785,75.24452921705617,0.6536355515991392,0.1351962046423896,0.6491201617677912
504,6.699651520559976,75.24452921705617,0.6522756623126785,0.13509856360549366,0.6493741805342238
505,6.712944479926166,75.24452921705617,0.6509193376542799,0.13504596341085592,0.6497986605226772
506,6.7262374392923565,75.24452921705617,0.6496322548511348,0.13504659196059965,0.650384481074179
507,6.739530398658546,75.24452921705617,0.6484745918768808,0.13510378985131696,0.6511131327214063
508,6.752823358024737,75.24452921705617,0.6474972348768685,0.1352156666615251,0.6519575013470907
509,6.766116317390927,75.24452921705617,0.6467387409480594,0.1353753427168938,0.6528833101867202
510,6.779409276757118,75.24452921705617,0.6462232399586273,0.1355717680621845,0.6538511398840529
511,6.792702236123309,75.24452921705617,0.6459593896602694,0.13579098430747702,0.6548188969532301
512,6.805995195489499,75.24452921705617,0.6459404267956547,0.1360176490337535,0.6557445556953049
513,6.819288154855689,75.24452921705617,0.6461452856873885,0.1362366213264554,0.6565889633508247
514,6.832581114221879,75.24452921705617,0.6465406908254512,0.1364344115649058,0.6573184789119327
515,6.84587407358807,75.24452921705617,0.6470840720124842,0.1366003296733138,0.6579072174696631
516,6.859167032954261,75.24452921705617,0.647727071191295,0.1367272184894321,0.6583386969589636
517,6.872459992320451,75.24452921705617,0.6484193193752249,0.13681172448163897,0.6586067324140431
518,6.885752951686642,75.24452921705617,0.6491121553805158,0.13685412606535463,0.6587154908489976
519,6.899045911052832,75.24452921705617,0.6497620351216039,0.1368577990465754,0.6586787011588726
520,6.912338870419022,75.24452921705617,0.6503334179418307,0.13682843974894102,0.6585180991747154
521,6.925631829785213,75.24452921705617,0.6508009109638524,0.13677318347191383,0.6582612678364458
522,6.938924789151403,75.24452921705617,0.6511504923177683,0.13669974848479136,0.6579390955777799
523,6.952217748517594,75.24452921705617,0.6513797208102036,0.1366157082025621,0.6575831124717013
524,6.965510707883784,75.24452921705617,0.6514969348181487,0.13652795450165423,0.6572229668410535
525,6.978803667249975,75.24452921705617,0.6515195373139289,0.13644237257693764,0.656884269946005
526,6.992096626616165,75.24452921705617,0.6514715518934195,0.13636371050859938,0.6565869702478453
527,7.005389585982355,75.24452921705617,0.6513807070400103,0.1362956002658171,0.6563443646439945
528,7.018682545348546,75.24452921705617,0.651275353464379,0.13624067335958692,0.6561628201120162
529,7.031975504714736,75.24452921705617,0.6511815343564219,0.1362007129997799,0.6560421880563371
530,7.045268464080927,75.24452921705617,0.6511205063307405,0.13617679267479232,0.6559767583872955
531,7.058561423447117,75.24452921705617,0.6511069503412756,0.13616936528668555,0.6559565496671933
532,7.071854382813307,75.24452921705617,0.6511480234258089,0.13617828510980776,0.6559687685105423
533,7.085147342179498,75.24452921705617,0.65124329589669,0.1362027642732845,0.6559993015546477
534,7.098440301545688,75.24452921705617,0.6513855103021515,0.13624128187748802,0.6560341161866093
535,7.111733260911879,75.24452921705617,0.6515620046837813,0.136291475839308,0.6560604693830464
536,7.125026220278069,75.24452921705617,0.6517565773339309,0.13635005704908257,0.6560678555508173
537,7.13831917964426,75.24452921705617,0.6519515420214851,0.13641279091745312,0.6560486569485242
538,7.15161213901045,75.24452921705617,0.6521297331241529,0.1364745888811109,0.6559984908327924
539,7.16490509837664,75.24452921705617,0.6522762638169132,0.13652974077301805,0.6559162727455482
540,7.178198057742831,75.24452921705617,0.6523799062239306,0.13657229919486868,0.6558040330059939
541,7.191491017109021,75.24452921705617,0.6524340357255162,0.13659660105605057,0.6556665321331258
542,7.204783976475212,75.24452921705617,0.6524371475254744,0.13659788281066512,0.6555107207697358
543,7.218076935841402,75.24452921705617,0.6523929998037373,0.1365729196601402,0.6553450827018916
544,7.231369895207592,75.24452921705617,0.6523104570159265,0.1365206005432086,0.655178889451018
545,7.244662854573783,75.24452921705617,0.6522030984393586,0.13644234474328157,0.6550213863235927
546,7.257955813939973,75.24452921705617,0.6520886270290471,0.13634227505889715,0.654880927245553
547,7.271248773306164,75.24452921705617,0.6519880738234487,0.1362270866714045,0.6547640822711651
548,7.284541732672354,75.24452921705617,0.6519247584288698,0.1361055873243644,0.6546747579603451
549,7.297834692038545,75.24452921705617,0.6519229510266759,0.1359879282212418,0.6546133944749999
550,7.311127651404735,75.24452921705617,0.6520061962704865,0.13588458989488753,0.6545763289391897
551,7.324420610770925,75.24452921705617,0.6521953075236907,0.13580522668602668,0.6545554348323169
552,7.337713570137116,75.24452921705617,0.6525061154456301,0.13575750151997495,0.6545381535764897
553,7.351006529503306,75.24452921705617,0.6529471438728949,0.13574605490998679,0.654508019662274
554,7.364299488869497,75.24452921705617,0.6535174683185688,0.13577174602508013,0.6544457403561318
555,7.377592448235688,75.24452921705617,0.6542050665310225,0.13583127909579198,0.6543308260170686
556,7.390885407601877,75.24452921705617,0.6549859779765457,0.13591728778168077,0.654143684257527
557,7.404178366968068,75.24452921705617,0.6558245377733118,0.13601889810165288,0.6538680033873396
558,7.417471326334258,75.24452921705617,0.6566748400572907,0.13612273353084647,0.6534931742928825
559,7.430764285700449,75.24452921705617,0.657483412239649,0.1362142710041823,0.6530164518549062
560,7.44405724506664,75.24452921705617,0.6581928767725691,0.13627941057741852,0.6524445501052383
561,7.45735020443283,75.24452921705617,0.658746307987431,0.13630608986524678,0.6517944054848372
562,7.4706431637990205,75.24452921705617,0.6590920637248453,0.13628576082639268,0.6510929270836647
563,7.48393612316521,75.24452921705617,0.6591887215753317,0.1362145528545598,0.6503756723569987
564,7.497229082531401,75.24452921705617,0.6590094074232089,0.1360939725683687,0.6496845254922403
565,7.510522041897591,75.24452921705617,0.6585448045741684,0.13593103562696682,0.6490646111580739
566,7.523815001263782,75.24452921705617,0.6578044800651819,0.1357377860554131,0.6485608188717089
567,7.537107960629973,75.24452921705617,0.6568164521440498,0.13553022869597425,0.648214272563432
568,7.550400919996163,75.24452921705617,0.6556250968002607,0.13532677325409023,0.6480588725333419
569,7.563693879362353,75.24452921705617,0.654287658777457,0.13514635482007847,0.6481180912633986
570,7.576986838728543,75.24452921705617,0.6528697747157394,0.1350064470177255,0.6484025097248033
571,7.590279798094734,75.24452921705617,0.6514404974078235,0.13492121009899527,0.6489085581860985
572,7.603572757460925,75.24452921705617,0.6500673226000377,0.1348999993737113,0.6496185748215535
573,7.616865716827115,75.24452921705617,0.648811667753178,0.13494640033326427,0.6505020641009914
574,7.630158676193306,75.24452921705617,0.6477251521617319,0.1350578939454995,0.6515179659016728
575,7.643451635559495,75.24452921705617,0.6468469020481896,0.13522619783432946,0.6526176915525297
576,7.656744594925686,75.24452921705617,0.6462019752881458,0.13543824425666232,0.6537486390294612
577,7.670037554291877,75.24452921705617,0.6458008866048626,0.13567765693187975,0.6548578838311826
578,7.683330513658067,75.24452921705617,0.6456401269203058,0.1359265213761831,0.6558957516855909
579,7.696623473024258,75.24452921705617,0.6457035145965467,0.1361672175442821,0.6568190099098363
580,7.709916432390448,75.24452921705617,0.645964189935223,0.13638409035768326,0.6575934598482647
581,7.7232093917566385,75.24452921705617,0.6463870642046863,0.1365647702063739,0.6581957682120123
582,7.736502351122828,75.24452921705617,0.6469315512845423,0.13670101647138064,0.6586144365728854
583,7.749795310489019,75.24452921705617,0.647554413780213,0.1367890323556345,0.6588498730659766
584,7.76308826985521,75.24452921705617,0.6482125430008576,0.1368292765313482,0.6589135961228134
585,7.7763812292214,75.24452921705617,0.6488655200113224,0.13682586363465774,0.6588266637757952
586,7.789674188587591,75.24452921705617,0.6494778691548567,0.13678569083033076,0.6586174796749249
587,7.802967147953779,75.24452921705617,0.6500209336888136,0.136717445146501,0.6583191734988012
588,7.816260107319971,75.24452921705617,0.6504742771560921,0.1366306353494703,0.6579667838658801
589,7.829553066686162,75.24452921705617,0.6508265101844564,0.13653475789492328,0.6575944820959386
590,7.842846026052352,75.24452921705617,0.6510754692603314,0.13643865849369322,0.6572330629748216
591,7.856138985418543,75.24452921705617,0.6512277128683548,0.13635010060867436,0.6569078946285672
592,7.869431944784733,75.24452921705617,0.6512973497352037,0.13627551053781997,0.6566374645074446
593,7.8827249041509235,75.24452921705617,0.6513042727157706,0.1362198433596836,0.6564325898622764
594,7.896017863517114,75.24452921705617,0.65127193348222,0.1361865082654765,0.6562963104807439
595,7.909310822883304,75.24452921705617,0.6512248490239109,0.13617730443550619,0.6562244525046946
596,7.922603782249495,75.24452921705617,0.6511860717656263,0.13619234454078016,0.656206784595296
597,7.935896741615685,75.24452921705617,0.6511748728962391,0.13622997454225028,0.6562285897430681
598,7.949189700981876,75.24452921705617,0.6512048781034718,0.1362867271354342,0.6562724434601979
599,7.962482660348066,75.24452921705617,0.6512828549874305,0.13635736417630592,0.6563200248687274
600,7.975775619714256,75.24452921705617,0.6514082848568556,0.13643506461257268,0.6563538212626325
601,7.989068579080447,75.24452921705617,0.651573765331925,0.13651179740080396,0.6563586100291299
602,8.002361538446637,75.24452921705617,0.6517661944710299,0.13657889213242028,0.6563226325025472
603,8.015654497812827,75.24452921705617,0.6519685944442426,0.13662778869546013,0.656238408414522
604,8.028947457179019,75.24452921705617,0.6521623560265337,0.1366509026328319,0.6561031702729483
605,8.042240416545209,75.24452921705617,0.6523296357978215,0.1366424951090296,0.6559189220667748
606,8.055533375911399,75.24452921705617,0.6524556237170719,0.13659941747740384,0.6556921455789992
607,8.06882633527759,75.24452921705617,0.6525304221126658,0.1365216154904102,0.655433191036733
608,8.08211929464378,75.24452921705617,0.6525503342687344,0.13641230967347864,0.6551553980835244
609,8.09541225400997,75.24452921705617,0.6525184420014822,0.13627781063284164,0.6548739996772589
610,8.10870521337616,75.24452921705617,0.6524444431781359,0.1361269794192908,0.6546048673127647
611,8.121998172742352,75.24452921705617,0.6523438071110861,0.1359703945391302,0.6543631628482028
612,8.135291132108541,75.24452921705617,0.652236375218887,0.13581932911463698,0.6541619716274738
613,8.148584091474731,75.24452921705617,0.652144577941481,0.13568466710648122,0.6540110037347856
614,8.161877050840923,75.24452921705617,0.6520914542699259,0.13557589254677146,0.6539154633849241
615,8.175170010207113,75.24452921705617,0.6520986508931504,0.1355002701445737,0.6538751968976663
616,8.188462969573303,75.24452921705617,0.6521845517232672,0.13546230269839704,0.6538842321741605
617,8.201755928939495,75.24452921705617,0.6523626552331407,0.1354635066806103,0.653930811430382
618,8.215048888305684,75.24452921705617,0.6526402856500134,0.1355025006110893,0.6539979895716861
619,8.228341847671874,75.24452921705617,0.6530177004244914,0.13557535957645692,0.6540648211774315
620,8.241634807038064,75.24452921705617,0.6534876416451271,0.13567615689474252,0.6541080920471791
621,8.254927766404256,75.24452921705617,0.6540353693101724,0.135797595349226,0.6541044742502388
622,8.268220725770446,75.24452921705617,0.6546392022569326,0.13593163640234007,0.6540329089861154
623,8.281513685136636,75.24452921705617,0.6552715686014972,0.1360700628712612,0.6538769643052779
624,8.294806644502827,75.24452921705617,0.6559005260157517,0.1362049388026903,0.6536268889267164
625,8.308099603869017,75.24452921705617,0.6564916367730734,0.13632895252344995,0.6532810982343925
626,8.321392563235207,75.24452921705617,0.6570099915826368,0.13643564797511445,0.6528468855325135
627,8.334685522601397,75.24452921705617,0.6574222347848921,0.1365195629483074,0.6523402439270404
628,8.347978481967589,75.24452921705617,0.657698640362406,0.13657630729880763,0.6517847980019676
629,8.361271441333779,75.24452921705617,0.657815211171685,0.13660262870219053,0.651209963211385
630,8.374564400699969,75.24452921705617,0.6577554425509835,0.13659649922072248,0.6506485567104024
631,8.38785736006616,75.24452921705617,0.657511381399367,0.1365572174175599,0.6501341730404042
632,8.40115031943235,75.24452921705617,0.6570839251338353,0.13648550460743403,0.6496986917928138
633,8.41444327879854,75.24452921705617,0.6564824994012901,0.13638358278775523,0.6493701805163841
634,8.427736238164732,75.24452921705617,0.6557242842885939,0.13625522412813607,0.6491712175625878
635,8.441029197530922,75.24452921705617,0.6548331634185628,0.1361057552246603,0.6491176228634264
636,8.454322156897112,75.24452921705617,0.6538385533117141,0.135941994630119,0.6492177565603119
637,8.467615116263302,75.24452921705617,0.6527742190732903,0.1357721003319356,0.6494725029258607
638,8.480908075629493,75.24452921705617,0.6516771105791839,0.13560530453214759,0.64987580865273
639,8.494201034995683,75.24452921705617,0.650586180585646,0.13545151821845924,0.650415528988696
640,8.507493994361873,75.24452921705617,0.6495410952316449,0.13532079945590308,0.6510743756697368
641,8.520786953728065,75.24452921705617,0.6485807361079522,0.13522270120291235,0.6518308331239586
642,8.534079913094255,75.24452921705617,0.6477414293115521,0.13516554418657292,0.6526599892602667
643,8.547372872460445,75.24452921705617,0.6470549156258686,0.13515566771988927,0.653534306036785
644,8.560665831826634,75.24452921705617,0.6465461797328026,0.13519669581524713,0.6544244125275537
645,8.573958791192826,75.24452921705617,0.64623135919798,0.1352888872630381,0.6553000251511941
646,8.587251750559016,75.24452921705617,0.6461160279544631,0.13542870753832856,0.6561310799699048
647,8.600544709925206,75.24452921705617,0.6461941707884394,0.13560875904649836,0.656889105199575
648,8.613837669291398,75.24452921705617,0.646448126082033,0.1358181309421913,0.6575487826256327
649,8.627130628657588,75.24452921705617,0.6468496731743656,0.13604316035151845,0.6580895650334552
650,8.640423588023777,75.24452921705617,0.6473622604323277,0.13626854543567643,0.6584971546340747
651,8.653716547389969,75.24452921705617,0.6479441443535356,0.13647869996855258,0.6587646220366881
652,8.667009506756159,75.24452921705617,0.6485520679905576,0.13665919727527204,0.6588929651878697
653,8.680302466122349,75.24452921705617,0.6491450773445164,0.13679812981170977,0.658890970932906
654,8.693595425488539,75.24452921705617,0.6496880498854755,0.13688721422007924,0.6587743362778562
655,8.70688838485473,75.24452921705617,0.6501544962939689,0.1369224996456152,0.6585641135498511
656,8.72018134422092,75.24452921705617,0.6505282842189763,0.13690458610859213,0.6582846369042775
657,8.73347430358711,75.24452921705617,0.6508041063803429,0.13683833366545806,0.6579611521090167
658,8.746767262953302,75.24452921705617,0.6509867096399098,0.13673212966950693,0.6576174471709185
659,8.760060222319492,75.24452921705617,0.6510890799948957,0.13659683685789592,0.6572738529802862
660,8.773353181685682,75.24452921705617,0.6511299139840857,0.13644456053332057,0.656945903913072
661,8.786646141051872,75.24452921705617,0.6511307789439644,0.13628738661735412,0.6566437332172145
662,8.799939100418063,75.24452921705617,0.6511133656857278,0.1361362522114054,0.6563721461450182
663,8.813232059784253,75.24452921705617,0.6510971738740493,0.136000085780012,0.6561312889597528
664,8.826525019150443,75.24452921705617,0.6510978605703989,0.1358852997488273,0.6559177830423542
665,8.839817978516635,75.24452921705617,0.6511263507544,0.1357956557514576,0.655726124771187
666,8.853110937882825,75.24452921705617,0.6511886810157915,0.1357324638321646,0.6555501238632978
667,8.866403897249015,75.24452921705617,0.6512864457528207,0.13569503037730374,0.6553841688397849
668,8.879696856615206,75.24452921705617,0.6514176529433318,0.13568124237461446,0.6552241556972515
669,8.892989815981396,75.24452921705617,0.6515777781183733,0.13568817003843398,0.6550679839916114
670,8.906282775347586,75.24452921705617,0.6517608257739572,0.13571258460853478,0.6549156007608138
671,8.919575734713776,75.24452921705617,0.6519602556135585,0.1357513198644261,0.6547686453231858
672,8.932868694079968,75.24452921705617,0.652169691932169,0.13580144745643521,0.6546298068947792
673,8.946161653446158,75.24452921705617,0.6523833936515789,0.1358602777020081,0.654502044472228
674,8.959454612812348,75.24452921705617,0.6525965088395146,0.1359252319617663,0.6543878297490173
675,8.97274757217854,75.24452921705617,0.6528051649903417,0.1359936562317208,0.6542885577038663
676,8.98604053154473,75.24452921705617,0.6530064544285041,0.13606265491688077,0.6542042286764058
677,8.999333490910919,75.24452921705617,0.6531983669225193,0.1361290172565898,0.6541334471430958
678,9.012626450277107,75.24452921705617,0.653379705452654,0.13618928775262937,0.654073716465563
679,9.0259194096433,75.24452921705617,0.6535500027051402,0.13623999973062328,0.6540219479625901
680,9.03921236900949,75.24452921705617,0.6537094401880168,0.1362780532365727,0.6539750586336833
681,9.05250532837568,75.24452921705617,0.6538587611929664,0.13630118149786022,0.6539305135366258
682,9.065798287741872,75.24452921705617,0.6539991632026115,0.13630842119512,0.6538866799240423
683,9.079091247108062,75.24452921705617,0.6541321537035916,0.13630048643399648,0.653842898694226
684,9.092384206474252,75.24452921705617,0.6542593549303641,0.13627994894271112,0.6537992372921486
685,9.105677165840444,75.24452921705617,0.65438224773857,0.13625115333742385,0.6537559562596397
686,9.118970125206634,75.24452921705617,0.6545018533559086,0.1362198427754134,0.6537127871541272
687,9.132263084572823,75.24452921705617,0.654618360988208,0.13619251754634276,0.6536681709544641
688,9.145556043939012,75.24452921705617,0.6547307199112256,0.13617558921262832,0.6536186336200851
689,9.158849003305203,75.24452921705617,0.6548362546478999,0.13617443482065839,0.6535584724380054
690,9.172141962671397,75.24452921705617,0.6549304200010521,0.1361924914663561,0.6534798905987269
691,9.185434922037585,75.24452921705617,0.6550067947504943,0.13623054163314025,0.6533736507512454
692,9.198727881403777,75.24452921705617,0.6550573192252949,0.1362863207036163,0.6532302296549016
693,9.212020840769966,75.24452921705617,0.6550727360889177,0.13635453492408844,0.6530413594948079
694,9.225313800136156,75.24452921705617,0.6550432048629441,0.1364273170558404,0.6528017546244985
695,9.238606759502346,75.24452921705617,0.654959048985499,0.13649508259065635,0.6525107634347287
696,9.251899718868538,75.24452921705617,0.6548115631121632,0.1365476917900029,0.6521736688377369
697,9.265192678234728,75.24452921705617,0.6545937959322647,0.13657576799287205,0.6518023947063123
698,9.278485637600918,75.24452921705617,0.6543012335708512,0.13657198084860114,0.6514154656990626
699,9.29177859696711,75.24452921705617,0.6539323331746871,0.13653209997337667,0.6510371956433879
700,9.3050715563333,75.24452921705617,0.6534888873494066,0.1364556617880223,0.6506961433046589
701,9.31836451569949,75.24452921705617,0.6529762275958662,0.13634615204269984,0.6504228652422303
702,9.33165747506568,75.24452921705617,0.6524032901625603,0.1362106783812714,0.650247121756136
703,9.34495043443187,75.24452921705617,0.6517825660807602,0.13605918307184225,0.650194933439865
704,9.35824339379806,75.24452921705617,0.651129939530946,0.13590331260787927,0.6502859283522178
705,9.37153635316425,75.24452921705617,0.6504643917746981,0.13575510653567108,0.650531260973851
706,9.384829312530442,75.24452921705617,0.649807522345304,0.1356256858542875,0.6509322625400481
707,9.398122271896632,75.24452921705617,0.6491828265850936,0.13552411050958874,0.6514799237010207
708,9.411415231262822,75.24452921705617,0.6486146778693516,0.13545654020421277,0.6521552428963937
709,9.424708190629014,75.24452921705617,0.6481269973918998,0.13542578110881445,0.6529303985105169
710,9.438001149995204,75.24452921705617,0.6477416508238325,0.1354312443845276,0.653770633902946
711,9.451294109361394,75.24452921705617,0.6474766797461146,0.13546928949798806,0.6546366865272548
712,9.464587068727583,75.24452921705617,0.6473445426164363,0.13553387149952925,0.6554875508587534
713,9.477880028093775,75.24452921705617,0.6473505896072138,0.13561736414455058,0.6562833436571868
714,9.491172987459963,75.24452921705617,0.6474920168857867,0.13571142722232363,0.6569880410065032
715,9.504465946826157,75.24452921705617,0.6477575276040679,0.13580782469061836,0.6575718779989169
716,9.517758906192348,75.24452921705617,0.6481278404931018,0.13589912880836477,0.6580132389726935
717,9.531051865558537,75.24452921705617,0.6485770434661664,0.13597925757572182,0.6582999123281039
718,9.544344824924726,75.24452921705617,0.6490746775966882,0.1360438168321149,0.6584296333545777
719,9.557637784290918,75.24452921705617,0.6495883752216528,0.13609025020763657,0.6584098880468603
720,9.570930743657108,75.24452921705617,0.6500867882479219,0.13611782267625414,0.6582569999169432
721,9.584223703023298,75.24452921705617,0.6505424476287539,0.13612747391301225,0.6579945709252009
722,9.597516662389488,75.24452921705617,0.6509341790439302,0.13612157828853094,0.6576513933653008
723,9.61080962175568,75.24452921705617,0.6512487688043608,0.13610364222530694,0.6572589900243933
724,9.62410258112187,75.24452921705617,0.6514816902093183,0.13607796093082222,0.656848994405415
725,9.63739554048806,75.24452921705617,0.651636840676045,0.13604924894477835,0.65645063942026
726,9.650688499854253,75.24452921705617,0.6517253803849665,0.13602225499822237,0.6560886044061345
727,9.66398145922044,75.24452921705617,0.6517638787613882,0.1360013722532818,0.6557813777650614
728,9.67727441858663,75.24452921705617,0.6517720476861699,0.13599025944946536,0.655540227634431
729,9.69056737795282,75.24452921705617,0.6517703619461699,0.13599149515592307,0.6553688455930148
730,9.703860337319012,75.24452921705617,0.6517778413906886,0.13600629402190834,0.6552636758263128
731,9.717153296685202,75.24452921705617,0.6518102079922203,0.13603431831976867,0.6552148690632439
732,9.730446256051392,75.24452921705617,0.6518785519972916,0.1360736180537136,0.6552077402009121
733,9.743739215417584,75.24452921705617,0.651988562212602,0.13612072678330925,0.6552245679554682
734,9.757032174783774,75.24452921705617,0.6521403097138382,0.1361709272259829,0.6552465540043614
735,9.770325134149964,75.24452921705617,0.6523285288367004,0.1362186810878902,0.6552557580019943
736,9.783618093516155,75.24452921705617,0.6525433144124431,0.136258193527687,0.6552368410592334
737,9.796911052882344,75.24452921705617,0.6527711450941835,0.13628405800185894,0.6551784796103983
738,9.810204012248535,75.24452921705617,0.6529961424455246,0.1362919069314853,0.655074348903866
739,9.823496971614723,75.24452921705617,0.6532014780731932,0.1362789827855794,0.6549236157320952
740,9.836789930980917,75.24452921705617,0.6533708427731971,0.13624454594500493,0.6547309197785776
741,9.850082890347108,75.24452921705617,0.6534898915538401,0.13619005188225103,0.6545058600713008
742,9.863375849713297,75.24452921705617,0.6535475777075903,0.13611906540958144,0.6542620368289883
743,9.876668809079488,75.24452921705617,0.6535372898621907,0.13603692797299902,0.6540157294038383
744,9.889961768445678,75.24452921705617,0.653457709927117,0.13595023084954921,0.6537843177812275
745,9.903254727811868,75.24452921705617,0.6533133181181942,0.1358661653444842,0.6535845771614853
746,9.916547687178058,75.24452921705617,0.6531144840807765,0.1357918325789015,0.6534309906056219
747,9.92984064654425,75.24452921705617,0.6528771007292437,0.13573359822373196,0.6533342309727945
748,9.94313360591044,75.24452921705617,0.6526217383547424,0.13569657129871088,0.6532999575807295
749,9.95642656527663,75.24452921705617,0.652372322406806,0.13568427198005795,0.6533280528485236
750,9.96971952464282,75.24452921705617,0.6521543852715143,0.13569851826860785,0.6534123887786358
751,9.983012484009013,75.24452921705617,0.651993006872048,0.13573951242820156,0.6535411641276079
752,9.9963054433752,75.24452921705617,0.6519105939167598,0.13580607049159027,0.6536977951783495
753,10.009598402741393,75.24452921705617,0.6519246515210264,0.13589591941986595,0.6538622835357064
754,10.022891362107584,75.24452921705617,0.6520457280764407,0.13600598405528036,0.6540129319906115
755,10.036184321473772,75.24452921705617,0.6522757487566544,0.13613259989721133,0.654128242141019
756,10.049477280839962,75.24452921705617,0.6526069445011466,0.13627161553860426,0.6541888103496375
757,10.062770240206154,75.24452921705617,0.6530215494637103,0.13641838410862733,0.6541790433126452
758,10.076063199572344,75.24452921705617,0.6534923953323192,0.13656767836649042,0.6540885390745568
759,10.089356158938534,75.24452921705617,0.6539844585693442,0.13671359098059954,0.653913019373197
760,10.102649118304726,75.24452921705617,0.6544573199163581,0.1368494936945317,0.6536547491188099
761,10.115942077670915,75.24452921705617,0.6548683703138258,0.13696812051492616,0.6533224326326312
762,10.129235037037104,75.24452921705617,0.6551764623896731,0.1370618129387458,0.6529306279490611
763,10.142527996403295,75.24452921705617,0.6553456287996242,0.13712294858514926,0.6524987649180402
764,10.155820955769489,75.24452921705617,0.6553484811621507,0.1371445705533044,0.6520498850669337
765,10.169113915135677,75.24452921705617,0.6551689295844024,0.13712118090805064,0.6516092466946463
766,10.182406874501869,75.24452921705617,0.6548039213382042,0.13704956822089104,0.6512029507721994
767,10.195699833868058,75.24452921705617,0.6542639986613531,0.1369295086803691,0.6508566623953989
768,10.208992793234248,75.24452921705617,0.6535726084906844,0.13676421942347342,0.650594349136785
769,10.222285752600438,75.24452921705617,0.6527642411170794,0.13656048194350204,0.6504369698446605
770,10.23557871196663,75.24452921705617,0.6518816088486244,0.1363283858935739,0.6504012252579146
771,10.24887167133282,75.24452921705617,0.6509721789620904,0.13608068903879017,0.650498516502711
772,10.26216463069901,75.24452921705617,0.6500844319678944,0.13583184171069693,0.6507341418365307
773,10.2754575900652,75.24452921705617,0.6492642197941683,0.13559677264703487,0.6511067216039187
774,10.288750549431391,75.24452921705617,0.6485515527446591,0.13538956964754775,0.6516078824439321
775,10.30204350879758,75.24452921705617,0.6479780623572272,0.1352222069936324,0.6522222625719659
776,10.315336468163771,75.24452921705617,0.6475652885876689,0.1351034692395437,0.6529279062192147
777,10.328629427529965,75.24452921705617,0.6473238447346014,0.13503819862463642,0.6536971011780266
778,10.341922386896153,75.24452921705617,0.6472534375036696,0.1350269547059958,0.654497678785104
779,10.355215346262344,75.24452921705617,0.647343684172668,0.13506612920294578,0.6552947457283216
780,10.368508305628533,75.24452921705617,0.6475756640836626,0.13514851121351645,0.6560527598798213
781,10.381801264994724,75.24452921705617,0.6479240320088879,0.13526422353343506,0.6567378080224046
782,10.395094224360914,75.24452921705617,0.6483593205825307,0.13540186174233704,0.6573199017714912
783,10.408387183727104,75.24452921705617,0.6488501232400724,0.1355496574362886,0.6577750870630251
784,10.421680143093296,75.24452921705617,0.6493651621960657,0.13569655607364406,0.6580871665103402
785,10.434973102459486,75.24452921705617,0.6498753138267521,0.1358331293768275,0.6582488626458315
786,10.448266061825676,75.24452921705617,0.6503554757091109,0.13595222726572903,0.6582622983875854
787,10.461559021191867,75.24452921705617,0.6507860795490944,0.13604929794671847,0.6581387313657834
788,10.474851980558055,75.24452921705617,0.6511541063513132,0.13612236483610915,0.6578975320155813
789,10.488144939924249,75.24452921705617,0.6514535158744966,0.13617170498495143,0.6575644404095388
790,10.501437899290435,75.24452921705617,0.6516850522825741,0.13619931482743056,0.6571692617646016
791,10.514730858656629,75.24452921705617,0.6518554445772026,0.1362082725656408,0.6567433452464774
792,10.52802381802282,75.24452921705617,0.6519760803686744,0.13620210951985412,0.6563171695952955
793,10.541316777389008,75.24452921705617,0.6520612895406762,0.13618428653574868,0.6559181396712761
794,10.5546097367552,75.24452921705617,0.6521264219108579,0.13615784041111775,0.6555686386721978
795,10.56790269612139,75.24452921705617,0.652185931304216,0.13612522606533234,0.6552844914999237
796,10.58119565548758,75.24452921705617,0.6522516806322587,0.13608834058289337,0.6550740157793503
797,10.59448861485377,75.24452921705617,0.652331655798727,0.13604868256691824,0.6549377576588082
798,10.60778157421996,75.24452921705617,0.6524292230298415,0.13600757985943202,0.6548689304840984
799,10.621074533586151,75.24452921705617,0.6525429922114205,0.1359664133229953,0.65485450852011
800,10.63436749295234,75.24452921705617,0.6526672693309051,0.13592677370201808,0.6548768690045337
801,10.647660452318531,75.24452921705617,0.6527930067843593,0.13589050953755855,0.6549158263327289
802,10.660953411684725,75.24452921705617,0.6529091024462372,0.13585965173532402,0.6549508634141034
803,10.674246371050913,75.24452921705617,0.6530038649449083,0.13583622892218378,0.6549633403654788
804,10.687539330417104,75.24452921705617,0.6530664568803113,0.13582201174176364,0.6549384542721207
805,10.700832289783294,75.24452921705617,0.6530881483747446,0.13581823956325548,0.6548667407460026
806,10.714125249149484,75.24452921705617,0.6530632549996608,0.13582538739228403,0.6547449515319232
807,10.727418208515674,75.24452921705617,0.6529896887133915,0.13584302384805566,0.6545762111920592
808,10.740711167881866,75.24452921705617,0.6528691086900398,0.1358697946607898,0.6543694429450019
809,10.754004127248056,75.24452921705617,0.6527067117238966,0.13590354359197587,0.6541381468238172
810,10.767297086614246,75.24452921705617,0.6525107416513616,0.13594155828679108,0.6538986973405364
811,10.780590045980436,75.24452921705617,0.6522918189364711,0.13598090678909083,0.6536683882201838
812,10.793883005346627,75.24452921705617,0.6520621935853651,0.1360188150697778,0.6534634778217415
813,10.807175964712815,75.24452921705617,0.65183500886145,0.13605302937222905,0.6532974762138175
814,10.820468924079009,75.24452921705617,0.6516236349597185,0.13608211016948696,0.6531798662933117
815,10.8337618834452,75.24452921705617,0.6514410979291164,0.13610561603723073,0.653115376069855
816,10.847054842811389,75.24452921705617,0.6512995972061779,0.1361241533639365,0.6531038310866836
817,10.86034780217758,75.24452921705617,0.6512100815771541,0.13613928828397806,0.6531405306117254
818,10.87364076154377,75.24452921705617,0.6511818424771836,0.1361533370206375,0.653217023421703
819,10.88693372090996,75.24452921705617,0.6512220867752414,0.13616906677553675,0.6533221197521858
820,10.90022668027615,75.24452921705617,0.651335467294867,0.13618934902964921,0.653442970591571
821,10.913519639642342,75.24452921705617,0.6515235745556008,0.13621680947221743,0.6535660724491661
822,10.926812599008532,75.24452921705617,0.6517844221229052,0.1362535140240609,0.6536781069761703
823,10.940105558374722,75.24452921705617,0.6521119843357396,0.13630072023505943,0.6537665874432522
824,10.953398517740911,75.24452921705617,0.6524958633229592,0.1363587103730765,0.653820343106267
825,10.966691477107103,75.24452921705617,0.652921168126328,0.1364267097919441,0.6538299141997154
826,10.979984436473291,75.24452921705617,0.653368680621601,0.13650288406851147,0.6537879451671432
827,10.993277395839485,75.24452921705617,0.653815362210338,0.13658440238007252,0.6536896483969843
828,11.006570355205676,75.24452921705617,0.654235228305584,0.13666755074219047,0.6535333685535052
829,11.019863314571865,75.24452921705617,0.6546005880849026,0.13674787726988014,0.6533212182724386
830,11.033156273938054,75.24452921705617,0.654883610046517,0.1368203692254084,0.653059693560254
831,11.046449233304244,75.24452921705617,0.6550581326693068,0.1368796929128348,0.6527601299122837
832,11.059742192670436,75.24452921705617,0.6551016074368531,0.1369205187031109,0.6524388410343922
833,11.073035152036626,75.24452921705617,0.6549970401107778,0.13693790532718186,0.6521167799066686
834,11.086328111402816,75.24452921705617,0.6547347782551421,0.1369277008959755,0.651818582480164
835,11.099621070769008,75.24452921705617,0.6543139804403557,0.1368869357614779,0.6515709494074415
836,11.112914030135196,75.24452921705617,0.6537436016653514,0.13681418449538554,0.6514004742751464
837,11.126206989501387,75.24452921705617,0.6530427442083897,0.13670986054221967,0.6513311387602635
838,11.13949994886758,75.24452921705617,0.6522402560528812,0.13657639911060623,0.6513817450224294
839,11.152792908233767,75.24452921705617,0.6513735115155201,0.1364182855356527,0.6515635871497005
840,11.16608586759996,75.24452921705617,0.6504863792155772,0.13624189712942475,0.6518786713448534
841,11.179378826966149,75.24452921705617,0.6496264661504355,0.1360551462021553,0.6523187554691972
842,11.19267178633234,75.24452921705617,0.6488418149389499,0.13586693813471307,0.652865394745031
843,11.20596474569853,75.24452921705617,0.6481773128986,0.13568648706199973,0.6534910632927741
844,11.21925770506472,75.24452921705617,0.6476711336280264,0.13552255759740667,0.6541612850334966
845,11.232550664430912,75.24452921705617,0.647351561801408,0.13538271867063348,0.6548375712273372
846,11.245843623797102,75.24452921705617,0.6472345406262107,0.13527270068738637,0.6554808468020534
847,11.259136583163292,75.24452921705617,0.6473222251092742,0.13519593782309772,0.6560549737713324
848,11.272429542529482,75.24452921705617,0.6476027264307066,0.1351533541572325,0.6565299616425478
849,11.285722501895671,75.24452921705617,0.6480511043643582,0.1351434191219752,0.6568844959625801
850,11.299015461261863,75.24452921705617,0.648631523325687,0.13516246003572174,0.6571075096604695
851,11.312308420628051,75.24452921705617,0.6493003544688402,0.1352051838235664,0.6571986505124758
852,11.325601379994245,75.24452921705617,0.6500099010649464,0.13526533299548818,0.6571676393752605
853,11.338894339360436,75.24452921705617,0.6507123614662842,0.1353363867832665,0.6570326458055988
854,11.352187298726625,75.24452921705617,0.6513636308440964,0.13541221463480163,0.6568179100348144
855,11.365480258092816,75.24452921705617,0.6519265793060898,0.1354875963906183,0.6565509042725938
856,11.378773217459006,75.24452921705617,0.652373521665481,0.1355585513831396,0.6562593748192775
857,11.392066176825196,75.24452921705617,0.6526876992276365,0.13562246204785086,0.6559686354100931
858,11.405359136191386,75.24452921705617,0.652863710385852,0.13567801284659556,0.6556994199845751
859,11.418652095557578,75.24452921705617,0.6529069388933696,0.1357249861183298,0.6554664597301351
860,11.431945054923768,75.24452921705617,0.6528321234017764,0.1357639712020481,0.6552778388969795
861,11.445238014289956,75.24452921705617,0.6526612804064571,0.13579605003390327,0.6551351221250096
862,11.45853097365615,75.24452921705617,0.6524212310059851,0.13582251665005804,0.6550341709871488
863,11.47182393302234,75.24452921705617,0.6521409901259076,0.13584467154639335,0.654966487178605
864,11.485116892388527,75.24452921705617,0.6518492587699414,0.13586370925406546,0.6549208702786329
865,11.49840985175472,75.24452921705617,0.6515722213485947,0.1358806938403295,0.6548851644802622
866,11.51170281112091,75.24452921705617,0.6513317981183968,0.13589659733016213,0.6548478856146704
867,11.5249957704871,75.24452921705617,0.6511444441866416,0.13591236413037314,0.6547995602015425
868,11.53828872985329,75.24452921705617,0.6510205276508927,0.13592896245476677,0.6547336628231972
869,11.551581689219482,75.24452921705617,0.65096426541963,0.13594739133320388,0.6546470978592633
870,11.564874648585672,75.24452921705617,0.6509741500788494,0.13596862679611965,0.6545402290526872
871,11.578167607951862,75.24452921705617,0.6510437676943612,0.13599350949181233,0.6544165100140213
872,11.591460567318054,75.24452921705617,0.651162886518189,0.1360225939036711,0.6542818067972033
873,11.604753526684243,75.24452921705617,0.6513186909819033,0.13605599243104605,0.6541435275091564
874,11.618046486050432,75.24452921705617,0.6514970435965544,0.13609325306607536,0.6540096820582918
875,11.631339445416623,75.24452921705617,0.6516836773418309,0.13613330622495534,0.6538879875599151
876,11.644632404782817,75.24452921705617,0.6518652490294033,0.1361745053569166,0.6537851135202926
877,11.657925364149005,75.24452921705617,0.6520302147781998,0.1362147696699261,0.6537061297521812
878,11.671218323515197,75.24452921705617,0.652169516317317,0.13625181894269298,0.653654184582232
879,11.684511282881386,75.24452921705617,0.6522770860227053,0.13628347329203686,0.6536304070747883
880,11.697804242247576,75.24452921705617,0.6523501858898675,0.13630797776104395,0.6536339993283711
881,11.711097201613766,75.24452921705617,0.6523895904503725,0.1363243046385777,0.6536624660456317
882,11.724390160979956,75.24452921705617,0.6523996088157824,0.13633238648784338,0.6537119193986478
883,11.737683120346148,75.24452921705617,0.6523879225678595,0.13633323997636404,0.6537773976772401
884,11.750976079712338,75.24452921705617,0.6523652019052987,0.1363289538931055,0.6538531461684679
885,11.764269039078528,75.24452921705617,0.6523444598196114,0.13632253249602358,0.6539328278090363
886,11.77756199844472,75.24452921705617,0.6523401180662152,0.13631760510372318,0.6540096577519912
887,11.79085495781091,75.24452921705617,0.6523667900320045,0.1363180317063887,0.6540764859656926
888,11.8041479171771,75.24452921705617,0.6524378302329383,0.13632744937520302,0.6541258784694954
889,11.81744087654329,75.24452921705617,0.652563750163827,0.13634881299404292,0.6541502627064848
890,11.83073383590948,75.24452921705617,0.6527506455847283,0.13638398484899752,0.6541421994296353
891,11.84402679527567,75.24452921705617,0.6529988113285563,0.13643342083775015,0.6540948205200234
892,11.85731975464186,75.24452921705617,0.6533017285414002,0.1364959863685935,0.6540024335511039
893,11.870612714008052,75.24452921705617,0.6536455921406981,0.13656891560213777,0.6538612488264374
894,11.883905673374242,75.24452921705617,0.6540095060518687,0.1366479191890675,0.6536701441853304
895,11.897198632740432,75.24452921705617,0.6543664143649608,0.13672744843112625,0.6534313566795643
896,11.910491592106624,75.24452921705617,0.6546847584163862,0.13680110372240045,0.6531509837630417
897,11.923784551472814,75.24452921705617,0.6549307633407936,0.13686213470246986,0.6528391909974606
898,11.937077510839003,75.24452921705617,0.6550711835471763,0.13690396855665873,0.6525100554635027
899,11.950370470205192,75.24452921705617,0.655076284104443,0.1369207223311164,0.6521810230048567
900,11.963663429571383,75.24452921705617,0.6549228025017394,0.13690766807473764,0.6518720140782625
901,11.976956388937577,75.24452921705617,0.654596623977538,0.1368616227196557,0.651604232092667
902,11.990249348303765,75.24452921705617,0.6540949146099201,0.13678123952682653,0.6513987103246357
903,12.003542307669957,75.24452921705617,0.6534274864653271,0.13666718442852913,0.651274682086705
904,12.016835267036146,75.24452921705617,0.6526172149270985,0.13652218654003184,0.6512479660561556
905,12.030128226402336,75.24452921705617,0.6516993883771961,0.13635095737271058,0.6513295743626798
906,12.043421185768528,75.24452921705617,0.650719944794291,0.13615997832483911,0.6515246723152296
907,12.056714145134718,75.24452921705617,0.6497326388586419,0.13595716183023818,0.6518319577720624
908,12.070007104500908,75.24452921705617,0.6487952849183904,0.135751398979991,0.652243497414912
909,12.083300063867098,75.24452921705617,0.6479653294459381,0.13555201575628134,0.6527450239607322
910,12.09659302323329,75.24452921705617,0.6472951097724472,0.1353681705423665,0.6533166652326234
911,12.10988598259948,75.24452921705617,0.6468272390104735,0.1352082356854738,0.6539340505139121
912,12.12317894196567,75.24452921705617,0.6465906029295493,0.13507921341779783,0.6545697222302297
913,12.13647190133186,75.24452921705617,0.6465974610491795,0.13498623922604422,0.6551947699504042
914,12.14976486069805,75.24452921705617,0.646842094566024,0.13493222228880464,0.6557805954000406
915,12.16305782006424,75.24452921705617,0.6473012218981067,0.1349176623756247,0.6563007083629442
916,12.17635077943043,75.24452921705617,0.6479360416442339,0.13494066680627106,0.6567324427038751
917,12.189643738796622,75.24452921705617,0.6486956141147374,0.13499717129134486,0.6570584710599275
918,12.202936698162812,75.24452921705617,0.6495213744862602,0.1350813432954582,0.6572679909242763
919,12.216229657529002,75.24452921705617,0.6503524654486257,0.1351861198840858,0.6573574597727779
920,12.229522616895194,75.24452921705617,0.6511313002970542,0.13530381857509233,0.6573307781181329
921,12.242815576261384,75.24452921705617,0.6518086645106007,0.13542676148071645,0.6571988506745425
922,12.256108535627574,75.24452921705617,0.6523477592342138,0.13554785528858015,0.6569784993527846
923,12.269401494993764,75.24452921705617,0.6527267560370851,0.1356610719005829,0.656690825111985
924,12.282694454359955,75.24452921705617,0.6529396378507373,0.13576178709900785,0.6563592933483726
925,12.295987413726143,75.24452921705617,0.6529953281047862,0.13584695564307864,0.6560078239361014
926,12.309280373092337,75.24452921705617,0.6529153253083944,0.13591512332591368,0.6556590010138091
927,12.322573332458528,75.24452921705617,0.6527302339771524,0.1359662960801068,0.6553324676894945
928,12.335866291824717,75.24452921705617,0.6524756920584646,0.1360017007573294,0.6550436477689171
929,12.349159251190908,75.24452921705617,0.6521882282481778,0.1360234798435617,0.6548029350345895
930,12.362452210557098,75.24452921705617,0.6519015403906064,0.13603436268350372,0.6546154076126726
931,12.375745169923288,75.24452921705617,0.6516435804865234,0.1360373498241251,0.6544810472986533
932,12.389038129289478,75.24452921705617,0.6514346835827697,0.13603543707933205,0.6543953858921355
933,12.402331088655668,75.24452921705617,0.6512868130542413,0.13603139459892916,0.6543504609772839
934,12.41562404802186,75.24452921705617,0.6512038402290646,0.1360276060380532,0.6543359457623152
935,12.42891700738805,75.24452921705617,0.6511826546141096,0.13602596539881534,0.6543403210549114
936,12.44220996675424,75.24452921705617,0.6512148268412565,0.13602782465174373,0.6543519786080599
937,12.455502926120433,75.24452921705617,0.6512885244205459,0.13603398332549932,0.6543601771519406
938,12.46879588548662,75.24452921705617,0.6513904050612604,0.13604471095865364,0.6543558071923756
939,12.482088844852813,75.24452921705617,0.6515072709004464,0.13605979384149222,0.6543319505457996
940,12.495381804219004,75.24452921705617,0.6516273432591351,0.1360785984789372,0.6542842406853997
941,12.508674763585192,75.24452921705617,0.6517410961115158,0.13610014573528087,0.654211039032347
942,12.521967722951382,75.24452921705617,0.6518416557006811,0.13612319186528216,0.6541134424818655
943,12.535260682317572,75.24452921705617,0.6519248270174325,0.13614631553986087,0.6539951329892039
944,12.548553641683764,75.24452921705617,0.6519888427953515,0.1361680129948869,0.6538620756753841
945,12.561846601049954,75.24452921705617,0.6520339474615281,0.1361868055577008,0.6537220712809589
946,12.575139560416144,75.24452921705617,0.6520619282854638,0.13620136386315743,0.6535841735449588
947,12.588432519782335,75.24452921705617,0.6520756902331621,0.13621065019087888,0.6534579917511182
948,12.601725479148524,75.24452921705617,0.6520789418530768,0.1362140744238833,0.6533529112193144
949,12.615018438514715,75.24452921705617,0.6520760205560228,0.13621165102434554,0.6532772771822869
950,12.628311397880903,75.24452921705617,0.6520718427421486,0.13620413593983302,0.6532375977012681
951,12.641604357247097,75.24452921705617,0.6520719250344861,0.1361931158246151,0.6532378272140765
952,12.654897316613289,75.24452921705617,0.652082395439762,0.1361810196861573,0.653278793084705
953,12.668190275979477,75.24452921705617,0.65210990395558,0.13617102672463455,0.6533578230363722
954,12.681483235345668,75.24452921705617,0.6521613538802294,0.1361668543139166,0.6534686219983168
955,12.694776194711858,75.24452921705617,0.6522434063721997,0.13617242603666596,0.6536014332909228
956,12.708069154078048,75.24452921705617,0.6523617561191919,0.13619143937625636,0.6537435018583154
957,12.72136211344424,75.24452921705617,0.6525202270092607,0.1362268729646128,0.6538798370406201
958,12.73465507281043,75.24452921705617,0.6527197843721531,0.1362804904735822,0.6539942497412423
959,12.74794803217662,75.24452921705617,0.6529575954774455,0.13635240864649278,0.6540706144263896
960,12.76124099154281,75.24452921705617,0.6532262870126594,0.13644079766159542,0.6540942810783723
961,12.774533950909,75.24452921705617,0.6535135527238791,0.13654177154197333,0.6540535374470083
962,12.787826910275191,75.24452921705617,0.6538022535385709,0.13664950485462965,0.6539410000349128
963,12.80111986964138,75.24452921705617,0.654071101941032,0.13675658230122908,0.6537547966701229
964,12.814412829007573,75.24452921705617,0.6542959370069988,0.13685455739191674,0.6534993986578859
965,12.827705788373764,75.24452921705617,0.6544515181298398,0.1369346701145242,0.6531859714130609
966,12.840998747739953,75.24452921705617,0.6545137040613117,0.136988648350932,0.6528321430083549
967,12.854291707106142,75.24452921705617,0.6544618243052606,0.13700949822264658,0.6524611460037316
968,12.867584666472334,75.24452921705617,0.6542810010642232,0.1369921881152853,0.6521003637478687
969,12.880877625838524,75.24452921705617,0.6539641595149182,0.13693414973254653,0.6517793601855216
970,12.894170585204714,75.24452921705617,0.6535134775002581,0.1368355460418386,0.6515274879416914
971,12.907463544570906,75.24452921705617,0.652941071637603,0.1366992854555709,0.651371253677793
972,12.920756503937096,75.24452921705617,0.6522687904831248,0.1365307919371427,0.6513317559196825
973,12.934049463303284,75.24452921705617,0.6515270780732492,0.1363375674167823,0.6514225345442594
974,12.947342422669475,75.24452921705617,0.6507529720137688,0.13612860213370148,0.6516480765275595
975,12.960635382035669,75.24452921705617,0.6499873976842139,0.13591369852734034,0.6520031278567151
976,12.973928341401855,75.24452921705617,0.6492720029465661,0.1357027750969054,0.6524728839531779
977,12.987221300768049,75.24452921705617,0.6486458363051217,0.13550520976127461,0.6530340429134882
978,13.000514260134238,75.24452921705617,0.6481421981990346,0.13532927013973609,0.6536566172278417
979,13.013807219500428,75.24452921705617,0.6477859858678616,0.13518166360536696,0.6543063249664135
980,13.027100178866618,75.24452921705617,0.6475918063453604,0.13506722544161087,0.6549473273778097
981,13.04039313823281,75.24452921705617,0.6475630590533671,0.13498875079902034,0.6555450503715128
982,13.053686097599,75.24452921705617,0.6476920943310858,0.1349469663608202,0.6560688241590207
983,13.06697905696519,75.24452921705617,0.647961399291117,0.13494063091968314,0.6564940988157396
984,13.08027201633138,75.24452921705617,0.6483455726382662,0.13496674991707458,0.656804042262619
985,13.093564975697571,75.24452921705617,0.648813784639865,0.13502088819665292,0.6569903968166149
986,13.10685793506376,75.24452921705617,0.6493324858090906,0.13509756581659094,0.6570535526478481
987,13.120150894429951,75.24452921705617,0.6498681407663544,0.13519070787641396,0.6570018800273101
988,13.133443853796145,75.24452921705617,0.6503897171257401,0.13529409367351397,0.6568504305383255
989,13.146736813162333,75.24452921705617,0.6508706880056885,0.13540175673019045,0.6566191631084254
990,13.160029772528524,75.24452921705617,0.6512904059924647,0.1355083246568803,0.656330908732786
991,13.173322731894714,75.24452921705617,0.6516348085607268,0.1356092983830859,0.6560093499233577
992,13.186615691260904,75.24452921705617,0.6518965007200164,0.13570125279022974,0.6556772458123206
993,13.199908650627094,75.24452921705617,0.6520743237495594,0.13578193796652127,0.6553549921407789
994,13.213201609993284,75.24452921705617,0.6521725532065537,0.13585027398431493,0.6550595323405286
995,13.226494569359476,75.24452921705617,0.6521998752244292,0.13590624563773088,0.654803644263679
996,13.239787528725666,75.24452921705617,0.6521682724180189,0.13595071444853682,0.6545956098888694
997,13.253080488091856,75.24452921705617,0.6520919178541563,0.13598517376359293,0.6544392315361693
998,13.266373447458047,75.24452921705617,0.6519861371580548,0.13601147782963885,0.6543341319681132
999,13.279666406824235,75.24452921705617,0.6518664638656667,0.13603157678719285,0.6542762696179643
1000,13.292959366190429,75.24452921705617,0.6517477883796705,0.13604728647156156,0.6542586056072978
1001,13.306252325556615,75.24452921705617,0.6516435900127884,0.13606011528465095,0.6542718702273065
1002,13.319545284922809,75.24452921705617,0.6515652447924517,0.13607116127920546,0.6543053870739434
1003,13.332838244289,75.24452921705617,0.6515214158157286,0.13608108238618893,0.6543479193046152
1004,13.346131203655188,75.24452921705617,0.6515175522403133,0.13609013290594593,0.6543885035249887
1005,13.35942416302138,75.24452921705617,0.6515555404242673,0.13609825131325173,0.6544172339878761
1006,13.37271712238757,75.24452921705617,0.6516335596458118,0.13610517911250453,0.6544259556711267
1007,13.38601008175376,75.24452921705617,0.651746190793361,0.13611058851739366,0.6544088221290307
1008,13.399303041119952,75.24452921705617,0.6518848084237944,0.13611419824948745,0.6543626751792757
1009,13.412596000486142,75.24452921705617,0.652038257393914,0.13611586140995202,0.6542872105262375
1010,13.425888959852331,75.24452921705617,0.6521937804977715,0.13611561637639344,0.6541849078349833
1011,13.43918191921852,75.24452921705617,0.6523381299698282,0.13611369979260465,0.6540607257984749
1012,13.452474878584711,75.24452921705617,0.6524587693812062,0.13611052842288265,0.6539215902581459
1013,13.465767837950905,75.24452921705617,0.6525450572955598,0.13610666232395777,0.6537757313515891
1014,13.479060797317093,75.24452921705617,0.6525893014269899,0.13610276411802522,0.6536319467108419
1015,13.492353756683285,75.24452921705617,0.6525875811887325,0.1360995675001272,0.653498874891735
1016,13.505646716049474,75.24452921705617,0.6525402552356576,0.13609786285153416,0.653384352785308
1017,13.518939675415664,75.24452921705617,0.6524520963649681,0.13609850033362783,0.653294904632985
1018,13.532232634781854,75.24452921705617,0.6523320244922027,0.13610240313401759,0.6532353759546932
1019,13.545525594148046,75.24452921705617,0.6521924383130293,0.13611057771141968,0.6532086939359347
1020,13.558818553514236,75.24452921705617,0.6520481934961997,0.13612410547050524,0.6532157166739168
1021,13.572111512880426,75.24452921705617,0.6519153339644455,0.13614410190724208,0.6532551329225376
1022,13.585404472246616,75.24452921705617,0.6518096990810015,0.13617163456561765,0.6533233911752588
1023,13.598697431612807,75.24452921705617,0.6517455024414002,0.13620759907987537,0.6534146658731628
1024,13.611990390978995,75.24452921705617,0.6517339752198684,0.13625256166550664,0.6535208994667923
1025,13.625283350345187,75.24452921705617,0.651782189732186,0.1363065850301808,0.6536319816924235
1026,13.63857630971138,75.24452921705617,0.6518921768247592,0.1363690612102772,0.6537361336133162
1027,13.651869269077569,75.24452921705617,0.6520604228132955,0.13643857795672962,0.6538205495715464
1028,13.66516222844376,75.24452921705617,0.6522777990402249,0.13651284418127663,0.6538723157741771
1029,13.67845518780995,75.24452921705617,0.6525299438862264,0.13658869446819338,0.6538795749126365
1030,13.69174814717614,75.24452921705617,0.6527980837040912,0.13666218364711621,0.6538328507024702
1031,13.70504110654233,75.24452921705617,0.6530602474489532,0.13672877248666454,0.653726395299997
1032,13.718334065908522,75.24452921705617,0.6532928009320457,0.1367835963180342,0.6535593872622959
1033,13.731627025274712,75.24452921705617,0.6534722016586563,0.1368217984452766,0.6533367969978314
1034,13.744919984640902,75.24452921705617,0.6535768550100882,0.1368389007076631,0.6530697576208161
1035,13.758212944007091,75.24452921705617,0.653588937960529,0.13683117900780273,0.6527753302112729
1036,13.771505903373283,75.24452921705617,0.653496048547618,0.1367960119454082,0.6524756087626737
1037,13.784798862739471,75.24452921705617,0.6532925392052875,0.13673217246178138,0.6521961650426374
1038,13.798091822105665,75.24452921705617,0.6529804015589239,0.1366400350011047,0.651963929119689
1039,13.811384781471856,75.24452921705617,0.6525695914929961,0.13652167502434814,0.6518047229309613
1040,13.824677740838045,75.24452921705617,0.6520777181207613,0.13638084396395564,0.6517407270672275
1041,13.837970700204234,75.24452921705617,0.6515290692815519,0.13622281104985134,0.651788155567316
1042,13.851263659570426,75.24452921705617,0.6509530073759002,0.13605407403315398,0.6519553907670913
1043,13.864556618936616,75.24452921705617,0.650381837403108,0.13588195336914222,0.6522417941497498
1044,13.877849578302806,75.24452921705617,0.6498483155193961,0.13571409785751012,0.6526373447756519
1045,13.891142537668996,75.24452921705617,0.6493830209919421,0.1355579422785761,0.6531231706026878
1046,13.904435497035188,75.24452921705617,0.6490118470396857,0.1354201669359516,0.6536729420897431
1047,13.917728456401376,75.24452921705617,0.6487538696091187,0.1353062130025802,0.6542550031791159
1048,13.931021415767567,75.24452921705617,0.6486198246113615,0.13521990462183647,0.654835033189109
1049,13.94431437513376,75.24452921705617,0.6486113699924383,0.13516321846600535,0.655378973640828
1050,13.957607334499947,75.24452921705617,0.6487212334284178,0.13513622491772828,0.6558559233419045
1051,13.97090029386614,75.24452921705617,0.6489342206588843,0.13513720460955328,0.6562407067485976
1052,13.98419325323233,75.24452921705617,0.6492289035217538,0.13516292293026202,0.6565158549613889
1053,13.99748621259852,75.24452921705617,0.6495797450329004,0.1352090278053716,0.6566728024378125
1054,14.01077917196471,75.24452921705617,0.6499594589711508,0.1352705248564793,0.6567121890840346
1055,14.0240721313309,75.24452921705617,0.650341399395645,0.1353422709318841,0.6566432565443443
1056,14.037365090697092,75.24452921705617,0.6507017299396388,0.13541941436184513,0.6564824278950775
1057,14.050658050063282,75.24452921705617,0.6510211413928354,0.13549772535164564,0.6562512552944594
1058,14.063951009429472,75.24452921705617,0.6512859674721634,0.13557379982403278,0.655973997556703
1059,14.077243968795663,75.24452921705617,0.6514886410319941,0.13564514389682936,0.6556751221743863
1060,14.090536928161852,75.24452921705617,0.6516275199223837,0.13571014997564435,0.6553770099692203
1061,14.103829887528043,75.24452921705617,0.6517061850235841,0.1357679840767155,0.6550981002825716
1062,14.117122846894231,75.24452921705617,0.6517323631359522,0.13581841669284406,0.654851656564011
1063,14.130415806260425,75.24452921705617,0.6517166495639816,0.13586163473837296,0.6546452481758528
1064,14.143708765626616,75.24452921705617,0.6516711992676714,0.1358980689090791,0.6544809456697176
1065,14.157001724992805,75.24452921705617,0.6516085259910874,0.13592826146473969,0.6543561337466424
1066,14.170294684358996,75.24452921705617,0.6515405040325938,0.13595278641601685,0.6542647717817115
1067,14.183587643725186,75.24452921705617,0.6514776173913499,0.1359722205310705,0.6541988854875119
1068,14.196880603091376,75.24452921705617,0.6514284558650782,0.13598715244927248,0.6541500607570959
1069,14.210173562457568,75.24452921705617,0.6513994251458924,0.13599821066619128,0.6541107324388729
1070,14.223466521823758,75.24452921705617,0.6513946223245662,0.1360060901007601,0.6540751118477552
1071,14.236759481189948,75.24452921705617,0.6514158294140832,0.13601156085045835,0.6540396675972046
1072,14.250052440556138,75.24452921705617,0.6514625914637451,0.1360154499717594,0.6540031521960384
1073,14.26334539992233,75.24452921705617,0.6515323657376577,0.13601859554967377,0.653966238455575
1074,14.27663835928852,75.24452921705617,0.6516207466746126,0.13602177989450154,0.6539308836441504
1075,14.289931318654707,75.24452921705617,0.6517217816336681,0.13602565396595093,0.6538995681020761
1076,14.3032242780209,75.24452921705617,0.6518283913794513,0.13603066743622763,0.6538745565253931
1077,14.31651723738709,75.24452921705617,0.6519328970880369,0.1360370182922171,0.6538573073418038
1078,14.32981019675328,75.24452921705617,0.6520276357987572,0.13604463316317378,0.6538481154646767
1079,14.34310315611947,75.24452921705617,0.6521056241701096,0.13605318541309014,0.6538460251265489
1080,14.356396115485662,75.24452921705617,0.6521612120451467,0.136062153113538,0.6538490013003886
1081,14.369689074851852,75.24452921705617,0.6521906575871333,0.1360709137827363,0.6538543075868114
1082,14.382982034218042,75.24452921705617,0.6521925574020246,0.13607886761405544,0.6538590100281518
1083,14.396274993584234,75.24452921705617,0.6521680783090565,0.13608557624989803,0.6538605121321663
1084,14.409567952950423,75.24452921705617,0.652120959911537,0.13609090053348355,0.653857026299299
1085,14.422860912316612,75.24452921705617,0.6520572845570977,0.1360951186769452,0.6538478992135858
1086,14.436153871682803,75.24452921705617,0.6519850383690949,0.13609900635406919,0.6538337311118319
1087,14.449446831048997,75.24452921705617,0.6519135086925213,0.13610386248330267,0.6538162583179293
1088,14.462739790415185,75.24452921705617,0.651852575847921,0.13611146870685134,0.6537980019105136
1089,14.476032749781377,75.24452921705617,0.6518119591621351,0.136123976404252,0.6537817195445871
1090,14.489325709147566,75.24452921705617,0.6518004701453904,0.13614372211841116,0.6537697287339967
1091,14.502618668513756,75.24452921705617,0.6518253129767483,0.13617298021816568,0.653763194776741
1092,14.515911627879946,75.24452921705617,0.6518914589479391,0.13621367013554095,0.653761491774507
1093,14.529204587246138,75.24452921705617,0.6520011116420733,0.13626704394393546,0.6537617484107111
1094,14.542497546612328,75.24452921705617,0.6521532765058374,0.13633338721199506,0.6537586798658273
1095,14.555790505978518,75.24452921705617,0.6523434540770736,0.13641177020475578,0.6537447831136208
1096,14.569083465344708,75.24452921705617,0.6525634880758275,0.13649988587720083,0.6537109355995541
1097,14.5823764247109,75.24452921705617,0.6528016096511904,0.13659400308430303,0.6536473888985191
1098,14.59566938407709,75.24452921705617,0.653042722378973,0.1366890491011886,0.6535450928606018
1099,14.60896234344328,75.24452921705617,0.6532689699584483,0.13677883031422494,0.6533972274019968
1100,14.62225530280947,75.24452921705617,0.65346061684281,0.13685640386441583,0.6532007661811117
1101,14.63554826217566,75.24452921705617,0.6535972460834263,0.13691458983719573,0.6529578582984209
1102,14.64884122154185,75.24452921705617,0.6536592395805285,0.13694656694315005,0.6526768021245518
1103,14.662134180908042,75.24452921705617,0.6536294591245375,0.13694647915588842,0.6523724067555028
1104,14.675427140274232,75.24452921705617,0.6534949986208612,0.13690999818861888,0.6520655828886596
1105,14.688720099640422,75.24452921705617,0.6532488369065761,0.13683479770738968,0.6517820760339313
1106,14.702013059006612,75.24452921705617,0.6528911956919846,0.13672089692498385,0.6515503765012357
1107,14.715306018372804,75.24452921705617,0.6524304064666483,0.13657083728669767,0.6513989945392278
1108,14.728598977738994,75.24452921705617,0.6518831186889332,0.13638966708011055,0.6513534059823192
1109,14.741891937105184,75.24452921705617,0.6512737393677991,0.13618472306818102,0.6514330316640063
1110,14.755184896471375,75.24452921705617,0.6506330757667269,0.13596521490883234,0.6516486320351459
1111,14.768477855837563,75.24452921705617,0.6499962479416787,0.13574163587823476,0.6520004716086855
1112,14.781770815203757,75.24452921705617,0.6494000326052546,0.135525040683752,0.6524775261000927
1113,14.795063774569943,75.24452921705617,0.6488798803529707,0.13532624616823258,0.6530578795736304
1114,14.808356733936137,75.24452921705617,0.6484669025755937,0.1351550217617671,0.6537103094497838
1115,14.821649693302328,75.24452921705617,0.6481851445105751,0.1350193421753172,0.6543969053088062
1116,14.834942652668516,75.24452921705617,0.6480494434475004,0.13492477392703148,0.6550764341595601
1117,14.848235612034708,75.24452921705617,0.6480641207515169,0.1348740594801875,0.6557080683893342
1118,14.861528571400898,75.24452921705617,0.6482226766609369,0.13486694805107322,0.6562550464934951
1119,14.874821530767088,75.24452921705617,0.6485085269228731,0.1349003050716927,0.656687848155831
1120,14.88811449013328,75.24452921705617,0.6488966584293063,0.1349685121898362,0.6569865337718399
1121,14.90140744949947,75.24452921705617,0.6493559872961692,0.13506411487906145,0.6571420142925056
1122,14.91470040886566,75.24452921705617,0.6498521892453281,0.13517859523340475,0.6571561623060364
1123,14.92799336823185,75.24452921705617,0.6503507346872114,0.13530314473983968,0.6570408212365372
1124,14.94128632759804,75.24452921705617,0.6508198042004844,0.135429386240097,0.656815894199932
1125,14.954579286964233,75.24452921705617,0.651232770491087,0.13555001567392255,0.656506817286501
1126,14.96787224633042,75.24452921705617,0.6515700096849695,0.13565929890391415,0.6561418246258347
1127,14.981165205696612,75.24452921705617,0.6518199055547396,0.13575336106076596,0.655749379215123
1128,14.994458165062802,75.24452921705617,0.6519790172628326,0.1358302465205021,0.655355987029719
1129,15.007751124428992,75.24452921705617,0.6520514814999948,0.1358897663432082,0.6549845040412515
1130,15.021044083795182,75.24452921705617,0.652047799517058,0.13593317882833683,0.6546530089416479
1131,15.034337043161374,75.24452921705617,0.6519832092994576,0.13596276753385575,0.6543742519460355
1132,15.047630002527564,75.24452921705617,0.6518758595032784,0.13598138769279478,0.6541556087088657
1133,15.060922961893754,75.24452921705617,0.6517449872955171,0.13599204684163976,0.653999417578861
1134,15.074215921259944,75.24452921705617,0.6516092643264966,0.1359975706329403,0.653903564012434
1135,15.087508880626135,75.24452921705617,0.6514854239681261,0.1360003836172579,0.6538621907112351
1136,15.100801839992323,75.24452921705617,0.6513872294065537,0.1360024113127861,0.6538664479224751
1137,15.114094799358517,75.24452921705617,0.6513247952292905,0.1360050882085625,0.6539052432666634
1138,15.127387758724709,75.24452921705617,0.6513042406855265,0.1360094399227442,0.6539659913555715
1139,15.140680718090897,75.24452921705617,0.6513276329855161,0.13601619891250533,0.6540353889514875
1140,15.153973677457088,75.24452921705617,0.6513931725914205,0.13602591285386098,0.6541002447992572
1141,15.167266636823278,75.24452921705617,0.6514955757666491,0.1360390125288302,0.6541483742478632
1142,15.180559596189468,75.24452921705617,0.6516266179108576,0.13605581986894463,0.6541695333965265
1143,15.193852555555658,75.24452921705617,0.6517758097779037,0.13607649381975606,0.6541563262337866
1144,15.20714551492185,75.24452921705617,0.6519311839845224,0.13610092858936665,0.6541049831504192
1145,15.22043847428804,75.24452921705617,0.6520801692213746,0.13612863248793175,0.6540158910139537
1146,15.23373143365423,75.24452921705617,0.6522105238087448,0.13615862353997463,0.6538937607814824
1147,15.24702439302042,75.24452921705617,0.6523112896433524,0.13618937900461572,0.6537473504988308
1148,15.260317352386611,75.24452921705617,0.6523737142880557,0.1362188696783183,0.6535887161350057
1149,15.2736103117528,75.24452921705617,0.6523920760246905,0.13624469725492402,0.6534320315876976
1150,15.286903271118993,75.24452921705617,0.6523643377158231,0.13626433583100495,0.6532920900721692
1151,15.300196230485184,75.24452921705617,0.6522925539048837,0.13627545929643595,0.6531826579912609
1152,15.313489189851373,75.24452921705617,0.6521829640122891,0.1362763177289956,0.6531148865277739
1153,15.326782149217562,75.24452921705617,0.6520457241142354,0.13626611110080308,0.6530959871508322
1154,15.340075108583754,75.24452921705617,0.6518942637175273,0.13624530049416328,0.6531283431708207
1155,15.353368067949944,75.24452921705617,0.6517442979884732,0.136215797806538,0.6532091660322582
1156,15.366661027316134,75.24452921705617,0.6516125630530831,0.13618098555887356,0.6533307241653853
1157,15.379953986682324,75.24452921705617,0.6515153673257836,0.13614553823995784,0.6534810895499291
1158,15.393246946048516,75.24452921705617,0.6514670771068014,0.13611504322106852,0.6536452784362307
1159,15.406539905414704,75.24452921705617,0.6514786767273796,0.13609544879696392,0.6538066203499826
1160,15.419832864780895,75.24452921705617,0.6515565484756115,0.136092394638887,0.6539481800512318
1161,15.433125824147089,75.24452921705617,0.6517016031673938,0.13611050116858397,0.6540540797460157
1162,15.446418783513275,75.24452921705617,0.6519088578589325,0.13615270522353173,0.6541106157941708
1163,15.459711742879469,75.24452921705617,0.6521675063287854,0.13621972773958757,0.6541071224920367
1164,15.473004702245657,75.24452921705617,0.6524614798200477,0.13630974456366235,0.6540365902299224
1165,15.486297661611848,75.24452921705617,0.6527704565730846,0.13641830649712156,0.6538960830546509
1166,15.499590620978038,75.24452921705617,0.6530712362629215,0.13653852779709322,0.6536870130470729
1167,15.512883580344228,75.24452921705617,0.6533393565657125,0.13666153767944944,0.6534153146989569
1168,15.52617653971042,75.24452921705617,0.6535508137874694,0.13677715875782248,0.6530915276641825
1169,15.53946949907661,75.24452921705617,0.6536837584535072,0.13687474366462649,0.6527307523364902
1170,15.5527624584428,75.24452921705617,0.6537200589085731,0.13694408539086117,0.6523524037134663
1171,15.566055417808991,75.24452921705617,0.6536466524337097,0.13697631863169238,0.6519796676200305
1172,15.57934837717518,75.24452921705617,0.6534566260269618,0.13696473482938146,0.651638566691509
1173,15.592641336541371,75.24452921705617,0.6531499816345376,0.13690544039252076,0.6513565753740491
1174,15.60593429590756,75.24452921705617,0.652734042108803,0.13679779903646772,0.6511607862587391
1175,15.619227255273753,75.24452921705617,0.6522234489679821,0.1366446149343845,0.6510757156647393
1176,15.632520214639944,75.24452921705617,0.6516396997893927,0.13645203258679997,0.651120923968887
1177,15.645813174006133,75.24452921705617,0.6510101816069144,0.13622915171742556,0.6513086991494723
1178,15.659106133372324,75.24452921705617,0.6503666844204818,0.13598738028759513,0.6516420987261893
1179,15.672399092738514,75.24452921705617,0.6497434279050164,0.13573957428225225,0.6521136518335168
1180,15.685692052104704,75.24452921705617,0.6491746999080408,0.13549903668885183,0.6527049795782518
1181,15.698985011470894,75.24452921705617,0.6486922764417983,0.13527846679343933,0.6533874987537747
1182,15.712277970837086,75.24452921705617,0.6483228549594475,0.13508896114497287,0.6541242423307656
1183,15.725570930203276,75.24452921705617,0.6480857706939395,0.13493916653903842,0.6548726792820778
1184,15.738863889569464,75.24452921705617,0.6479912687832715,0.1348346718274745,0.6555882707288926
1185,15.752156848935655,75.24452921705617,0.6480395665053877,0.13477770020204158,0.6562283837919392
1186,15.765449808301849,75.24452921705617,0.6482208540691985,0.13476712978697172,0.6567561187535932
1187,15.778742767668035,75.24452921705617,0.6485162601555742,0.1347988353367913,0.6571436005681545
1188,15.792035727034229,75.24452921705617,0.6488996884327461,0.134866311637569,0.6573743432326036
1189,15.80532868640042,75.24452921705617,0.6493403325016973,0.13496149131183102,0.657444406538087
1190,15.818621645766608,75.24452921705617,0.6498055881905858,0.13507561515597016,0.657362208071597
1191,15.831914605132798,75.24452921705617,0.6502640194791071,0.1352000228972557,0.6571470113345774
1192,15.84520756449899,75.24452921705617,0.6506880297385151,0.13532680411258538,0.6568263069290152
1193,15.85850052386518,75.24452921705617,0.651055944994754,0.13544928711532067,0.6564325074724741
1194,15.87179348323137,75.24452921705617,0.6513533127615981,0.1355623402483534,0.6559994392086208
1195,15.885086442597562,75.24452921705617,0.6515733401864081,0.13566247669068865,0.6555590262732243
1196,15.898379401963751,75.24452921705617,0.6517165173964059,0.13574778817373775,0.6551385012908083
1197,15.91167236132994,75.24452921705617,0.6517895743297645,0.1358177555581104,0.65475844885743
1198,15.924965320696131,75.24452921705617,0.6518039858070367,0.1358729911114742,0.6544318814168388
1199,15.938258280062325,75.24452921705617,0.6517742627431418,0.13591496211202458,0.6541643742094221
1200,15.951551239428513,75.24452921705617,0.6517162495980635,0.13594573149397055,0.6539551198255895
1201,15.964844198794705,75.24452921705617,0.6516455999122522,0.13596773357581413,0.6537986322554608
1202,15.978137158160894,75.24452921705617,0.6515765381506015,0.13598358626725127,0.6536867509628372
1203,15.991430117527084,75.24452921705617,0.6515209525478405,0.1359959294019535,0.6536105797912563
1204,16.004723076893274,75.24452921705617,0.6514878124305687,0.13600727422074743,0.6535620442993366
1205,16.018016036259464,75.24452921705617,0.6514828713801019,0.13601985183409032,0.6535348535932323
1206,16.031308995625654,75.24452921705617,0.6515086054676601,0.13603545714073093,0.6535247875422648
1207,16.044601954991847,75.24452921705617,0.6515643395662948,0.13605529611187325,0.6535293699264416
1208,16.057894914358037,75.24452921705617,0.6516465273431312,0.13607985480347862,0.6535471049340014
1209,16.071187873724227,75.24452921705617,0.6517491641959889,0.13610881449202217,0.6535765269006919
1210,16.084480833090417,75.24452921705617,0.6518643208243776,0.13614103682880807,0.6536153301309414
1211,16.097773792456607,75.24452921705617,0.6519827850076034,0.13617463571441787,0.6536598079320272
1212,16.111066751822797,75.24452921705617,0.6520947907267111,0.13620714046588653,0.6537047490075187
1213,16.124359711188987,75.24452921705617,0.652190800245231,0.13623574077072942,0.6537438334372447
1214,16.13765267055518,75.24452921705617,0.6522622910172045,0.13625759106416147,0.653770460683277
1215,16.15094562992137,75.24452921705617,0.6523024900633303,0.1362701427407762,0.6537788484295151
1216,16.16423858928756,75.24452921705617,0.6523069968497505,0.13627146819385705,0.6537651797726395
1217,16.17753154865375,75.24452921705617,0.6522742423749521,0.13626054107005964,0.6537285577504816
1218,16.19082450801994,75.24452921705617,0.652205745322371,0.13623744159490456,0.6536715537182908
1219,16.20411746738613,75.24452921705617,0.6521061425242656,0.1362034633428352,0.6536002050617427
1220,16.21741042675232,75.24452921705617,0.6519829861221409,0.13616110735916748,0.6535234158339689
1221,16.230703386118513,75.24452921705617,0.6518463118625651,0.13611396008866694,0.6534518227141582
1222,16.243996345484703,75.24452921705617,0.6517080003861234,0.13606646211634205,0.653396287083515
1223,16.257289304850893,75.24452921705617,0.6515809754947623,0.13602358428880745,0.6533662427328308
1224,16.270582264217083,75.24452921705617,0.6514782863911569,0.13599043553930687,0.6533681549272798
