,time,sample_rate,Red,Green,Blue
0,0.0,75.24364590770881,3.360267921590013,0.1843168038747916,0.5101064822635403
1,0.0132931154165136,75.24364590770881,3.358235674718711,0.18469657396589767,0.5113214250519754
2,0.0265862308330272,75.24364590770881,3.3561012662596212,0.18503668165560347,0.5123911893208785
3,0.0398793462495408,75.24364590770881,3.353895623799323,0.18530520103946826,0.5132027687477717
4,0.0531724616660544,75.24364590770881,3.351878563984546,0.18548601444107565,0.5136978361432466
5,0.0664655770825681,75.24364590770881,3.350510736461267,0.18557966409239293,0.5138767672618585
6,0.0797586924990817,75.24364590770881,3.3503665118760537,0.18560077307231657,0.5137909460055754
7,0.0930518079155953,75.24364590770881,3.3520181397047963,0.18557348935416235,0.5135279128836018
8,0.1063449233321089,75.24364590770881,3.3559073478152257,0.18552564468884428,0.5131920565553257
9,0.1196380387486226,75.24364590770881,3.362222446696622,0.18548230375762248,0.5128832583713179
10,0.1329311541651362,75.24364590770881,3.370813122307422,0.18546016870139842,0.5126774875007905
11,0.1462242695816498,75.24364590770881,3.3811808487574906,0.18546495157010864,0.512614851792403
12,0.1595173849981634,75.24364590770881,3.392557146102485,0.18549269485869643,0.5126983262700956
13,0.1728105004146771,75.24364590770881,3.4040390154337463,0.18553368096593473,0.5129011029073646
14,0.1861036158311907,75.24364590770881,3.414732303524922,0.18557662629796914,0.5131777324837884
15,0.1993967312477043,75.24364590770881,3.4238683530913194,0.18561177626844236,0.5134754119560888
16,0.2126898466642179,75.24364590770881,3.4308809196434447,0.18563261519213015,0.5137436774430377
17,0.2259829620807316,75.24364590770881,3.435442605086262,0.1856363933577276,0.5139417295771475
18,0.2392760774972452,75.24364590770881,3.43746616058869,0.18562381892710672,0.5140430927180014
19,0.2525691929137588,75.24364590770881,3.437080045095922,0.18559827207606933,0.5140376387110737
20,0.2658623083302724,75.24364590770881,3.4345877566914287,0.18556483877881838,0.5139312499878262
21,0.2791554237467861,75.24364590770881,3.430417392054954,0.18552937536140707,0.5137435758971771
22,0.2924485391632997,75.24364590770881,3.4250666369194147,0.18549772658952252,0.5135044448571225
23,0.3057416545798133,75.24364590770881,3.4190491912222716,0.18547514713684976,0.5132495328855469
24,0.3190347699963269,75.24364590770881,3.4128481143741904,0.18546592630247297,0.5130158629856444
25,0.3323278854128406,75.24364590770881,3.4068796795533633,0.18547317679503078,0.5128376277578748
26,0.3456210008293542,75.24364590770881,3.401469474909184,0.18549872008570836,0.5127427087354697
27,0.3589141162458678,75.24364590770881,3.3968409325317492,0.18554301735133227,0.5127501463155423
28,0.3722072316623814,75.24364590770881,3.393115187998572,0.18560514700763997,0.5128687059911781
29,0.3855003470788951,75.24364590770881,3.390320246838319,0.1856828543209659,0.5130965724700819
30,0.3987934624954087,75.24364590770881,3.3884068768844187,0.18577268799497795,0.513422088898704
31,0.4120865779119223,75.24364590770881,3.387268446507904,0.1858702298352534,0.5138253683223288
32,0.4253796933284359,75.24364590770881,3.3867620462280494,0.18597041872854703,0.5142805444493609
33,0.4386728087449495,75.24364590770881,3.386728601884267,0.18606795720190566,0.5147583951593274
34,0.4519659241614632,75.24364590770881,3.387010233229479,0.18615777097766567,0.5152290655268799
35,0.4652590395779768,75.24364590770881,3.387463746698945,0.18623547575530505,0.515664636196188
36,0.4785521549944904,75.24364590770881,3.387969790004349,0.1862977954355127,0.5160413228611558
37,0.491845270411004,75.24364590770881,3.3884377638285255,0.18634287533088448,0.5163411466835179
38,0.5051383858275177,75.24364590770881,3.3888070259185907,0.1863704436161656,0.5165529765858201
39,0.5184315012440314,75.24364590770881,3.389045204032285,0.18638179320948295,0.5166729063855298
40,0.5317246166605449,75.24364590770881,3.3891445515901397,0.1863795813196269,0.5167039882797565
41,0.5450177320770586,75.24364590770881,3.3891172512840644,0.18636747056755834,0.5166553963140463
42,0.5583108474935722,75.24364590770881,3.388990430698867,0.18634965899840253,0.5165411368966624
43,0.5716039629100859,75.24364590770881,3.3888014415234062,0.18633036219290253,0.5163784557476675
44,0.5848970783265994,75.24364590770881,3.3885937128153816,0.1863133163719592,0.5161861092222592
45,0.5981901937431131,75.24364590770881,3.3884132583044133,0.18630136623423607,0.5159826704575559
46,0.6114833091596267,75.24364590770881,3.3883057304291437,0.18629618668368744,0.5157850265799289
47,0.6247764245761404,75.24364590770881,3.3883137930293437,0.18629816655620524,0.5156071940830738
48,0.6380695399926539,75.24364590770881,3.3884745425841434,0.1863064587257163,0.515459539715501
49,0.6513626554091676,75.24364590770881,3.388816744999761,0.18631917840386464,0.5153484494137133
50,0.6646557708256812,75.24364590770881,3.389357760699923,0.18633371333466636,0.5152764432343252
51,0.6779488862421948,75.24364590770881,3.390100186320792,0.18634709824799417,0.5152426933682869
52,0.6912420016587084,75.24364590770881,3.3910284228241654,0.18635640248495772,0.5152438665797838
53,0.7045351170752221,75.24364590770881,3.3921055613678917,0.1863590839533219,0.5152751820557507
54,0.7178282324917357,75.24364590770881,3.3932711333847996,0.18635327308991093,0.5153315513751808
55,0.7311213479082493,75.24364590770881,3.394440373648593,0.18633796491099872,0.5154086515696881
56,0.7444144633247629,75.24364590770881,3.3955056687318246,0.18631311261719896,0.5155037794378251
57,0.7577075787412766,75.24364590770881,3.396340784366749,0.18627962973175094,0.5156163504388432
58,0.7710006941577902,75.24364590770881,3.396808266008568,0.1862393171434421,0.5157479420704464
59,0.7842938095743038,75.24364590770881,3.396770081904392,0.1861947354866647,0.5159018392298999
60,0.7975869249908174,75.24364590770881,3.3961011413583004,0.1861490420527957,0.5160821121892845
61,0.8108800404073311,75.24364590770881,3.3947048123345676,0.18610580611074204,0.5162923362476687
62,0.8241731558238446,75.24364590770881,3.39252904824851,0.18606880923594274,0.5165341326369712
63,0.8374662712403583,75.24364590770881,3.389581302379665,0.186041830536415,0.5168057593846221
64,0.8507593866568719,75.24364590770881,3.3859401549551564,0.18602841288852467,0.5171009974227773
65,0.8640525020733856,75.24364590770881,3.381761605612553,0.18603160708839603,0.5174085552755916
66,0.8773456174898991,75.24364590770881,3.377278333398854,0.1860536966417945,0.5177121521602029
67,0.8906387329064128,75.24364590770881,3.3727907301624014,0.1860959158154248,0.5179913432298513
68,0.9039318483229264,75.24364590770881,3.368649153288391,0.18615818531825545,0.5182230644293118
69,0.91722496373944,75.24364590770881,3.365228006608564,0.18623890046218844,0.5183838079545231
70,0.9305180791559536,75.24364590770881,3.362893785866566,0.1863348125768432,0.518452223512981
71,0.9438111945724672,75.24364590770881,3.3619702903026334,0.1864410431018487,0.5184117934375703
72,0.9571043099889808,75.24364590770881,3.3627046294158833,0.18655125979097487,0.518253179903284
73,0.9703974254054946,75.24364590770881,3.3652378017503475,0.1866580257033259,0.5179759012813371
74,0.983690540822008,75.24364590770881,3.3695834443317594,0.18675330676105648,0.5175890796796941
75,0.9969836562385218,75.24364590770881,3.3756176656067076,0.18682910147865373,0.5171111036370314
76,1.0102767716550354,75.24364590770881,3.383081737016235,0.1868781407776292,0.516568187227013
77,1.023569887071549,75.24364590770881,3.391597985515277,0.1868945870235125,0.515991962036593
78,1.0368630024880627,75.24364590770881,3.400697690544641,0.18687464369153656,0.515416383390412
79,1.0501561179045762,75.24364590770881,3.4098583566262017,0.18681699158470072,0.5148743410640692
80,1.06344923332109,75.24364590770881,3.4185466059031646,0.18672299429656125,0.5143944162785596
81,1.0767423487376035,75.24364590770881,3.426262268470506,0.1865966475941501,0.5139982096253474
82,1.0900354641541172,75.24364590770881,3.4325791284278657,0.1864442790013109,0.5136985800053739
83,1.103328579570631,75.24364590770881,3.437178216669654,0.18627403455814187,0.5134989967951822
84,1.1166216949871444,75.24364590770881,3.439870453322788,0.18609521458847128,0.5133940404927971
85,1.129914810403658,75.24364590770881,3.440606698095184,0.18591753489527668,0.5133709203584719
86,1.1432079258201715,75.24364590770881,3.439474654079948,0.1857503924102542,0.513411739371867
87,1.1565010412366852,75.24364590770881,3.436683423642978,0.18560220559427695,0.5134961487536855
88,1.1697941566531989,75.24364590770881,3.432537985234365,0.18547988259732956,0.5136040071853285
89,1.1830872720697123,75.24364590770881,3.4274072504563664,0.18538844845482397,0.5137176925961696
90,1.1963803874862262,75.24364590770881,3.4216896686524927,0.18533084095126573,0.5138237956689431
91,1.2096735029027397,75.24364590770881,3.41577958270481,0.18530786705813607,0.5139140363915636
92,1.2229666183192534,75.24364590770881,3.410036999383145,0.18531830104237149,0.5139853684763112
93,1.236259733735767,75.24364590770881,3.4047632430445844,0.18535910151766624,0.5140393531699994
94,1.2495528491522807,75.24364590770881,3.4001843142338775,0.1854257208274176,0.5140809791852543
95,1.2628459645687942,75.24364590770881,3.396442743277317,0.18551247474902335,0.5141171680823128
96,1.2761390799853078,75.24364590770881,3.393597754103109,0.18561294694697528,0.5141552263371212
97,1.2894321954018215,75.24364590770881,3.391632747593907,0.1857204180517829,0.5142014848457822
98,1.3027253108183352,75.24364590770881,3.39046850244172,0.18582831054215224,0.5142603113720172
99,1.3160184262348489,75.24364590770881,3.3899801102207623,0.18593062747647374,0.514333602350149
100,1.3293115416513623,75.24364590770881,3.390015520638407,0.18602235325429334,0.5144207693207564
101,1.342604657067876,75.24364590770881,3.3904136646328045,0.18609978138793745,0.5145191501056996
102,1.3558977724843897,75.24364590770881,3.391020418062513,0.18616073453695814,0.5146247141200798
103,1.3691908879009032,75.24364590770881,3.3917011188878345,0.18620464739869388,0.5147329034065934
104,1.3824840033174168,75.24364590770881,3.3923488926068948,0.18623249485777923,0.5148394546051547
105,1.3957771187339305,75.24364590770881,3.3928886034390033,0.1862465652068725,0.5149410746933131
106,1.4090702341504442,75.24364590770881,3.3932767636811785,0.1862500987950284,0.5150358841622967
107,1.4223633495669576,75.24364590770881,3.393498143891599,0.1862468324678921,0.5151235848446871
108,1.435656464983471,75.24364590770881,3.3935600941381283,0.18624050565740588,0.51520534870251
109,1.448949580399985,75.24364590770881,3.3934856959574637,0.18623439163618524,0.5152834555532104
110,1.462242695816499,75.24364590770881,3.3933068221729115,0.18623091541477305,0.5153607323480462
111,1.475535811233012,75.24364590770881,3.393058011550125,0.18623140804213484,0.5154398660822876
112,1.4888289266495258,75.24364590770881,3.3927718038977464,0.18623602748778217,0.5155226780554775
113,1.5021220420660395,75.24364590770881,3.3924758711439487,0.18624385199663587,0.5156094585144478
114,1.5154151574825532,75.24364590770881,3.3921919640880134,0.18625312665767854,0.5156984650873715
115,1.5287082728990666,75.24364590770881,3.3919364119243287,0.1862616217840751,0.5157856819671958
116,1.5420013883155803,75.24364590770881,3.3917216941094437,0.18626704592064117,0.5158649160239114
117,1.555294503732094,75.24364590770881,3.391558474171464,0.18626744929722033,0.5159282696496748
118,1.5685876191486077,75.24364590770881,3.391457454195571,0.18626155649271953,0.5159669804479098
119,1.5818807345651211,75.24364590770881,3.3914304766257333,0.186248979610971,0.5159725609083649
120,1.5951738499816348,75.24364590770881,3.3914904544425495,0.18623028344338263,0.5159381157902376
121,1.6084669653981485,75.24364590770881,3.391649928880377,0.1862068985461966,0.5158596708912524
122,1.6217600808146622,75.24364590770881,3.391918305243447,0.1861809026720899,0.5157373230756462
123,1.6350531962311756,75.24364590770881,3.392298068497405,0.18615471131083194,0.5155760241370004
124,1.6483463116476893,75.24364590770881,3.3927804992093504,0.18613073081661843,0.5153858428446177
125,1.661639427064203,75.24364590770881,3.393341570784827,0.18611103089227707,0.5151816085619615
126,1.6749325424807169,75.24364590770881,3.3939387923127526,0.1860970870687103,0.5149819196876525
127,1.68822565789723,75.24364590770881,3.3945097570310128,0.1860896299380631,0.5148075900057824
128,1.7015187733137438,75.24364590770881,3.3949730602016186,0.1860886190954156,0.5146796916832342
129,1.7148118887302577,75.24364590770881,3.3952320625673527,0.1860933393221962,0.514617419863386
130,1.7281050041467712,75.24364590770881,3.3951817016439776,0.18610259768001378,0.5146360374346475
131,1.7413981195632846,75.24364590770881,3.3947182045317104,0.18611498547858105,0.5147451520219832
132,1.7546912349797985,75.24364590770881,3.3937511545656576,0.18612916031749854,0.5149475310808445
133,1.767984350396312,75.24364590770881,3.3922169463809477,0.18614410144782934,0.5152385842567548
134,1.7812774658128256,75.24364590770881,3.390092281020411,0.1861592965240183,0.5156065504732907
135,1.794570581229339,75.24364590770881,3.387406074457545,0.1861748285676625,0.5160333383807596
136,1.8078636966458528,75.24364590770881,3.384248040478967,0.18619134710139662,0.5164958981083273
137,1.8211568120623665,75.24364590770881,3.3807722534507314,0.18620992488454743,0.5169679586331971
138,1.83444992747888,75.24364590770881,3.3771942408276305,0.18623181915784948,0.5174219495825536
139,1.8477430428953936,75.24364590770881,3.373780775544054,0.1862581714226574,0.51783093373685
140,1.8610361583119075,75.24364590770881,3.3708324820076956,0.18628969043549196,0.5181703969960174
141,1.874329273728421,75.24364590770881,3.368660303407494,0.18632636772122405,0.5184197692089746
142,1.8876223891449344,75.24364590770881,3.3675576802673914,0.18636727267631698,0.518563591489033
143,1.900915504561448,75.24364590770881,3.3677710121623217,0.18641046536113653,0.5185922986825131
144,1.914208619977961,75.24364590770881,3.3694715046467345,0.18645305054418732,0.5185026081682538
145,1.927501735394476,75.24364590770881,3.372731679587128,0.18649137820395922,0.518297500038716
146,1.940794850810989,75.24364590770881,3.3775095879576122,0.18652137534169946,0.5179857950768862
147,1.9540879662275024,75.24364590770881,3.38364311187471,0.1865389741944382,0.5175813858109227
148,1.9673810816440165,75.24364590770881,3.3908557291986594,0.18654058600087903,0.5171022085807389
149,1.98067419706053,75.24364590770881,3.3987738473521554,0.1865235597645036,0.5165690555522491
150,1.993967312477044,75.24364590770881,3.4069544469309383,0.18648656342428802,0.5160043272866529
151,2.007260427893557,75.24364590770881,3.4149204926644194,0.18642983158003912,0.515430818835866
152,2.0205535433100708,75.24364590770881,3.42220055368687,0.1863552395445759,0.5148706148690961
153,2.0338466587265844,75.24364590770881,3.428368482405044,0.18626618647973606,0.5143441453350918
154,2.047139774143098,75.24364590770881,3.43307892364393,0.18616729760285736,0.5138694272364639
155,2.060432889559612,75.24364590770881,3.4360948799004842,0.18606398259753915,0.5134614948883631
156,2.073726004976125,75.24364590770881,3.437304423091075,0.18596190960191564,0.5131320036975152
157,2.0870191203926387,75.24364590770881,3.436724817110973,0.18586646716566965,0.5128889821794691
158,2.1003122358091524,75.24364590770881,3.434494120952302,0.18578228757677984,0.5127367035005616
159,2.113605351225666,75.24364590770881,3.4308524917330745,0.18571289343660313,0.51267565103135
160,2.12689846664218,75.24364590770881,3.426116301561818,0.1856605072865677,0.5127025631010856
161,2.1401915820586934,75.24364590770881,3.4206477309594088,0.18562603560540503,0.5128105605432697
162,2.153484697475207,75.24364590770881,3.41482256052161,0.18560920910387244,0.5129893919509263
163,2.166777812891721,75.24364590770881,3.408999494128515,0.185608836614185,0.513225865630161
164,2.1800709283082345,75.24364590770881,3.4034941560956486,0.18562311498382847,0.513504499846628
165,2.193364043724748,75.24364590770881,3.3985599371296753,0.18564993470420993,0.5138083170463357
166,2.2066571591412614,75.24364590770881,3.3943767704875163,0.18568712775764362,0.5141197129459998
167,2.219950274557775,75.24364590770881,3.391047886867825,0.18573261849705663,0.5144214443366271
168,2.2332433899742887,75.24364590770881,3.3886037018531865,0.18578446415780236,0.5146977595334951
169,2.2465365053908024,75.24364590770881,3.3870113308846537,0.18584080327918262,0.5149355514568534
170,2.259829620807316,75.24364590770881,3.386187853515493,0.18589975161412794,0.5151253439812131
171,2.2731227362238298,75.24364590770881,3.386015368000005,0.1859592918792877,0.5152619478994335
172,2.2864158516403434,75.24364590770881,3.3863560528944707,0.18601720220657678,0.5153446781554263
173,2.2997089670568567,75.24364590770881,3.3870658161286995,0.18607105918976885,0.515377095560227
174,2.3130020824733704,75.24364590770881,3.3880055785478613,0.18611833434923877,0.5153663161004821
175,2.326295197889884,75.24364590770881,3.3890497219814124,0.18615658123596948,0.5153220017682394
176,2.3395883133063977,75.24364590770881,3.3900916589402956,0.18618368908936794,0.515255193751245
177,2.3528814287229114,75.24364590770881,3.391046803360267,0.18619816232980177,0.5151771623145591
178,2.366174544139425,75.24364590770881,3.39185341850883,0.18619937662259659,0.5150984263681923
179,2.3794676595559388,75.24364590770881,3.392471894065359,0.18618776350189803,0.5150280462124849
180,2.3927607749724524,75.24364590770881,3.3928829831296343,0.1861648862155058,0.514973228061923
181,2.4060538903889657,75.24364590770881,3.393085444816692,0.18613338714268068,0.5149392141376897
182,2.41934700580548,75.24364590770881,3.393093423044758,0.1860968079853838,0.5149293816649781
183,2.432640121221993,75.24364590770881,3.3929337746845407,0.1860593035900379,0.5149454477948087
184,2.4459332366385067,75.24364590770881,3.3926434580088483,0.1860252849744089,0.5149876786834149
185,2.4592263520550204,75.24364590770881,3.392267012782806,0.18599903463214507,0.515055026566942
186,2.472519467471534,75.24364590770881,3.3918541062211913,0.18598433702669487,0.5151451604506699
187,2.485812582888048,75.24364590770881,3.3914570808802873,0.18598416058802644,0.5152544031717551
188,2.4991056983045614,75.24364590770881,3.391128418640034,0.18600041678360504,0.515377629382662
189,2.5123988137210747,75.24364590770881,3.390918030130691,0.18603380958911697,0.5155082070466116
190,2.5256919291375883,75.24364590770881,3.3908702961429107,0.18608377730458192,0.5156380744767912
191,2.538985044554102,75.24364590770881,3.391020833460716,0.18614851987428674,0.5157580345841027
192,2.552278159970616,75.24364590770881,3.391393037863418,0.1862250996151378,0.5158583196037595
193,2.5655712753871294,75.24364590770881,3.3919945706843575,0.1863096016963379,0.5159294369763509
194,2.578864390803643,75.24364590770881,3.3928141017948077,0.18639734226603258,0.5159632554381834
195,2.5921575062201567,75.24364590770881,3.3938187733226832,0.18648311557589115,0.5159542359898343
196,2.6054506216366704,75.24364590770881,3.394952882125151,0.1865614749379671,0.5159006626005445
197,2.618743737053184,75.24364590770881,3.396138178218762,0.18662704390603163,0.5158056904909852
198,2.6320368524696973,75.24364590770881,3.3972761722775204,0.1866748499829078,0.5156780139562014
199,2.645329967886211,75.24364590770881,3.398252912402058,0.18670066386951606,0.5155319680107123
200,2.6586230833027247,75.24364590770881,3.3989464728590937,0.186701331841029,0.5153869227529264
201,2.6719161987192384,75.24364590770881,3.399236911359857,0.18667510574407614,0.5152659058410329
202,2.685209314135752,75.24364590770881,3.399018023281251,0.1866219549106803,0.5151934909416115
203,2.6985024295522657,75.24364590770881,3.398209917848625,0.18654379226738696,0.5151931068402409
204,2.7117955449687794,75.24364590770881,3.396771160539883,0.18644453774068787,0.5152840364299786
205,2.7250886603852926,75.24364590770881,3.3947090159664124,0.18632997953842337,0.5154784670290915
206,2.7383817758018063,75.24364590770881,3.3920863272090265,0.18620742583139985,0.5157790030626155
207,2.75167489121832,75.24364590770881,3.3890238029623085,0.1860851606107967,0.5161770424614417
208,2.7649680066348337,75.24364590770881,3.3856968819064672,0.18597174305803812,0.5166523409991779
209,2.778261122051348,75.24364590770881,3.3823268749515694,0.1858752161629042,0.5171739481767541
210,2.791554237467861,75.24364590770881,3.3791667165499533,0.18580231051934723,0.5177025120450779
211,2.8048473528843747,75.24364590770881,3.3764822707294435,0.18575773894480235,0.5181937465297107
212,2.8181404683008884,75.24364590770881,3.3745306538111524,0.18574367393435792,0.5186026700501382
213,2.8314335837174016,75.24364590770881,3.3735374869102293,0.1857594823262873,0.5188881067989431
214,2.844726699133916,75.24364590770881,3.3736753101489287,0.18580176157468306,0.5190169132677934
215,2.858019814550429,75.24364590770881,3.3750453882078904,0.185864683609999,0.5189674203505299
216,2.8713129299669427,75.24364590770881,3.3776648149708697,0.18594061110383642,0.5187316597646595
217,2.8846060453834563,75.24364590770881,3.381460336212807,0.1860209135951614,0.5183161079325843
218,2.89789916079997,75.24364590770881,3.386269717139002,0.18609688358691423,0.517740903444726
219,2.911192276216484,75.24364590770881,3.3918508076420677,0.18616063998041624,0.5170377033940429
220,2.9244853916329974,75.24364590770881,3.3978977596279716,0.18620591010265405,0.5162465074232023
221,2.9377785070495106,75.24364590770881,3.4040631865728344,0.18622860115128229,0.5154118874218216
222,2.9510716224660243,75.24364590770881,3.409984476017202,0.18622710347921126,0.5145791017255312
223,2.964364737882538,75.24364590770881,3.4153120195936633,0.18620230621802625,0.5137905402632394
224,2.977657853299052,75.24364590770881,3.4197368586945665,0.18615734399190004,0.5130828506092757
225,2.9909509687155653,75.24364590770881,3.423015187740481,0.18609712602042455,0.5124849555370015
226,3.004244084132079,75.24364590770881,3.4249873318019444,0.18602772129983175,0.5120170199295433
227,3.0175371995485927,75.24364590770881,3.425589125942783,0.1859556834296522,0.5116902894069746
228,3.0308303149651064,75.24364590770881,3.424854103388287,0.18588739600233298,0.5115076292978169
229,3.04412343038162,75.24364590770881,3.422906350856472,0.18582850636235976,0.5114645518927553
230,3.0574165457981333,75.24364590770881,3.419946080685675,0.18578349576059613,0.5115505364398102
231,3.070709661214647,75.24364590770881,3.4162303966888024,0.18575541146084376,0.5117505002607331
232,3.0840027766311606,75.24364590770881,3.4120503700263516,0.18574576274355775,0.5120462818197884
233,3.0972958920476743,75.24364590770881,3.4077055775005842,0.18575456133217563,0.5124179422190921
234,3.110589007464188,75.24364590770881,3.4034787038365404,0.18578047570203432,0.5128447638460367
235,3.1238821228807017,75.24364590770881,3.3996132456031862,0.18582106809248375,0.5133060152556888
236,3.137175238297216,75.24364590770881,3.3962966555214273,0.18587308315647583,0.51378159970517
237,3.150468353713729,75.24364590770881,3.3936503650359784,0.18593275648588575,0.5142526102167626
238,3.1637614691302423,75.24364590770881,3.391727191016899,0.18599611480351705,0.5147017740831762
239,3.177054584546756,75.24364590770881,3.390515702705509,0.18605924653407152,0.5151137965726841
240,3.1903476999632696,75.24364590770881,3.3899503227551824,0.18611852852223468,0.5154756350050895
241,3.203640815379784,75.24364590770881,3.389925360709779,0.18617080119584792,0.5157767409624474
242,3.216933930796297,75.24364590770881,3.390310898112809,0.1862134904996035,0.5160093042456662
243,3.23022704621281,75.24364590770881,3.39096848163078,0.18624468026633614,0.5161685164979384
244,3.2435201616293243,75.24364590770881,3.3917649020966394,0.18626314304316588,0.5162528480187875
245,3.2568132770458376,75.24364590770881,3.392582865269266,0.18626834022817598,0.5162643029989099
246,3.2701063924623512,75.24364590770881,3.3933279861061423,0.18626040310340564,0.5162085923559434
247,3.283399507878865,75.24364590770881,3.3939321455920917,0.18624010455326967,0.5160951454645939
248,3.2966926232953786,75.24364590770881,3.3943537354731714,0.1862088269915406,0.5159368770298176
249,3.3099857387118923,75.24364590770881,3.3945756136489083,0.1861685260172072,0.515749636185801
250,3.323278854128406,75.24364590770881,3.3946016789057096,0.1861216829742481,0.5155512930521755
251,3.33657196954492,75.24364590770881,3.394452871240859,0.18607123469170958,0.5153604631743897
252,3.3498650849614333,75.24364590770881,3.39416317189437,0.18602046694865942,0.515194929848989
253,3.3631582003779465,75.24364590770881,3.393775892285127,0.18597286077512468,0.5150698920543475
254,3.37645131579446,75.24364590770881,3.393340278966507,0.1859318877020779,0.5149962309755024
255,3.389744431210974,75.24364590770881,3.3929082801682506,0.18590076049861592,0.5149790366305848
256,3.403037546627488,75.24364590770881,3.392531248199227,0.185882157773171,0.515016652625192
257,3.4163306620440013,75.24364590770881,3.3922563907853074,0.18587795148308675,0.5151004697206832
258,3.429623777460515,75.24364590770881,3.392122908584869,0.18588897331425364,0.5152156236229165
259,3.4429168928770286,75.24364590770881,3.3921579263336312,0.18591485708273287,0.51534263542431
260,3.4562100082935423,75.24364590770881,3.392372498602494,0.18595398886978703,0.5154598905530126
261,3.4695031237100555,75.24364590770881,3.392758111333431,0.18600358494178415,0.5155467065050257
262,3.482796239126569,75.24364590770881,3.393284182232223,0.18605990131079686,0.5155866154167642
263,3.496089354543083,75.24364590770881,3.3938970750394017,0.1861185606962155,0.5155704063572469
264,3.509382469959597,75.24364590770881,3.394521084134841,0.18617496570896086,0.5154984501448849
265,3.5226755853761103,75.24364590770881,3.3950617235149756,0.18622475415016232,0.5153818755592983
266,3.535968700792624,75.24364590770881,3.3954114777003737,0.18626424546860054,0.5152422813320295
267,3.5492618162091376,75.24364590770881,3.395457951878752,0.18629082755990606,0.5151098459914671
268,3.562554931625652,75.24364590770881,3.3950941050039334,0.18630323984669353,0.5150199205143499
269,3.5758480470421645,75.24364590770881,3.3942299752967307,0.18630172047799665,0.5150084294899168
270,3.589141162458678,75.24364590770881,3.39280503062146,0.18628800043372226,0.5151066288887276
271,3.602434277875192,75.24364590770881,3.390800025014537,0.18626514278717796,0.5153359318608625
272,3.6157273932917056,75.24364590770881,3.388247054257454,0.1862372397592149,0.5157035807818224
273,3.6290205087082192,75.24364590770881,3.3852364439104634,0.1862089953503259,0.5161998888628536
274,3.642313624124733,75.24364590770881,3.381919203792675,0.18618523611118973,0.5167975934472734
275,3.655606739541247,75.24364590770881,3.378503881105416,0.18617039817086128,0.5174535742666063
276,3.66889985495776,75.24364590770881,3.3752467917355515,0.18616803514264735,0.5181128357838156
277,3.6821929703742735,75.24364590770881,3.3724353496180033,0.18618039047832463,0.5187142753311145
278,3.695486085790787,75.24364590770881,3.370365477372642,0.1862080791972659,0.5191974296774696
279,3.708779201207301,75.24364590770881,3.3693150186176957,0.1862499187510635,0.51950930785843
280,3.722072316623815,75.24364590770881,3.369515546507675,0.18630293644041657,0.5196105859527407
281,3.735365432040328,75.24364590770881,3.3711254004377897,0.18636256462996734,0.5194804671931239
282,3.748658547456842,75.24364590770881,3.374207095267024,0.18642301605830405,0.5191193962601107
283,3.761951662873356,75.24364590770881,3.3787121450768773,0.1864778109654331,0.518549071433229
284,3.775244778289869,75.24364590770881,3.3844757754740287,0.18652040774280282,0.5178097857792097
285,3.788537893706384,75.24364590770881,3.391223018377987,0.18654487212954118,0.5169555903340111
286,3.801831009122896,75.24364590770881,3.398586395309995,0.18654650973719009,0.5160480283170353
287,3.81512412453941,75.24364590770881,3.4061339672000033,0.18652238568709373,0.5151493384200208
288,3.828417239955924,75.24364590770881,3.413405165429667,0.18647166509497248,0.514316050667316
289,3.841710355372437,75.24364590770881,3.4199507286149324,0.18639572887930886,0.5135937820540053
290,3.855003470788951,75.24364590770881,3.425372426634143,0.18629804848744907,0.5130138047356255
291,3.868296586205465,75.24364590770881,3.429358152315645,0.1861838361670318,0.5125916519645107
292,3.881589701621978,75.24364590770881,3.4317084166631986,0.18605951871644982,0.5123277050148618
293,3.894882817038492,75.24364590770881,3.4323510915135076,0.18593210664879334,0.5122094258672355
294,3.908175932455005,75.24364590770881,3.4313423455292016,0.18580854313324355,0.5122147097466366
295,3.921469047871519,75.24364590770881,3.428854127591584,0.1856951158590897,0.5123157509732127
296,3.934762163288033,75.24364590770881,3.425151846677391,0.18559700054999545,0.5124828431567363
297,3.948055278704546,75.24364590770881,3.420566511721164,0.18551798004351105,0.512687648679702
298,3.96134839412106,75.24364590770881,3.415463489088173,0.18546035227804142,0.5129056386835452
299,3.9746415095375736,75.24364590770881,3.4102097199545054,0.18542500982907612,0.5131175860119431
300,3.9879346249540872,75.24364590770881,3.4051428246917705,0.18541164868630336,0.5133101566225017
301,4.0012277403706005,75.24364590770881,3.4005457120925393,0.18541904917990681,0.5134757650238453
302,4.014520855787114,75.24364590770881,3.396629039333516,0.18544536772291795,0.51361192035993
303,4.027813971203628,75.24364590770881,3.39352251395291,0.1854883844599042,0.5137202913574863
304,4.0411070866201415,75.24364590770881,3.391274854926351,0.18554567194124044,0.5138056786909426
305,4.054400202036655,75.24364590770881,3.3898612531569303,0.18561467848213317,0.5138750214702169
306,4.067693317453169,75.24364590770881,3.389196492530679,0.1856927433149241,0.513936493484671
307,4.0809864328696825,75.24364590770881,3.389151547867992,0.1857770739279118,0.5139986858099223
308,4.094279548286196,75.24364590770881,3.3895714582657965,0.18586472189039235,0.5140698467115188
309,4.10757266370271,75.24364590770881,3.390292529036182,0.1859525915365735,0.5141571598332411
310,4.120865779119224,75.24364590770881,3.3911573576167613,0.18603750536749034,0.5142660749082343
311,4.134158894535737,75.24364590770881,3.392026710764345,0.18611633375485412,0.5143997440363955
312,4.147452009952251,75.24364590770881,3.392787810187462,0.18618617857504227,0.5145586426178613
313,4.160745125368764,75.24364590770881,3.393359039620456,0.18624458471905078,0.5147404540811727
314,4.174038240785277,75.24364590770881,3.3936914240936162,0.1862897433836759,0.51494026797584
315,4.187331356201791,75.24364590770881,3.393767436711794,0.1863206488252332,0.5151510884232013
316,4.200624471618305,75.24364590770881,3.3935977693005475,0.1863371764444394,0.515364588508513
317,4.213917587034818,75.24364590770881,3.3932166876713024,0.18634006351736468,0.5155719929978413
318,4.227210702451332,75.24364590770881,3.392676515170535,0.18633079185157844,0.5157649417653665
319,4.240503817867846,75.24364590770881,3.392041684789195,0.18631139031062827,0.5159361886550654
320,4.25379693328436,75.24364590770881,3.3913826991207165,0.1862841904236225,0.5160800264708051
321,4.267090048700873,75.24364590770881,3.3907702572413005,0.18625157674960277,0.5161923917106761
322,4.280383164117387,75.24364590770881,3.390269755176596,0.18621577335459744,0.5162706792934869
323,4.2936762795339005,75.24364590770881,3.3899363392401436,0.1861786987190964,0.5163133706691151
324,4.306969394950414,75.24364590770881,3.389810679935852,0.18614190565888858,0.5163196306524569
325,4.320262510366928,75.24364590770881,3.3899156267449775,0.18610660397200463,0.5162890447057651
326,4.333555625783442,75.24364590770881,3.390253891034822,0.18607374576779454,0.5162216417775384
327,4.346848741199955,75.24364590770881,3.3908068800874256,0.1860441407471917,0.5161182801581681
328,4.360141856616469,75.24364590770881,3.391534770006592,0.18601856386153062,0.5159813770736809
329,4.373434972032982,75.24364590770881,3.392377863850457,0.1859978217785386,0.5158158570014539
330,4.386728087449495,75.24364590770881,3.393259240527611,0.18598275645312,0.5156301031513484
331,4.400021202866009,75.24364590770881,3.3940886647741326,0.18597418111488145,0.5154366440621022
332,4.413314318282523,75.24364590770881,3.3947676986523057,0.18597276225999346,0.5152523088102502
333,4.426607433699036,75.24364590770881,3.395195923269102,0.18597887655480314,0.5150976449572983
334,4.43990054911555,75.24364590770881,3.395278132653054,0.1859924802875915,0.5149955056022102
335,4.453193664532064,75.24364590770881,3.3949322850577124,0.18601302891218027,0.5149688571800562
336,4.4664867799485775,75.24364590770881,3.3940978799940953,0.18603947503336837,0.5150380121405038
337,4.479779895365091,75.24364590770881,3.392744274459755,0.18607035668904676,0.5152176225134127
338,4.493073010781605,75.24364590770881,3.390878277007291,0.18610396751496305,0.515513856943105
339,4.506366126198119,75.24364590770881,3.3885502144007673,0.18613858081809834,0.5159222075527147
340,4.519659241614632,75.24364590770881,3.3858575895658976,0.18617268516513286,0.5164263262523475
341,4.532952357031146,75.24364590770881,3.3829453450480265,0.18620518315021536,0.5169981751625944
342,4.54624547244766,75.24364590770881,3.3800016798108676,0.18623550910965342,0.5175996060436912
343,4.559538587864173,75.24364590770881,3.377248768650707,0.18626363465527032,0.518185273581821
344,4.572831703280687,75.24364590770881,3.3749285757728966,0.18628995079302432,0.5187065715446534
345,4.5861248186972,75.24364590770881,3.3732846287545626,0.18631504262104248,0.5191161644542808
346,4.599417934113713,75.24364590770881,3.3725410343785915,0.1863394016923334,0.5193726862123199
347,4.612711049530227,75.24364590770881,3.3728804882901366,0.18636313490387985,0.5194451048286403
348,4.626004164946741,75.24364590770881,3.374423482341542,0.1863857242588221,0.519316124429045
349,4.639297280363254,75.24364590770881,3.3772111141365193,0.18640588470622144,0.5189840885491996
350,4.652590395779768,75.24364590770881,3.381193784066035,0.1864215583818042,0.5184631511785839
351,4.665883511196282,75.24364590770881,3.3862276228420867,0.18643006285264418,0.5177817591118563
352,4.679176626612795,75.24364590770881,3.392079753856616,0.18642838199574605,0.5169796936531831
353,4.692469742029309,75.24364590770881,3.398442535007579,0.1864135608221755,0.5161040903549116
354,4.705762857445823,75.24364590770881,3.404955860786671,0.18638314549734994,0.5152049679813782
355,4.7190559728623365,75.24364590770881,3.4112355833239514,0.18633560051430648,0.5143308262300283
356,4.73234908827885,75.24364590770881,3.416905282427634,0.18627063819282177,0.5135248139660845
357,4.745642203695364,75.24364590770881,3.4216281098070316,0.18618941037916498,0.5128218405536173
358,4.7589353191118775,75.24364590770881,3.425135328466258,0.18609453493508352,0.5122468313255976
359,4.772228434528391,75.24364590770881,3.427248481757391,0.18598995531852763,0.5118141495137993
360,4.785521549944905,75.24364590770881,3.4278927387037044,0.18588065510175272,0.5115280535273827
361,4.798814665361418,75.24364590770881,3.4270998158084636,0.18577226663260107,0.5113839525468236
362,4.812107780777931,75.24364590770881,3.425000478095052,0.18567062219106187,0.5113701742948219
363,4.825400896194445,75.24364590770881,3.421808709592264,0.1855812969880525,0.5114699628669488
364,4.838694011610959,75.24364590770881,3.4178002651110173,0.1855091878455813,0.5116634780805572
365,4.851987127027472,75.24364590770881,3.4132874208971593,0.18545816182574038,0.511929650049733
366,4.865280242443986,75.24364590770881,3.4085917330056428,0.18543079787899208,0.5122477612685057
367,4.8785733578605,75.24364590770881,3.4040175369771064,0.18542823385482668,0.5125985840120859
368,4.891866473277013,75.24364590770881,3.3998290100505195,0.18545012210662185,0.5129649996367945
369,4.905159588693527,75.24364590770881,3.3962328365704666,0.18549468859777296,0.5133322533358647
370,4.918452704110041,75.24364590770881,3.3933676222964326,0.18555888313949312,0.513688053471848
371,4.931745819526554,75.24364590770881,3.3913003548256238,0.18563860568661394,0.5140226021785095
372,4.945038934943068,75.24364590770881,3.3900294388689467,0.18572899467140352,0.5143285662967462
373,4.958332050359582,75.24364590770881,3.389493227160218,0.18582476202520856,0.5146009884940106
374,4.971625165776096,75.24364590770881,3.3895825657553083,0.18592055503793525,0.514837131181477
375,4.984918281192609,75.24364590770881,3.3901556937206303,0.18601132122273123,0.5150362428252229
376,4.998211396609123,75.24364590770881,3.3910538665001533,0.18609264953701504,0.5151992474108105
377,5.011504512025636,75.24364590770881,3.3921162689701596,0.18616105936376662,0.5153283778392725
378,5.024797627442149,75.24364590770881,3.3931930919423823,0.18621420905360672,0.51542679353287
379,5.038090742858663,75.24364590770881,3.394156003993956,0.18625100024963617,0.5154982313082369
380,5.051383858275177,75.24364590770881,3.394905604622019,0.1862715634843193,0.5155467308696666
381,5.06467697369169,75.24364590770881,3.3953757545860657,0.18627712422603396,0.515576453293525
382,5.077970089108204,75.24364590770881,3.395534922574842,0.1862697647904419,0.5155915804337534
383,5.091263204524718,75.24364590770881,3.3953848591185722,0.1862521133266024,0.5155962565216786
384,5.104556319941231,75.24364590770881,3.394957017369944,0.18622700305846454,0.5155945205036867
385,5.117849435357745,75.24364590770881,3.3943072013633104,0.1861971502466873,0.5155901839452673
386,5.131142550774259,75.24364590770881,3.3935089512981707,0.18616489636894756,0.5155866328734527
387,5.144435666190772,75.24364590770881,3.392646183194654,0.18613204894724475,0.5155865650888057
388,5.157728781607286,75.24364590770881,3.391805590981779,0.1860998381058705,0.5155917068077565
389,5.1710218970238,75.24364590770881,3.3910692910536797,0.186068985415291,0.5156025745168166
390,5.1843150124403135,75.24364590770881,3.390508138889917,0.18603986158135175,0.5156183540055853
391,5.197608127856827,75.24364590770881,3.390176073284966,0.18601269372358079,0.5156369579403871
392,5.210901243273341,75.24364590770881,3.3901057507254118,0.18598777430788702,0.5156552992550955
393,5.224194358689854,75.24364590770881,3.390305631759095,0.185965624036585,0.5156697851954823
394,5.237487474106367,75.24364590770881,3.3907585883718214,0.1859470704262728,0.5156770010583122
395,5.250780589522881,75.24364590770881,3.3914220316094004,0.18593322104789967,0.5156745173163634
396,5.264073704939395,75.24364590770881,3.3922295214560627,0.18592533253028676,0.5156617217438831
397,5.277366820355908,75.24364590770881,3.3930938160544026,0.1859245993201823,0.5156405523612995
398,5.290659935772422,75.24364590770881,3.393911333342644,0.1859319052247054,0.5156159918845338
399,5.303953051188936,75.24364590770881,3.394568014356237,0.18594759172183337,0.515596185925119
400,5.317246166605449,75.24364590770881,3.3949465681673567,0.18597129708066487,0.5155920718982105
401,5.330539282021963,75.24364590770881,3.394935019291393,0.18600190881260514,0.5156164577154152
402,5.343832397438477,75.24364590770881,3.394436352683724,0.1860376506901699,0.5156825677955857
403,5.35712551285499,75.24364590770881,3.39337885635719,0.1860762985606415,0.5158021700527988
404,5.370418628271504,75.24364590770881,3.391726512698197,0.18611549189838883,0.5159834949976073
405,5.383711743688018,75.24364590770881,3.3894885239891033,0.18615308617243795,0.5162292357807626
406,5.397004859104531,75.24364590770881,3.386726830306055,0.18618747936322566,0.5165349550752407
407,5.410297974521045,75.24364590770881,3.3835603697200116,0.18621784701861216,0.5168882068330996
408,5.423591089937559,75.24364590770881,3.3801648966809235,0.18624423428196893,0.5172686036277635
409,5.436884205354072,75.24364590770881,3.3767673264125238,0.18626747730385168,0.5176489339780218
410,5.450177320770585,75.24364590770881,3.37363385006748,0.1862889563368639,0.517997291650022
411,5.463470436187099,75.24364590770881,3.3710518196528954,0.18631021911101012,0.5182800435369783
412,5.476763551603613,75.24364590770881,3.3693065447138864,0.1863325486443655,0.5184653230623407
413,5.490056667020126,75.24364590770881,3.3686550395314483,0.18635656165460743,0.5185266135030713
414,5.50334978243664,75.24364590770881,3.369299259963519,0.18638190943650168,0.5184459429261229
415,5.516642897853154,75.24364590770881,3.3713617187829272,0.18640713568998057,0.5182162574031085
416,5.529936013269667,75.24364590770881,3.374866483560613,0.18642972806666933,0.5178426358400254
417,5.543229128686181,75.24364590770881,3.3797282483315034,0.18644636935863526,0.5173421491138319
418,5.556522244102695,75.24364590770881,3.3857514273743368,0.18645335581659297,0.516742345771816
419,5.569815359519208,75.24364590770881,3.3926401379764877,0.18644711753236637,0.5160785420993316
420,5.583108474935722,75.24364590770881,3.400018656667857,0.18642475588196242,0.5153902713826299
421,5.596401590352236,75.24364590770881,3.407460629655586,0.18638450901005746,0.5147173707385141
422,5.609694705768749,75.24364590770881,3.4145241839901663,0.18632606902476867,0.514096226540808
423,5.622987821185263,75.24364590770881,3.4207892913279845,0.1862507012714992,0.513556650919041
424,5.636280936601777,75.24364590770881,3.425893400565807,0.18616115127022517,0.5131197335544947
425,5.6495740520182895,75.24364590770881,3.429561514247399,0.18606136151410654,0.5127968359689703
426,5.662867167434803,75.24364590770881,3.431627500656961,0.1859560512020578,0.5125897106007913
427,5.676160282851317,75.24364590770881,3.432044262907986,0.1858502314810528,0.5124915724830084
428,5.689453398267831,75.24364590770881,3.4308813680593415,0.18574873385709934,0.5124888523394752
429,5.702746513684344,75.24364590770881,3.428310993915314,0.18565582005847567,0.5125633236184952
430,5.716039629100858,75.24364590770881,3.424586181532133,0.18557492054187152,0.512694313988172
431,5.729332744517372,75.24364590770881,3.420015616341548,0.18550852081574565,0.5128607670513553
432,5.742625859933885,75.24364590770881,3.414936528534459,0.18545818563941707,0.5130429936919014
433,5.755918975350399,75.24364590770881,3.409686720130365,0.18542468674434542,0.5132240315796481
434,5.769212090766913,75.24364590770881,3.404578350383013,0.18540818464159706,0.5133906030772777
435,5.782505206183426,75.24364590770881,3.399876408630258,0.18540841264431804,0.5135336941471268
436,5.79579832159994,75.24364590770881,3.395783679502283,0.1854248210805051,0.513648769348898
437,5.809091437016454,75.24364590770881,3.392432895587772,0.18545665292863356,0.5137356573712196
438,5.822384552432967,75.24364590770881,3.389885893235189,0.1855029353818128,0.5137981875266829
439,5.835677667849481,75.24364590770881,3.388138885367195,0.18556239752376041,0.513843643883149
440,5.848970783265995,75.24364590770881,3.3871324887767096,0.18563335651470664,0.5138820398642994
441,5.862263898682508,75.24364590770881,3.3867648950205975,0.18571362526012591,0.513925184678635
442,5.875557014099021,75.24364590770881,3.386906538431843,0.18580048151470216,0.5139855289070917
443,5.888850129515535,75.24364590770881,3.3874147543108153,0.18589072093895181,0.5140748185429342
444,5.902143244932049,75.24364590770881,3.3881471848625764,0.1859807992973968,0.5142026457044587
445,5.915436360348562,75.24364590770881,3.388973024850887,0.18606704995614007,0.5143750462519162
446,5.928729475765076,75.24364590770881,3.3897815513316853,0.18614594626850156,0.5145933386825908
447,5.94202259118159,75.24364590770881,3.39048771001536,0.1862143686444986,0.5148534068315866
448,5.955315706598103,75.24364590770881,3.3910348065423377,0.18626983499862387,0.515145591952474
449,5.968608822014617,75.24364590770881,3.391394560928595,0.18631066084286516,0.5154552811648782
450,5.981901937431131,75.24364590770881,3.3915649270209456,0.18633602962207305,0.5157641739827761
451,5.995195052847644,75.24364590770881,3.3915661636558494,0.1863459716766237,0.5160520983453846
452,6.008488168264158,75.24364590770881,3.391435681498805,0.1863412674557456,0.5162991544555066
453,6.021781283680672,75.24364590770881,3.391222190328321,0.18632330341156159,0.5164879063247428
454,6.035074399097185,75.24364590770881,3.390979645102919,0.1862939144766598,0.5166053273015082
455,6.048367514513699,75.24364590770881,3.390761442802145,0.18625524396347246,0.5166442390540189
456,6.061660629930213,75.24364590770881,3.3906152614073752,0.18620964098597081,0.5166040581135224
457,6.0749537453467255,75.24364590770881,3.3905788616842547,0.18615959993410228,0.5164907682143052
458,6.088246860763239,75.24364590770881,3.390677094184759,0.18610773017057522,0.5163161528912514
459,6.101539976179753,75.24364590770881,3.3909202696268195,0.18605673154150884,0.5160964303165756
460,6.1148330915962665,75.24364590770881,3.391303960561303,0.1860093472748318,0.5158505107140142
461,6.12812620701278,75.24364590770881,3.3918102137265898,0.1859682721654855,0.5155981307554484
462,6.141419322429294,75.24364590770881,3.392410062901408,0.18593600640774466,0.5153581039583555
463,6.154712437845808,75.24364590770881,3.3930670779119736,0.18591465860062106,0.5151468681880215
464,6.168005553262321,75.24364590770881,3.3937414876107352,0.1859057158415136,0.5149774282453786
465,6.181298668678835,75.24364590770881,3.394394376730115,0.18590981692646025,0.5148587057829043
466,6.194591784095349,75.24364590770881,3.394991583831106,0.18592657883679237,0.5147952417287773
467,6.207884899511862,75.24364590770881,3.395506961575068,0.18595452453542569,0.5147871624152823
468,6.221178014928376,75.24364590770881,3.395924603485363,0.1859911426529454,0.5148303242380562
469,6.23447113034489,75.24364590770881,3.3962397356136305,0.18603308664999246,0.514916587428378
470,6.247764245761403,75.24364590770881,3.396458210620976,0.1860764969384329,0.5150342237206657
471,6.261057361177917,75.24364590770881,3.3965946961445566,0.18611740657865689,0.5151685164246165
472,6.274350476594431,75.24364590770881,3.396669697383404,0.18615217409767978,0.515302644286788
473,6.287643592010944,75.24364590770881,3.396705677283955,0.18617787956862175,0.5154189353731796
474,6.300936707427457,75.24364590770881,3.39672272290486,0.18619262413951382,0.5155005252363007
475,6.314229822843971,75.24364590770881,3.396734298843768,0.1861956884471068,0.5155333587889457
476,6.3275229382604845,75.24364590770881,3.396743616911498,0.18618752918403828,0.515508355721438
477,6.340816053676998,75.24364590770881,3.3967410927510184,0.18616962075419735,0.5154234443663855
478,6.354109169093512,75.24364590770881,3.3967032686758034,0.18614417518679643,0.5152850921932767
479,6.3674022845100255,75.24364590770881,3.396593462626706,0.1861137936526143,0.5151089511468813
480,6.380695399926539,75.24364590770881,3.3963642638431533,0.18608111296771676,0.5149193081901337
481,6.393988515343053,75.24364590770881,3.3959618408986545,0.1860485079071067,0.5147471832349196
482,6.407281630759567,75.24364590770881,3.395331859793007,0.18601789545926187,0.5146271277501031
483,6.42057474617608,75.24364590770881,3.3944266321973653,0.1859906634991304,0.5145930130307961
484,6.433867861592594,75.24364590770881,3.3932129342294557,0.1859677186891937,0.5146733144867629
485,6.447160977009108,75.24364590770881,3.3916797694973195,0.18594962256793007,0.5148865535654898
486,6.460454092425621,75.24364590770881,3.3898452196000175,0.18593676630018752,0.5152376152386636
487,6.473747207842135,75.24364590770881,3.3877614684143875,0.18592952752308253,0.5157155940089738
488,6.487040323258649,75.24364590770881,3.3855171301340556,0.1859283588417979,0.5162936336059075
489,6.5003334386751614,75.24364590770881,3.3832361099378514,0.18593377571438668,0.5169309358642583
490,6.513626554091675,75.24364590770881,3.381072404240449,0.1859462379167212,0.5175767668763308
491,6.526919669508189,75.24364590770881,3.3792006931615206,0.18596594766339347,0.5181759270999243
492,6.540212784924703,75.24364590770881,3.3778032446652237,0.18599261229868905,0.5186748513119744
493,6.553505900341216,75.24364590770881,3.377054199692107,0.18602523418114983,0.5190274661372001
494,6.56679901575773,75.24364590770881,3.3771026542414173,0.18606198950291847,0.519200164214852
495,6.580092131174244,75.24364590770881,3.3780562195215253,0.18610024101350645,0.5191753445599073
496,6.593385246590757,75.24364590770881,3.3799668762005552,0.186136704199059,0.5189529031141742
497,6.606678362007271,75.24364590770881,3.3828208408542366,0.18616775800414248,0.5185493442048578
498,6.619971477423785,75.24364590770881,3.386533831471579,0.18618986252600023,0.5179947691660723
499,6.633264592840298,75.24364590770881,3.3909525999580183,0.18620002328756619,0.517328404375601
500,6.646557708256812,75.24364590770881,3.395862955503796,0.186196227814083,0.5165934811886982
501,6.659850823673326,75.24364590770881,3.401003810375685,0.18617777786273823,0.5158322958009209
502,6.673143939089839,75.24364590770881,3.4060861192858862,0.18614545590701143,0.5150821696461898
503,6.686437054506353,75.24364590770881,3.410815030641007,0.18610149423685216,0.514372810662959
504,6.699730169922867,75.24364590770881,3.414913186942627,0.18604934832298786,0.5137252874323431
505,6.713023285339379,75.24364590770881,3.4181429463266095,0.1859933068737416,0.5131525255269733
506,6.726316400755893,75.24364590770881,3.420325368752819,0.18593799606646286,0.5126609735164495
507,6.739609516172407,75.24364590770881,3.4213540855092583,0.18588785053331044,0.5122529104531206
508,6.7529026315889205,75.24364590770881,3.4212026301015244,0.18584662608969657,0.5119288052801557
509,6.766195747005434,75.24364590770881,3.4199246280654823,0.1858170188686712,0.5116891966887602
510,6.779488862421948,75.24364590770881,3.4176473052076806,0.1858004349813061,0.5115357210401776
511,6.7927819778384615,75.24364590770881,3.4145593356501336,0.18579692860410188,0.5114711385334455
512,6.806075093254975,75.24364590770881,3.410894063232841,0.18580530048829857,0.511498444885868
513,6.819368208671489,75.24364590770881,3.4069094404390454,0.18582332818161298,0.5116193645849412
514,6.8326613240880025,75.24364590770881,3.4028666256054496,0.18584808315215331,0.5118326598570094
515,6.845954439504516,75.24364590770881,3.399009385162511,0.18587628049978547,0.5121326800203343
516,6.85924755492103,75.24364590770881,3.395546226775631,0.1859046146154179,0.5125084303455156
517,6.872540670337544,75.24364590770881,3.392636799930902,0.1859300554695022,0.5129433381499796
518,6.885833785754057,75.24364590770881,3.3903835967066334,0.18595009506039317,0.5134158641298829
519,6.899126901170571,75.24364590770881,3.388829392675096,0.18596293780249443,0.5139009676297351
520,6.912420016587085,75.24364590770881,3.3879602494523833,0.18596763167583266,0.5143722117781608
521,6.925713132003597,75.24364590770881,3.3877133253177427,0.18596413903411213,0.5148041684103611
522,6.939006247420111,75.24364590770881,3.38798827794121,0.18595334428193128,0.5151747707414307
523,6.952299362836625,75.24364590770881,3.388660749913603,0.18593699262534827,0.5154673021585924
524,6.965592478253138,75.24364590770881,3.389596336324718,0.18591755330049722,0.5156717850251114
525,6.978885593669652,75.24364590770881,3.390663546437539,0.1858980043759722,0.5157856328780213
526,6.992178709086166,75.24364590770881,3.3917445595532265,0.1858815450755027,0.5158135350180769
527,7.00547182450268,75.24364590770881,3.39274298375995,0.18587125426021553,0.5157666390103773
528,7.018764939919193,75.24364590770881,3.3935882858994195,0.1858697273210698,0.5156611723603881
529,7.032058055335707,75.24364590770881,3.3942370007438623,0.18587873458906187,0.5155166929758895
530,7.0453511707522205,75.24364590770881,3.3946711870276673,0.1858989491295374,0.515354177355532
531,7.058644286168734,75.24364590770881,3.394894837642457,0.1859297883669635,0.5151941482506585
532,7.071937401585248,75.24364590770881,3.3949290551555102,0.18596940209844684,0.51505501483933
533,7.0852305170017615,75.24364590770881,3.3948067792636643,0.18601482062731908,0.5149517542307686
534,7.098523632418275,75.24364590770881,3.3945677256323683,0.1860622539398923,0.5148950095978819
535,7.111816747834789,75.24364590770881,3.3942540027947987,0.18610750981439692,0.5148906239952429
536,7.125109863251303,75.24364590770881,3.393906655937793,0.18614647935839304,0.5149395774043969
537,7.138402978667815,75.24364590770881,3.3935631807647932,0.18617562604329127,0.5150382558980228
538,7.151696094084329,75.24364590770881,3.393255886242424,0.18619241114398408,0.515178963346993
539,7.164989209500843,75.24364590770881,3.3930108799152348,0.18619559519552684,0.5153505916835145
540,7.178282324917356,75.24364590770881,3.39284740998978,0.18618537108562397,0.5155393932586624
541,7.19157544033387,75.24364590770881,3.3927773205565925,0.18616330996454125,0.5157298391771287
542,7.204868555750384,75.24364590770881,3.3928044483314785,0.18613213215519508,0.5159055860451951
543,7.218161671166897,75.24364590770881,3.3929238945958735,0.186095340006408,0.516050594133481
544,7.231454786583411,75.24364590770881,3.393121226085062,0.1860567641335631,0.51615042992846
545,7.244747901999925,75.24364590770881,3.393371774942494,0.18602008538898876,0.5161937411319396
546,7.2580410174164385,75.24364590770881,3.3936403032098292,0.18598840064917285,0.516173818976427
547,7.271334132832952,75.24364590770881,3.3938813560593615,0.18596389412722134,0.5160900782020335
548,7.284627248249466,75.24364590770881,3.3940406368211367,0.1859476584845276,0.5159492127005297
549,7.2979203636659795,75.24364590770881,3.3940576859421996,0.18593968419420046,0.5157657488132721
550,7.311213479082493,75.24364590770881,3.3938700305927423,0.18593900578831674,0.5155617369579273
551,7.324506594499007,75.24364590770881,3.3934187942960627,0.18594397153637854,0.5153654032743136
552,7.33779970991552,75.24364590770881,3.392655528756525,0.1859525917322232,0.5152087207155074
553,7.351092825332033,75.24364590770881,3.391549776698915,0.1859629112440684,0.5151240349761916
554,7.364385940748547,75.24364590770881,3.3900966292773096,0.18597334529060877,0.5151400661582852
555,7.377679056165061,75.24364590770881,3.3883233547507374,0.18598292220095497,0.5152777676409471
556,7.390972171581574,75.24364590770881,3.3862940873433818,0.18599139420936245,0.515546624640726
557,7.404265286998088,75.24364590770881,3.3841115473075125,0.18599920183454635,0.5159419883174601
558,7.417558402414602,75.24364590770881,3.381914852020202,0.1860073017930473,0.5164439520086171
559,7.430851517831115,75.24364590770881,3.3798728678516445,0.18601688925854695,0.5170180880847068
560,7.444144633247629,75.24364590770881,3.378173206991491,0.1860290638694035,0.5176180995960337
561,7.457437748664143,75.24364590770881,3.377007568496062,0.1860445017610319,0.5181901441321062
562,7.470730864080656,75.24364590770881,3.3765545725408983,0.1860631967414756,0.5186783290298863
563,7.48402397949717,75.24364590770881,3.3769616498099073,0.18608432168193081,0.5190307050796128
564,7.497317094913684,75.24364590770881,3.3783278602864804,0.18610623926765119,0.519204986744809
565,7.510610210330197,75.24364590770881,3.380689605543734,0.18612666407937487,0.5191732197533927
566,7.523903325746711,75.24364590770881,3.3840110397068583,0.18614295262960792,0.518924765542911
567,7.537196441163225,75.24364590770881,3.388180595041835,0.18615247837770124,0.5184672493886074
568,7.550489556579738,75.24364590770881,3.393014457512538,0.18615303271208422,0.5178254289814834
569,7.563782671996251,75.24364590770881,3.398267116543999,0.18614318373129193,0.5170382286195445
570,7.577075787412765,75.24364590770881,3.403648347069053,0.18612253143943266,0.5161544215175723
571,7.590368902829279,75.24364590770881,3.4088452454833638,0.1860918188898329,0.5152275936938173
572,7.603662018245792,75.24364590770881,3.4135473210065674,0.18605288401727235,0.5143110662497341
573,7.616955133662306,75.24364590770881,3.417472220094753,0.18600846169867946,0.5134533896458063
574,7.63024824907882,75.24364590770881,3.4203894878369163,0.1859618678957538,0.5126948736799125
575,7.643541364495333,75.24364590770881,3.4221398757871295,0.18591661408786317,0.5120654142534559
576,7.656834479911847,75.24364590770881,3.4226479950032025,0.18587600800203724,0.5115836627353623
577,7.670127595328361,75.24364590770881,3.421926598383283,0.18584279514569352,0.511257393550345
578,7.683420710744874,75.24364590770881,3.4200721854836695,0.18581888574348043,0.511084788759252
579,7.696713826161388,75.24364590770881,3.417253715359366,0.1858051957296134,0.5110562903270301
580,7.710006941577902,75.24364590770881,3.4136966251515934,0.18580161176806106,0.5111566722449346
581,7.723300056994415,75.24364590770881,3.409663064224609,0.1858070725224874,0.5113670538130927
582,7.736593172410929,75.24364590770881,3.4054292715753363,0.18581974465092582,0.5116666870282753
583,7.749886287827443,75.24364590770881,3.401262385609212,0.18583726367558734,0.5120343974686209
584,7.763179403243956,75.24364590770881,3.3973994206838163,0.18585700736267324,0.5124495324947671
585,7.776472518660469,75.24364590770881,3.3940305651077547,0.18587637264903908,0.5128923939549443
586,7.789765634076983,75.24364590770881,3.3912882163554983,0.18589303408790436,0.5133443850526015
587,7.803058749493497,75.24364590770881,3.3892424091897526,0.18590516782280578,0.5137881525233687
588,7.81635186491001,75.24364590770881,3.3879025157395772,0.1859116283480859,0.5142078507466834
589,7.829644980326524,75.24364590770881,3.3872243978627887,0.18591206664051135,0.514589542255434
590,7.842938095743038,75.24364590770881,3.3871216508539943,0.18590697864694,0.5149217080711942
591,7.856231211159551,75.24364590770881,3.3874792568996246,0.18589767398864768,0.515195801103183
592,7.869524326576065,75.24364590770881,3.3881678939926103,0.1858861581062581,0.5154067430263727
593,7.882817441992579,75.24364590770881,3.389057308688076,0.18587492826268273,0.5155532563785755
594,7.896110557409092,75.24364590770881,3.3900275097904142,0.18586669472617728,0.5156379401310366
595,7.909403672825606,75.24364590770881,3.3909770004521103,0.18586405139783962,0.5156670342730726
596,7.92269678824212,75.24364590770881,3.39182775479537,0.18586913228859184,0.5156498677486651
597,7.935989903658633,75.24364590770881,3.392527085587474,0.1858832983895437,0.5155980336735942
598,7.949283019075147,75.24364590770881,3.393046884677897,0.18590690098137624,0.5155243762503858
599,7.962576134491661,75.24364590770881,3.3933809170192712,0.18593916098329705,0.5154418979424849
600,7.9758692499081745,75.24364590770881,3.393540908517727,0.18597818994733117,0.5153626998152273
601,7.989162365324687,75.24364590770881,3.3935521075022215,0.18602115879374762,0.5152970533761391
602,8.002455480741201,75.24364590770881,3.393448855543798,0.1860645985773746,0.5152526737784023
603,8.015748596157716,75.24364590770881,3.393270519714729,0.18610479718658354,0.515234229980381
604,8.029041711574228,75.24364590770881,3.393057957835929,0.18613824038743856,0.515243096518942
605,8.042334826990743,75.24364590770881,3.3928505441980095,0.18616203756842492,0.5152773315713772
606,8.055627942407256,75.24364590770881,3.392683694417085,0.18617427320962676,0.515331860693267
607,8.06892105782377,75.24364590770881,3.3925867971436476,0.18617423343986328,0.5153988536178832
608,8.082214173240283,75.24364590770881,3.392581476353285,0.1861624721333544,0.5154682965387166
609,8.095507288656796,75.24364590770881,3.3926801519879355,0.18614070850283596,0.5155287751180311
610,8.10880040407331,75.24364590770881,3.3928849185021437,0.1861115833856622,0.5155684845511362
611,8.122093519489823,75.24364590770881,3.3931868043114317,0.18607831787852974,0.5155764653865356
612,8.135386634906338,75.24364590770881,3.3935655013507176,0.18604431343855754,0.5155440251956471
613,8.14867975032285,75.24364590770881,3.3939896613450933,0.1860127364557047,0.5154662502513836
614,8.161972865739365,75.24364590770881,3.39441784753932,0.1859861425213705,0.5153434477483059
615,8.175265981155878,75.24364590770881,3.3948002129834634,0.18596619354717822,0.515182302328401
616,8.188559096572392,75.24364590770881,3.395080953161236,0.1859535047751573,0.5149964979547045
617,8.201852211988905,75.24364590770881,3.3952015522675336,0.1859476394064211,0.514806563882622
618,8.21514532740542,75.24364590770881,3.395104804806496,0.185947249170203,0.5146387629334108
619,8.228438442821933,75.24364590770881,3.394739539852274,0.1859503396952596,0.5145229535065452
620,8.241731558238447,75.24364590770881,3.3940658961004204,0.18595462198298815,0.5144895135946689
621,8.25502467365496,75.24364590770881,3.3930608871041166,0.1859579006808859,0.5145655927226455
622,8.268317789071475,75.24364590770881,3.3917238631009523,0.18595844697351566,0.5147711237991075
623,8.281610904487987,75.24364590770881,3.3900813353129666,0.1859553039090881,0.5151151452527332
624,8.294904019904502,75.24364590770881,3.3881905263532133,0.1859484755869674,0.5155930226300052
625,8.308197135321015,75.24364590770881,3.386140975404863,0.18593896391596326,0.5161850980988394
626,8.321490250737527,75.24364590770881,3.3840534538331384,0.18592863745854382,0.5168571340148692
627,8.334783366154042,75.24364590770881,3.382075392598255,0.18591994246025853,0.5175626697479352
628,8.348076481570555,75.24364590770881,3.3803724066128664,0.18591549302714316,0.5182471156858257
629,8.36136959698707,75.24364590770881,3.3791162882238464,0.18591760170156998,0.5188530978211952
630,8.374662712403582,75.24364590770881,3.378470420271792,0.18592782816316442,0.5193263041597715
631,8.387955827820097,75.24364590770881,3.3785738366165354,0.1859466247461164,0.5196210641234705
632,8.40124894323661,75.24364590770881,3.3795254555185337,0.1859731413950924,0.519705116886664
633,8.414542058653124,75.24364590770881,3.3813702726144474,0.18600523013539938,0.5195630842676394
634,8.427835174069637,75.24364590770881,3.384089321256491,0.18603966343802747,0.5191980506438857
635,8.441128289486151,75.24364590770881,3.3875949556250475,0.18607254463056114,0.5186308877881405
636,8.454421404902664,75.24364590770881,3.3917325187214904,0.18609984804592425,0.5178975051208845
637,8.467714520319179,75.24364590770881,3.396288775975692,0.18611799873576373,0.5170445857400036
638,8.481007635735692,75.24364590770881,3.401006708602522,0.18612439610770057,0.5161245149068383
639,8.494300751152206,75.24364590770881,3.4056054696597378,0.18611780047957252,0.515190242298997
640,8.507593866568719,75.24364590770881,3.409803617166436,0.18609852256704826,0.5142907497328876
641,8.520886981985232,75.24364590770881,3.4133432523919676,0.18606838002791476,0.5134676251548683
642,8.534180097401746,75.24364590770881,3.4160124771274716,0.18603042292163247,0.5127530081375316
643,8.54747321281826,75.24364590770881,3.4176636783539958,0.18598847469855787,0.512168917672011
644,8.560766328234774,75.24364590770881,3.418225463667321,0.185946568205979,0.5117277476777391
645,8.574059443651286,75.24364590770881,3.417706604011348,0.18590837134035595,0.5114335588849692
646,8.587352559067801,75.24364590770881,3.416191733043357,0.1858766961048655,0.5112837314239911
647,8.600645674484314,75.24364590770881,3.4138305586707745,0.18585316846954955,0.5112705745736636
648,8.613938789900828,75.24364590770881,3.4108227816004932,0.1858381071240466,0.5113826025520245
649,8.627231905317341,75.24364590770881,3.4073997533849356,0.18583062226451247,0.5116053471086782
650,8.640525020733856,75.24364590770881,3.403803880443418,0.18582890759344928,0.511921747690252
651,8.653818136150369,75.24364590770881,3.4002679363770456,0.18583066648932672,0.5123122872928895
652,8.667111251566883,75.24364590770881,3.396996744790153,0.18583359234633337,0.5127550994926104
653,8.680404366983396,75.24364590770881,3.394153067302464,0.18583581690080797,0.513226278602084
654,8.69369748239991,75.24364590770881,3.391848790797301,0.18583624978647414,0.5137005849281486
655,8.706990597816423,75.24364590770881,3.390141794708838,0.18583475505150016,0.5141526283711666
656,8.720283713232938,75.24364590770881,3.38903819868745,0.18583214122707156,0.5145584652775659
657,8.73357682864945,75.24364590770881,3.388499118573112,0.18582997516041322,0.5148974187917635
658,8.746869944065963,75.24364590770881,3.3884506485579613,0.18583025872482495,0.515153859297123
659,8.760163059482478,75.24364590770881,3.3887955779816132,0.18583502675965596,0.5153186620552875
660,8.77345617489899,75.24364590770881,3.389425352147625,0.18584593589904475,0.5153900950594096
661,8.786749290315505,75.24364590770881,3.39023097814303,0.18586391616450432,0.5153739732378855
662,8.800042405732018,75.24364590770881,3.3911119125502442,0.18588894452141638,0.5152830277006691
663,8.813335521148533,75.24364590770881,3.391982383625333,0.18591997479377526,0.5151355587370906
664,8.826628636565045,75.24364590770881,3.392775024815564,0.1859550306170368,0.5149535467291456
665,8.83992175198156,75.24364590770881,3.393442063985369,0.1859914423491892,0.5147604679480268
666,8.853214867398073,75.24364590770881,3.3939545743550306,0.18602618741343524,0.5145790911469343
667,8.866507982814587,75.24364590770881,3.394300423190718,0.18605627943765143,0.5144295133476469
668,8.8798010982311,75.24364590770881,3.394481552588281,0.18607914672350667,0.5143276354749222
669,8.893094213647615,75.24364590770881,3.3945111162839416,0.1860929451785319,0.514284194196424
670,8.906387329064128,75.24364590770881,3.394410817012117,0.1860967636213648,0.5143043736438734
671,8.919680444480642,75.24364590770881,3.3942085879313346,0.18609069748699764,0.5143879382244284
672,8.932973559897155,75.24364590770881,3.3939365845342917,0.18607578743033656,0.514529770251143
673,8.946266675313668,75.24364590770881,3.3936293353536757,0.1860538421551908,0.5147206713092038
674,8.959559790730182,75.24364590770881,3.3933218596177803,0.18602718596844145,0.5149482935291065
675,8.972852906146695,75.24364590770881,3.393047598252067,0.1859983784347467,0.5151980986140038
676,8.98614602156321,75.24364590770881,3.3928361044789006,0.18596994517140072,0.5154542869132909
677,8.999439136979722,75.24364590770881,3.3927105721763837,0.1859441494210051,0.51570068383941
678,9.012732252396235,75.24364590770881,3.3926854086465505,0.1859228260656549,0.5159216062250865
679,9.02602536781275,75.24364590770881,3.3927641501773107,0.18590728656706554,0.5161027494742935
680,9.039318483229264,75.24364590770881,3.3929380501670443,0.1858982881463581,0.5162321331151595
681,9.052611598645775,75.24364590770881,3.3931856321212694,0.18589605022819944,0.5163011160461876
682,9.065904714062292,75.24364590770881,3.393473401745468,0.18590029789620138,0.516305445501795
683,9.079197829478804,75.24364590770881,3.3937577758384876,0.185910315442862,0.5162462427559512
684,9.09249094489532,75.24364590770881,3.3939881404674814,0.18592500123751202,0.5161307669356254
685,9.105784060311832,75.24364590770881,3.3941108259404738,0.18594292500387213,0.5159727538927815
686,9.119077175728346,75.24364590770881,3.3940737018075753,0.1859623967823867,0.5157921188061371
687,9.13237029114486,75.24364590770881,3.3938310584522866,0.18598156051844594,0.515613853437897
688,9.145663406561374,75.24364590770881,3.3933484453652523,0.18599852287530955,0.5154660459488659
689,9.158956521977888,75.24364590770881,3.3926071622709797,0.18601151975439026,0.5153770933229875
690,9.1722496373944,75.24364590770881,3.3916081259602886,0.18601911096200613,0.5153723405634861
691,9.185542752810914,75.24364590770881,3.39037485175841,0.18602038056787376,0.5154705341068868
692,9.198835868227428,75.24364590770881,3.388955283951961,0.18601511057733472,0.5156805839570561
693,9.21212898364394,75.24364590770881,3.387422135603415,0.18600389162375242,0.5159991601100555
694,9.225422099060454,75.24364590770881,3.3858712908680757,0.18598813752496154,0.5164095862956619
695,9.238715214476969,75.24364590770881,3.3844178817761965,0.18596998117257812,0.516882338555464
696,9.25200832989348,75.24364590770881,3.383189904738683,0.185952047261906,0.517377218151623
697,9.265301445309996,75.24364590770881,3.3823194855938716,0.1859371198794129,0.5178469898420871
698,9.278594560726509,75.24364590770881,3.3819321261259416,0.18592774494979,0.5182420884858047
699,9.291887676143023,75.24364590770881,3.3821346002244472,0.18592582453852763,0.5185159309309854
700,9.305180791559536,75.24364590770881,3.38300256280215,0.18593226893091983,0.5186302256961216
701,9.31847390697605,75.24364590770881,3.384569251306512,0.18594677058273526,0.5185594790573227
702,9.331767022392564,75.24364590770881,3.386816813504962,0.18596774710399777,0.5182939774309602
703,9.345060137809078,75.24364590770881,3.3896717295258343,0.18599247085126633,0.5178408693860667
704,9.35835325322559,75.24364590770881,3.393005481774539,0.18601737510997912,0.517223300565221
705,9.371646368642104,75.24364590770881,3.3966410790730865,0.18603850557625348,0.5164778099599087
706,9.384939484058618,75.24364590770881,3.4003653228086277,0.18605206128987603,0.5156504149485673
707,9.398232599475133,75.24364590770881,3.4039459135190273,0.18605494739482387,0.5147919634209763
708,9.411525714891646,75.24364590770881,3.4071517592462253,0.18604525692233603,0.5139533823715517
709,9.424818830308158,75.24364590770881,3.409774286626902,0.18602260693568506,0.5131814003788071
710,9.438111945724671,75.24364590770881,3.4116472709604375,0.18598827123176992,0.5125151823850812
711,9.451405061141186,75.24364590770881,3.412662752230019,0.18594508123107706,0.5119841218539436
712,9.4646981765577,75.24364590770881,3.4127809515545775,0.18589710462182332,0.5116068292048406
713,9.477991291974211,75.24364590770881,3.4120327247114153,0.18584914682586692,0.5113911775619785
714,9.491284407390728,75.24364590770881,3.410514293002132,0.18580614747823943,0.5113351500100844
715,9.50457752280724,75.24364590770881,3.40837556988401,0.18577256004684453,0.5114281927070645
716,9.517870638223757,75.24364590770881,3.405804064195197,0.18575180616954035,0.5116528229922747
717,9.531163753640268,75.24364590770881,3.4030059952882117,0.18574588612261134,0.5119863441271678
718,9.544456869056782,75.24364590770881,3.4001863705174666,0.18575519410735744,0.5124025505280195
719,9.557749984473295,75.24364590770881,3.39753035479003,0.18577853831181101,0.5128732536868565
720,9.57104309988981,75.24364590770881,3.395188187209345,0.18581333871414116,0.5133695660995278
721,9.584336215306324,75.24364590770881,3.393265179071295,0.18585597483905764,0.5138631260542215
722,9.597629330722835,75.24364590770881,3.391817483785291,0.18590224179997414,0.5143274600919918
723,9.61092244613935,75.24364590770881,3.390853519114483,0.18594784724571398,0.5147394677754603
724,9.624215561555864,75.24364590770881,3.390340217677014,0.1859888764593276,0.515080870151574
725,9.637508676972375,75.24364590770881,3.3902127712297814,0.18602216793291412,0.5153394296628836
726,9.65080179238889,75.24364590770881,3.390386264678607,0.18604556258363447,0.5155097466576518
727,9.664094907805405,75.24364590770881,3.3907675756567213,0.18605801165603078,0.5155934683768117
728,9.677388023221916,75.24364590770881,3.391266115389914,0.18605954900650049,0.515598818712985
729,9.690681138638432,75.24364590770881,3.3918023486310367,0.18605115115597218,0.5155394580367332
730,9.703974254054945,75.24364590770881,3.3923134808961763,0.18603452117103225,0.515432791788195
731,9.71726736947146,75.24364590770881,3.3927561634958505,0.18601183597222337,0.5152979406682553
732,9.730560484887972,75.24364590770881,3.3931064733828715,0.1859854915205529,0.5151536436510139
733,9.743853600304488,75.24364590770881,3.3933577260747425,0.18595787237593142,0.5150163751854392
734,9.757146715721,75.24364590770881,3.393516849434335,0.18593116362618012,0.5148989181756125
735,9.770439831137514,75.24364590770881,3.393600081619217,0.18590721334152832,0.5148095536604027
736,9.783732946554029,75.24364590770881,3.393628676915582,0.18588744457556106,0.514751923534259
737,9.79702606197054,75.24364590770881,3.3936251424194044,0.18587281019179483,0.5147255146183158
738,9.810319177387054,75.24364590770881,3.393610327779632,0.18586378209819263,0.5147266201628206
739,9.823612292803569,75.24364590770881,3.393601489732798,0.18586036796295302,0.5147495729344296
740,9.836905408220082,75.24364590770881,3.393611285439222,0.18586215053635619,0.5147880203444246
741,9.850198523636594,75.24364590770881,3.393647533962962,0.18586834584526105,0.5148360277442791
742,9.863491639053109,75.24364590770881,3.3937135301435553,0.1858778787668841,0.5148888461154347
743,9.876784754469622,75.24364590770881,3.393808693631133,0.18588947699949904,0.5149432549917752
744,9.890077869886136,75.24364590770881,3.393929373023118,0.185901782701564,0.5149974770254535
745,9.903370985302647,75.24364590770881,3.3940696814912266,0.18591347573922518,0.5150507417972765
746,9.916664100719164,75.24364590770881,3.394222297001022,0.1859233981010238,0.5151026386672375
747,9.929957216135676,75.24364590770881,3.394379202418752,0.18593066691868967,0.5151524307040998
748,9.943250331552193,75.24364590770881,3.3945323604069952,0.18593476320459354,0.5151984992806267
749,9.956543446968704,75.24364590770881,3.3946743145148717,0.18593558502895063,0.5152380544249231
750,9.969836562385218,75.24364590770881,3.3947986875321083,0.1859334572999157,0.5152671887186198
751,9.983129677801733,75.24364590770881,3.394900521960654,0.18592909500086835,0.5152812855872926
752,9.996422793218246,75.24364590770881,3.394976388098307,0.185923521971752,0.5152757296828219
753,10.009715908634758,75.24364590770881,3.3950241840594355,0.18591795239171052,0.5152468181336036
754,10.023009024051271,75.24364590770881,3.3950425762256655,0.18591364643831282,0.515192742219652
755,10.036302139467786,75.24364590770881,3.395030079263883,0.18591175473111998,0.5151144999502755
756,10.0495952548843,75.24364590770881,3.39498384660231,0.18591316785888606,0.5150166078238301
757,10.062888370300811,75.24364590770881,3.394898324119458,0.185918387467647,0.5149074997902088
758,10.076181485717326,75.24364590770881,3.394763997113023,0.18592743413525326,0.514799528341611
759,10.08947460113384,75.24364590770881,3.3945665175513327,0.185939804741726,0.5147085133414476
760,10.102767716550352,75.24364590770881,3.394286520583079,0.18595448840138323,0.514652817203407
761,10.116060831966868,75.24364590770881,3.3939004147997185,0.1859700452744766,0.5146519607616412
762,10.12935394738338,75.24364590770881,3.393382352731028,0.18598474665255443,0.5147248343142017
763,10.142647062799895,75.24364590770881,3.3927074549703984,0.18599676757662983,0.5148876046348015
764,10.155940178216408,75.24364590770881,3.3918561790425765,0.18600441521526948,0.5151514712889015
765,10.169233293632924,75.24364590770881,3.3908195074201513,0.1860063677889036,0.5155204807648264
766,10.182526409049435,75.24364590770881,3.3896044072495504,0.1860018917055815,0.515989656189639
767,10.19581952446595,75.24364590770881,3.3882388215166754,0.1859910041485404,0.5165437305420756
768,10.209112639882465,75.24364590770881,3.3867752983038564,0.18597455566476329,0.5171567667905147
769,10.222405755298976,75.24364590770881,3.3852923015812393,0.18595421328666323,0.5177928959663425
770,10.23569887071549,75.24364590770881,3.3838924008351867,0.18593232940171736,0.5184082966549304
771,10.248991986132005,75.24364590770881,3.3826969160669984,0.18591169688463716,0.5189543829752663
772,10.262285101548516,75.24364590770881,3.3818370524368504,0.185895214508614,0.5193819919981739
773,10.27557821696503,75.24364590770881,3.381442039631444,0.18588550510722635,0.519646193813386
774,10.288871332381545,75.24364590770881,3.381625308892171,0.18588453890973775,0.5197111943894903
775,10.302164447798058,75.24364590770881,3.382470207614955,0.18589331717700439,0.5195546977183035
776,10.315457563214572,75.24364590770881,3.3840170437807933,0.18591166409111826,0.5191711031232201
777,10.328750678631083,75.24364590770881,3.386253299030017,0.18593815849248757,0.5185730437248972
778,10.3420437940476,75.24364590770881,3.3891086209552417,0.18597021933704566,0.5177909806375032
779,10.355336909464112,75.24364590770881,3.3924557137616813,0.18600434222266798,0.5168708222637707
780,10.368630024880629,75.24364590770881,3.3961175482148445,0.18603646334601506,0.5158698075508195
781,10.38192314029714,75.24364590770881,3.399880500155034,0.18606240501318175,0.5148511319260134
782,10.395216255713654,75.24364590770881,3.4035122189756786,0.18607834819542857,0.513877964529953
783,10.408509371130169,75.24364590770881,3.4067823456743893,0.18608128345816205,0.5130075792600489
784,10.421802486546682,75.24364590770881,3.4094837522307837,0.18606939213922002,0.5122862910875347
785,10.435095601963194,75.24364590770881,3.411451828080159,0.1860423048043182,0.5117457617828124
786,10.448388717379707,75.24364590770881,3.4125795194696935,0.1860011971643159,0.5114010389318102
787,10.461681832796222,75.24364590770881,3.4128262345384663,0.1859487128516227,0.5112504520632168
788,10.474974948212736,75.24364590770881,3.412219330334001,0.18588872661729944,0.5112772469073827
789,10.48826806362925,75.24364590770881,3.41084823089033,0.18582597697602135,0.5114526285793392
790,10.501561179045762,75.24364590770881,3.4088530478605663,0.18576560895119268,0.5117397356016701
791,10.514854294462276,75.24364590770881,3.406409959528702,0.185712675264164,0.5120979970584839
792,10.52814740987879,75.24364590770881,3.403714518665011,0.1856716474872906,0.5124873421401729
793,10.541440525295304,75.24364590770881,3.400963918910363,0.1856459888872222,0.5128718237616394
794,10.554733640711817,75.24364590770881,3.3983401139342275,0.18563783740792,0.5132223392203866
795,10.568026756128331,75.24364590770881,3.395995792053221,0.18564783006870295,0.5135182563121254
796,10.581319871544844,75.24364590770881,3.3940445278853835,0.18567507097022884,0.5137479229810257
797,10.59461298696136,75.24364590770881,3.392555702954854,0.1857172341969426,0.5139082248958695
798,10.607906102377871,75.24364590770881,3.3915541498643775,0.1857708006578784,0.5140034473763202
799,10.621199217794386,75.24364590770881,3.3910239384806844,0.18583141642280532,0.5140436909772577
800,10.6344923332109,75.24364590770881,3.3909153416470796,0.18589433091520785,0.5140430624589367
801,10.647785448627411,75.24364590770881,3.3911538135020414,0.1859548580019279,0.5140178336213335
802,10.661078564043926,75.24364590770881,3.3916497841125763,0.18600880462519442,0.5139847194750216
803,10.67437167946044,75.24364590770881,3.3923081936299404,0.1860528196537065,0.5139593838649097
804,10.687664794876952,75.24364590770881,3.3930369148064554,0.18608462817586752,0.5139552429340796
805,10.700957910293466,75.24364590770881,3.393753494295585,0.18610313274729834,0.5139826047156241
806,10.71425102570998,75.24364590770881,3.394389932437353,0.1861083804755457,0.5140481543783388
807,10.727544141126494,75.24364590770881,3.3948954790507275,0.18610141123326432,0.5141547674678366
808,10.740837256543008,75.24364590770881,3.395237623073336,0.18608401888018358,0.514301608856371
809,10.75413037195952,75.24364590770881,3.3954015845556063,0.1860584715754304,0.5144844565298836
810,10.767423487376035,75.24364590770881,3.3953886785976457,0.1860272380897896,0.5146961807843268
811,10.780716602792548,75.24364590770881,3.3952139216311883,0.185992754241895,0.5149273128672243
812,10.794009718209065,75.24364590770881,3.3949032062981894,0.18595725088558326,0.5151666511922209
813,10.807302833625576,75.24364590770881,3.394490300297022,0.18592265471750402,0.5154018736775821
814,10.82059594904209,75.24364590770881,3.3940138453628883,0.1858905592753605,0.5156201461985318
815,10.833889064458605,75.24364590770881,3.3935144610473973,0.18586224887786645,0.5158087352060762
816,10.847182179875118,75.24364590770881,3.3930320055731507,0.18583874930635688,0.515955644555473
817,10.86047529529163,75.24364590770881,3.392603018049159,0.18582087752011972,0.5160503008866701
818,10.873768410708143,75.24364590770881,3.392258361677653,0.18580926794705674,0.5160843068699683
819,10.887061526124658,75.24364590770881,3.3920211001917906,0.18580436319031357,0.5160522653470734
820,10.90035464154117,75.24364590770881,3.3919046611860617,0.18580636939847156,0.5159526488284238
821,10.913647756957683,75.24364590770881,3.3919113624106783,0.185815186427868,0.5157886498608598
822,10.926940872374198,75.24364590770881,3.3920313955115553,0.18583032845568748,0.5155689047796574
823,10.940233987790712,75.24364590770881,3.392242374501562,0.1858508558393609,0.5153079466733533
824,10.953527103207223,75.24364590770881,3.392509563932402,0.1858753433222628,0.5150262249929282
825,10.96682021862374,75.24364590770881,3.3927869044521723,0.18590190651982344,0.5147495391965645
826,10.980113334040253,75.24364590770881,3.3930189486361235,0.1859282984920736,0.5145077772394011
827,10.993406449456767,75.24364590770881,3.393143801292161,0.18595207708630745,0.5143329252475772
828,11.00669956487328,75.24364590770881,3.3930971164297685,0.18597083291798558,0.5142564148050871
829,11.019992680289796,75.24364590770881,3.392817127867654,0.18598245676131342,0.5143059864769511
830,11.033285795706307,75.24364590770881,3.3922505757327466,0.18598541502574875,0.5145023566791388
831,11.046578911122822,75.24364590770881,3.3913592383241107,0.18597899497430043,0.5148560620412778
832,11.059872026539336,75.24364590770881,3.390126601722623,0.18596348043558303,0.5153649029564518
833,11.073165141955847,75.24364590770881,3.3885640239234074,0.18594022496268878,0.5160124001861476
834,11.086458257372362,75.24364590770881,3.3867156242626053,0.18591159925710565,0.5167676050342311
835,11.099751372788877,75.24364590770881,3.384661086779354,0.18588080247966593,0.5175864642313476
836,11.11304448820539,75.24364590770881,3.382515540633406,0.1858515459407977,0.5184147480215465
837,11.126337603621902,75.24364590770881,3.380425714235766,0.1858276398388478,0.5191923281442836
838,11.139630719038417,75.24364590770881,3.378561948237948,0.18581253249952884,0.5198583794058906
839,11.15292383445493,75.24364590770881,3.377106358176614,0.18580886336338256,0.5203569340461403
840,11.166216949871444,75.24364590770881,3.3762380029006143,0.1858180915214562,0.5206421707452724
841,11.179510065287957,75.24364590770881,3.376116256108658,0.1858402504303762,0.520682829106915
842,11.192803180704471,75.24364590770881,3.3768639107596883,0.18587386577534043,0.5204652052185508
843,11.206096296120984,75.24364590770881,3.378551816465782,0.18591605891080806,0.5199943624796091
844,11.2193894115375,75.24364590770881,3.381186901320405,0.18596283382480136,0.5192934534389068
845,11.232682526954012,75.24364590770881,3.3847052308863543,0.18600951471199706,0.5184012983903699
846,11.245975642370526,75.24364590770881,3.3889713273749327,0.18605127701678428,0.5173685678671264
847,11.25926875778704,75.24364590770881,3.393784349698647,0.1860837002477471,0.5162530638136406
848,11.272561873203554,75.24364590770881,3.3988909866737873,0.1861032656756953,0.515114673132552
849,11.285854988620066,75.24364590770881,3.4040041288739906,0.18610773564483332,0.5140105682074789
850,11.29914810403658,75.24364590770881,3.408825660341185,0.1860963813276601,0.5129911543034045
851,11.312441219453094,75.24364590770881,3.4130711500328967,0.18607004442388045,0.5120971255580811
852,11.325734334869606,75.24364590770881,3.416493909276339,0.18603102257895265,0.5113578115456033
853,11.33902745028612,75.24364590770881,3.418905863464747,0.18598278832673404,0.5107908045249716
854,11.352320565702634,75.24364590770881,3.4201929728291156,0.18592958424108144,0.5104026855570283
855,11.365613681119148,75.24364590770881,3.4203234304098644,0.18587595492159742,0.5101905437726757
856,11.37890679653566,75.24364590770881,3.419347531342458,0.18582627685133596,0.5101439249334081
857,11.392199911952176,75.24364590770881,3.4173894149076873,0.18578433965567293,0.5102468568436443
858,11.405493027368689,75.24364590770881,3.4146326149658446,0.18575301946781514,0.5104796699418561
859,11.418786142785205,75.24364590770881,3.411301805178179,0.18573406880461552,0.5108204429376147
860,11.432079258201716,75.24364590770881,3.4076422556761536,0.18572803064866006,0.5112460293309985
861,11.44537237361823,75.24364590770881,3.403898450145707,0.18573426996299733,0.5117327196217207
862,11.458665489034743,75.24364590770881,3.4002940839535545,0.18575110543110565,0.5122566493130478
863,11.471958604451258,75.24364590770881,3.3970157027999517,0.18577601848230177,0.5127941096314623
864,11.48525171986777,75.24364590770881,3.394201514200795,0.18580591524768503,0.5133219504207679
865,11.498544835284283,75.24364590770881,3.3919360766857185,0.18583741858997627,0.5138182222599347
866,11.511837950700798,75.24364590770881,3.390250792672486,0.1858671698371222,0.5142630980333167
867,11.52513106611731,75.24364590770881,3.3891294426061207,0.1858921218452786,0.5146400086066869
868,11.538424181533824,75.24364590770881,3.388517485404068,0.18590980588857234,0.5149368464338565
869,11.551717296950338,75.24364590770881,3.3883335640082675,0.18591855472929658,0.5151470367770837
870,11.565010412366853,75.24364590770881,3.3884816118980203,0.18591766383038927,0.5152702609489798
871,11.578303527783364,75.24364590770881,3.388862134011231,0.18590747331208599,0.5153126463928636
872,11.59159664319988,75.24364590770881,3.389381578564818,0.18588935648525678,0.5152863099954368
873,11.604889758616393,75.24364590770881,3.389959149798369,0.18586560738133864,0.5152082408269839
874,11.618182874032907,75.24364590770881,3.3905308564512673,0.1858392290077144,0.5150986175756009
875,11.63147598944942,75.24364590770881,3.3910509778182125,0.1858136353022908,0.5149787532987781
876,11.644769104865937,75.24364590770881,3.39149141034667,0.18579229154561205,0.5148689269274952
877,11.658062220282448,75.24364590770881,3.3918395107611112,0.18577832837318242,0.5147863843155975
878,11.671355335698962,75.24364590770881,3.3920950800178202,0.18577417311554315,0.5147437670614559
879,11.684648451115477,75.24364590770881,3.3922670599793188,0.18578124673141283,0.5147481595362432
880,11.69794156653199,75.24364590770881,3.3923703780574623,0.18579977023635022,0.5148008462063183
881,11.711234681948502,75.24364590770881,3.3924232140272075,0.18582871108289584,0.5148977603752043
882,11.724527797365017,75.24364590770881,3.392444812359406,0.18586588149487243,0.5150305016146269
883,11.73782091278153,75.24364590770881,3.3924538460305227,0.1859081800468376,0.5151877204340335
884,11.751114028198042,75.24364590770881,3.392467263259105,0.185951947198362,0.5153566285706269
885,11.764407143614555,75.24364590770881,3.392499513904608,0.18599338851545263,0.5155243983263645
886,11.77770025903107,75.24364590770881,3.3925620461474177,0.1860290089410592,0.5156792632523799
887,11.790993374447584,75.24364590770881,3.392662973029495,0.18605599947420987,0.5158112155104495
888,11.804286489864095,75.24364590770881,3.392806821832843,0.1860725235223368,0.515912295567481
889,11.817579605280612,75.24364590770881,3.39299429241044,0.18607786331539647,0.5159765661928908
890,11.830872720697124,75.24364590770881,3.393221964968212,0.1860724116353447,0.5159999334632615
891,11.84416583611364,75.24364590770881,3.393481918944528,0.186057526385656,0.5159800056646181
892,11.857458951530152,75.24364590770881,3.393761258501241,0.1860352825237366,0.5159161584722329
893,11.870752066946666,75.24364590770881,3.3940415895201466,0.18600815520009067,0.5158099045636876
894,11.88404518236318,75.24364590770881,3.394298555064081,0.18597867366559245,0.5156655616876518
895,11.897338297779694,75.24364590770881,3.394501601939329,0.1859490971520275,0.5154910970434899
896,11.910631413196208,75.24364590770881,3.394614206238754,0.18592116234975398,0.5152989232646399
897,11.92392452861272,75.24364590770881,3.39459481422878,0.1858959374465359,0.5151063569835403
898,11.937217644029234,75.24364590770881,3.39439874140324,0.18587379906936974,0.5149354441275384
899,11.950510759445748,75.24364590770881,3.393981205982075,0.18585452903538063,0.5148119169088842
900,11.96380387486226,75.24364590770881,3.393301549545631,0.18583750948945676,0.5147631741934574
901,11.977096990278774,75.24364590770881,3.392328521766787,0.1858219801628241,0.5148153543610129
902,11.990390105695289,75.24364590770881,3.391046293493825,0.18580731197952174,0.5149897696124921
903,12.0036832211118,75.24364590770881,3.38946063863309,0.18579324837764413,0.5152991547835303
904,12.016976336528316,75.24364590770881,3.3876045257326393,0.18578007008785055,0.5157443104747863
905,12.030269451944829,75.24364590770881,3.385542226683565,0.185768650462517,0.5163117537932808
906,12.043562567361343,75.24364590770881,3.383371022731293,0.18576038553167729,0.5169729085878736
907,12.056855682777856,75.24364590770881,3.381219692855518,0.18575700356455668,0.5176851724929926
908,12.07014879819437,75.24364590770881,3.379243220430424,0.1857602799369917,0.518394905283545
909,12.083441913610883,75.24364590770881,3.377613554175182,0.18577170073019308,0.5190420472780105
910,12.096735029027398,75.24364590770881,3.3765067696017006,0.18579212948657123,0.5195658645978929
911,12.11002814444391,75.24364590770881,3.3760875153025083,0.1858215344359676,0.5199112660864049
912,12.123321259860424,75.24364590770881,3.3764921184252548,0.18585882730679687,0.5200349799595945
913,12.136614375276938,75.24364590770881,3.377812102337918,0.18590184910111912,0.5199106453355747
914,12.149907490693453,75.24364590770881,3.3800800679060616,0.1859475153516372,0.519531975188033
915,12.163200606109966,75.24364590770881,3.3832598513519314,0.18599210788719153,0.5189135677285113
916,12.176493721526478,75.24364590770881,3.3872425718287644,0.1860316762298994,0.5180893376906519
917,12.189786836942991,75.24364590770881,3.391849631004681,0.1860624923156515,0.5171088401514071
918,12.203079952359506,75.24364590770881,3.3968429732070904,0.18608149082264433,0.5160320260413775
919,12.21637306777602,75.24364590770881,3.401942044069108,0.18608663261961444,0.514923162925925
920,12.229666183192531,75.24364590770881,3.406846014234337,0.18607714956372765,0.5138447326658884
921,12.242959298609048,75.24364590770881,3.4112590915291934,0.18605364423598322,0.5128520669824358
922,12.25625241402556,75.24364590770881,3.4149162495032503,0.1860180257675429,0.5119893144684201
923,12.269545529442077,75.24364590770881,3.417606529957854,0.1859732848629126,0.5112870839938463
924,12.282838644858588,75.24364590770881,3.4191912629135417,0.18592314383882352,0.5107618304485813
925,12.296131760275102,75.24364590770881,3.41961497329135,0.18587163803618784,0.5104167926252416
926,12.309424875691615,75.24364590770881,3.4189073904879455,0.18582268971600358,0.5102441028083694
927,12.32271799110813,75.24364590770881,3.417176552756653,0.18577973075534546,0.5102275879029676
928,12.336011106524642,75.24364590770881,3.4145952258760226,0.1857454178659448,0.510345775714251
929,12.349304221941155,75.24364590770881,3.4113832991616717,0.18572146578197993,0.5105746976567218
930,12.36259733735767,75.24364590770881,3.407787448211902,0.18570860365927908,0.5108902113735087
931,12.375890452774184,75.24364590770881,3.4040592311848203,0.18570664197080056,0.5112696757902246
932,12.389183568190695,75.24364590770881,3.400433968182718,0.18571462429881763,0.5116928781617213
933,12.40247668360721,75.24364590770881,3.3971129676926375,0.18573102870915859,0.5121422513010268
934,12.415769799023725,75.24364590770881,3.394250844439963,0.18575397772978106,0.5126026112942783
935,12.429062914440236,75.24364590770881,3.3919487534154453,0.18578142350838306,0.513060702198105
936,12.442356029856752,75.24364590770881,3.390253528544883,0.18581129314961384,0.5135047519213893
937,12.455649145273265,75.24364590770881,3.3891619882051995,0.18584159219402904,0.5139241657016352
938,12.46894226068978,75.24364590770881,3.3886291439133633,0.18587046915482294,0.5143094310115388
939,12.482235376106292,75.24364590770881,3.3885787699535945,0.18589624952512626,0.5146522464793375
940,12.495528491522808,75.24364590770881,3.388914770601695,0.1859174532784281,0.514945827892089
941,12.50882160693932,75.24364590770881,3.389531984980991,0.18593281153024244,0.515185302983391
942,12.522114722355834,75.24364590770881,3.3903254316255804,0.18594129562045963,0.5153680899846186
943,12.535407837772349,75.24364590770881,3.3911974315376066,0.18594216644269185,0.5154941637721545
944,12.54870095318886,75.24364590770881,3.39206247512725,0.18593504439275188,0.5155661425403243
945,12.561994068605374,75.24364590770881,3.3928500449146943,0.18591999193518388,0.5155891676360828
946,12.575287184021889,75.24364590770881,3.393505827852704,0.18589759303435652,0.515570588209937
947,12.588580299438402,75.24364590770881,3.3939918342264255,0.18586900972339201,0.5155194909153753
948,12.601873414854914,75.24364590770881,3.3942858979931136,0.18583599692063976,0.5154461275123968
949,12.615166530271429,75.24364590770881,3.3943809008961163,0.18580085840011548,0.5153612899806578
950,12.628459645687942,75.24364590770881,3.3942838857538455,0.18576633028830347,0.5152756688670354
951,12.641752761104456,75.24364590770881,3.394015050076387,0.1857353893184651,0.5151992144065479
952,12.655045876520967,75.24364590770881,3.3936064790839278,0.1857109973796997,0.5151405098227418
953,12.668338991937484,75.24364590770881,3.3931004132207883,0.18569580492565987,0.515106167519499
954,12.681632107353996,75.24364590770881,3.392546858894427,0.18569184754257123,0.5151002721228297
955,12.694925222770513,75.24364590770881,3.3920004355803437,0.18570028122740992,0.5151239150250776
956,12.708218338187024,75.24364590770881,3.3915164869578627,0.18572120131875555,0.5151748854526526
957,12.721511453603538,75.24364590770881,3.391146638440747,0.18575357673843487,0.5152475948896815
958,12.734804569020053,75.24364590770881,3.3909341251568477,0.18579531361608154,0.515333308985859
959,12.748097684436566,75.24364590770881,3.3909093133939803,0.18584344364713137,0.5154207417427419
960,12.761390799853078,75.24364590770881,3.3910858747124935,0.18589441375893392,0.5154970324930208
961,12.774683915269591,75.24364590770881,3.391458039166721,0.18594443832634272,0.5155490811411373
962,12.787977030686106,75.24364590770881,3.3919992610627094,0.18598986648411833,0.515565166329675
963,12.80127014610262,75.24364590770881,3.392662498092618,0.18602751658678784,0.5155367193792029
964,12.814563261519131,75.24364590770881,3.393382159184607,0.18605493751878893,0.5154600784824347
965,12.827856376935646,75.24364590770881,3.3940776431451676,0.18607057070746022,0.5153380078032008
966,12.84114949235216,75.24364590770881,3.3946582861480175,0.1860738045068098,0.515180741650745
967,12.854442607768672,75.24364590770881,3.395029466361089,0.18606493019273695,0.5150063136280529
968,12.867735723185188,75.24364590770881,3.3950995715728314,0.18604502280857071,0.5148399642297514
969,12.8810288386017,75.24364590770881,3.394787505371584,0.18601578110409528,0.5147124952302317
970,12.894321954018215,75.24364590770881,3.394030371797599,0.18597936647809887,0.5146575566478
971,12.907615069434728,75.24364590770881,3.392790924512119,0.18593827122940326,0.5147080038541867
972,12.920908184851244,75.24364590770881,3.3910642915633,0.1858952238631439,0.5148916296171167
973,12.934201300267755,75.24364590770881,3.3888834022330765,0.18585312091822442,0.5152267310942202
974,12.94749441568427,75.24364590770881,3.3863224720393847,0.18581496559965222,0.5157180842509458
975,12.960787531100785,75.24364590770881,3.383497890687602,0.18578378764645417,0.5163539402378049
976,12.974080646517296,75.24364590770881,3.3805659327513964,0.18576251851326978,0.5171046115682674
977,12.98737376193381,75.24364590770881,3.377716790205465,0.18575380517471468,0.5179230743133899
978,13.000666877350325,75.24364590770881,3.375164542208705,0.18575976325222912,0.5187477847638788
979,13.013959992766836,75.24364590770881,3.373133131310376,0.1857816912054079,0.5195076076391864
980,13.02725310818335,75.24364590770881,3.371839162210876,0.18581978461908163,0.5201284193493441
981,13.040546223599865,75.24364590770881,3.371472899897453,0.18587289877838956,0.5205407209446009
982,13.053839339016378,75.24364590770881,3.3721791322564556,0.1859384120801894,0.5206875040640512
983,13.067132454432892,75.24364590770881,3.3740398041941355,0.18601224043300132,0.5205314467640189
984,13.080425569849403,75.24364590770881,3.3770604681814658,0.1860890348192086,0.5200603198255708
985,13.09371868526592,75.24364590770881,3.3811624639462874,0.18616256203303286,0.5192896279637685
986,13.107011800682432,75.24364590770881,3.3861823097412818,0.18622623415998163,0.5182619893140499
987,13.120304916098949,75.24364590770881,3.391879096514464,0.186273730739761,0.5170432651712819
988,13.13359803151546,75.24364590770881,3.3979497973305923,0.18629965037156854,0.5157159024249516
989,13.146891146931974,75.24364590770881,3.4040514511560063,0.18630011457814627,0.5143703524207711
990,13.160184262348489,75.24364590770881,3.4098282880181947,0.18627322994005296,0.5130957111832741
991,13.173477377765002,75.24364590770881,3.414941165190503,0.18621932989972398,0.511970823837218
992,13.186770493181514,75.24364590770881,3.419096289180154,0.18614096281722078,0.5110569941507654
993,13.200063608598027,75.24364590770881,3.4220701581294906,0.18604263618182973,0.5103931606459873
994,13.213356724014542,75.24364590770881,3.4237279779648544,0.1859303597035904,0.5099939993898893
995,13.226649839431056,75.24364590770881,3.424033320295947,0.18581105504122392,0.5098509651321931
996,13.23994295484757,75.24364590770881,3.4230474875149777,0.18569191339756014,0.5099358655177332
997,13.253236070264082,75.24364590770881,3.4209188728983198,0.1855797816440429,0.5102062445906979
998,13.266529185680596,75.24364590770881,3.4178652345321274,0.18548064452551716,0.5106116837540018
999,13.27982230109711,75.24364590770881,3.414152145601945,0.18539924856704498,0.511100123026307
1000,13.293115416513624,75.24364590770881,3.4100689333210505,0.18533888768470527,0.5116233854968674
1001,13.306408531930137,75.24364590770881,3.4059031540972198,0.18530134626146066,0.5121412282488647
1002,13.319701647346651,75.24364590770881,3.401916160106133,0.18528697835627767,0.5126235741614241
1003,13.332994762763164,75.24364590770881,3.3983226667088537,0.18529489330195753,0.5130510354268012
1004,13.34628787817968,75.24364590770881,3.3952763332563296,0.18532320413579112,0.513414117319034
1005,13.359580993596191,75.24364590770881,3.3928623937885725,0.1853692776600953,0.5137115462311013
1006,13.372874109012706,75.24364590770881,3.3910975097455434,0.1854299425528551,0.5139481681473694
1007,13.38616722442922,75.24364590770881,3.389936246720871,0.18550166020807898,0.514132832204455
1008,13.399460339845731,75.24364590770881,3.3892829711557533,0.18558068193918975,0.5142765697139575
1009,13.412753455262246,75.24364590770881,3.3890075514385956,0.1856632017528642,0.5143912334834759
1010,13.42604657067876,75.24364590770881,3.3889630408513067,0.18574550611552984,0.5144886188488369
1011,13.439339686095272,75.24364590770881,3.3890035016313185,0.1858241234638049,0.5145799748250415
1012,13.452632801511786,75.24364590770881,3.3890002696749986,0.18589597304698036,0.5146757476698886
1013,13.4659259169283,75.24364590770881,3.3888552221372232,0.18595850616742773,0.5147853832611374
1014,13.479219032344814,75.24364590770881,3.3885099615554277,0.18600982716890446,0.5149170424969338
1015,13.492512147761328,75.24364590770881,3.387950241500189,0.18604877879464873,0.5150771429299803
1016,13.50580526317784,75.24364590770881,3.387205405355176,0.18607497807479845,0.5152697152226225
1017,13.519098378594355,75.24364590770881,3.3863430669417323,0.18608879452651128,0.5154956401388957
1018,13.532391494010868,75.24364590770881,3.3854597010158787,0.18609127074957846,0.5157518975198306
1019,13.545684609427385,75.24364590770881,3.384668200162744,0.18608399428396385,0.5160310018837763
1020,13.558977724843896,75.24364590770881,3.3840837560497103,0.18606893659608614,0.5163208113191258
1021,13.57227084026041,75.24364590770881,3.3838096045785777,0.18604827862295112,0.5166048719732643
1022,13.585563955676925,75.24364590770881,3.383924206623254,0.1860242418380781,0.5168633991780351
1023,13.598857071093438,75.24364590770881,3.3844712829581223,0.18599893986229568,0.5170749036097513
1024,13.61215018650995,75.24364590770881,3.385453789596416,0.18597425963112144,0.5172183583470608
1025,13.625443301926463,75.24364590770881,3.386832488619847,0.1859517747849429,0.5172756877224708
1026,13.638736417342978,75.24364590770881,3.388529282672644,0.18593268882218586,0.5172342558688454
1027,13.65202953275949,75.24364590770881,3.390434923848959,0.18591780250619017,0.5170889660423019
1028,13.665322648176003,75.24364590770881,3.3924201517366166,0.18590749938029677,0.516843623752599
1029,13.678615763592518,75.24364590770881,3.3943488915297886,0.18590174574896398,0.5165113642962119
1030,13.691908879009032,75.24364590770881,3.396091915011993,0.18590010602462495,0.5161140343134974
1031,13.705201994425543,75.24364590770881,3.397539349442616,0.1859017765891685,0.5156804386556769
1032,13.71849510984206,75.24364590770881,3.398610613157405,0.18590564031749549,0.5152435141434893
1033,13.731788225258573,75.24364590770881,3.3992607331559777,0.1859103432859128,0.5148367482644892
1034,13.745081340675087,75.24364590770881,3.399482500146167,0.1859143948216193,0.5144903343479815
1035,13.7583744560916,75.24364590770881,3.3993044609968712,0.18591628910974795,0.5142276104719674
1036,13.771667571508114,75.24364590770881,3.398785258876951,0.18591464175466524,0.5140623079477111
1037,13.784960686924627,75.24364590770881,3.3980052654961135,0.18590833028746026,0.51399703746476
1038,13.798253802341142,75.24364590770881,3.3970567513335097,0.18589662475339674,0.5140232697895976
1039,13.811546917757656,75.24364590770881,3.3960339018897847,0.18587929371148673,0.5141228366309257
1040,13.82484003317417,75.24364590770881,3.3950238179209498,0.1858566723104704,0.514270723633013
1041,13.838133148590682,75.24364590770881,3.3940993779592077,0.18582968216768697,0.5144387246757096
1042,13.851426264007197,75.24364590770881,3.3933145445290553,0.18579979695334073,0.5145994103248476
1043,13.86471937942371,75.24364590770881,3.392702341792297,0.18576895231505752,0.5147298176878534
1044,13.878012494840222,75.24364590770881,3.3922753727597637,0.18573940372936645,0.5148143160500818
1045,13.891305610256737,75.24364590770881,3.3920284240813685,0.18571354094443937,0.5148462610229505
1046,13.90459872567325,75.24364590770881,3.3919424656274146,0.18569367279355897,0.5148282540899838
1047,13.917891841089764,75.24364590770881,3.391989290881722,0.18568180154179467,0.5147710261631104
1048,13.931184956506277,75.24364590770881,3.3921361537872747,0.1856794107086979,0.5146911753237137
1049,13.944478071922791,75.24364590770881,3.3923498934736065,0.18568728918457403,0.5146081783728709
1050,13.957771187339304,75.24364590770881,3.39260016633985,0.18570540736065022,0.5145411973061118
1051,13.97106430275582,75.24364590770881,3.39286158104486,0.18573285988815258,0.5145061876939376
1052,13.984357418172332,75.24364590770881,3.3931147287956147,0.1857678938807028,0.5145137086479417
1053,13.997650533588846,75.24364590770881,3.393346260156814,0.18580803396485301,0.5145676963930276
1054,14.01094364900536,75.24364590770881,3.393548261119804,0.1858502971036105,0.5146653210087717
1055,14.024236764421874,75.24364590770881,3.3937172225026018,0.18589147476166037,0.5147978727246967
1056,14.037529879838386,75.24364590770881,3.3938528816909317,0.18592845048878626,0.5149524483892887
1057,14.0508229952549,75.24364590770881,3.393957156732171,0.18595851480914113,0.5151140953672974
1058,14.064116110671414,75.24364590770881,3.394033307826191,0.18597963766865838,0.5152680339568058
1059,14.077409226087926,75.24364590770881,3.3940853706885763,0.18599066234503114,0.515401606303009
1060,14.09070234150444,75.24364590770881,3.394117829022561,0.18599139363016154,0.5155056784587352
1061,14.103995456920954,75.24364590770881,3.3941354433649265,0.1859825703863451,0.5155753374397057
1062,14.117288572337468,75.24364590770881,3.394143137287289,0.185965735176134,0.5156098622190828
1063,14.13058168775398,75.24364590770881,3.3941458574433607,0.18594302618797823,0.5156120815516984
1064,14.143874803170496,75.24364590770881,3.3941483622226496,0.18591691716530692,0.5155873193269587
1065,14.157167918587009,75.24364590770881,3.3941549414267067,0.18588993517661823,0.515542156621754
1066,14.170461034003525,75.24364590770881,3.3941691122913293,0.18586439341856362,0.5154832345615912
1067,14.183754149420036,75.24364590770881,3.3941933638167323,0.18584217418235796,0.515416289949412
1068,14.19704726483655,75.24364590770881,3.3942290251842557,0.18582458594220802,0.5153455481289494
1069,14.210340380253063,75.24364590770881,3.3942763143916412,0.18581230471475882,0.5152735115258031
1070,14.223633495669578,75.24364590770881,3.3943345850033713,0.18580539613886285,0.5152011035177443
1071,14.23692661108609,75.24364590770881,3.3944027410869757,0.18580340313514346,0.5151280698913026
1072,14.250219726502603,75.24364590770881,3.3944797441842223,0.1858054765582487,0.5150535105041818
1073,14.263512841919118,75.24364590770881,3.39456510266225,0.18581052398280162,0.5149764126401418
1074,14.27680595733563,75.24364590770881,3.394659222031744,0.18581735446822695,0.5148960805003122
1075,14.290099072752144,75.24364590770881,3.3947635084866508,0.18582480342068036,0.5148123947593571
1076,14.303392188168658,75.24364590770881,3.3948801570539624,0.18583182935372317,0.5147258830425824
1077,14.316685303585173,75.24364590770881,3.395011624496738,0.18583758122646651,0.5146376272503923
1078,14.329978419001684,75.24364590770881,3.3951598714309577,0.1858414395180218,0.5145490684381773
1079,14.3432715344182,75.24364590770881,3.395325512175802,0.18584303573565283,0.5144617880045751
1080,14.356564649834713,75.24364590770881,3.3955070217198022,0.18584225417391492,0.5143773420805137
1081,14.369857765251227,75.24364590770881,3.3957001496759758,0.18583921768935183,0.5142972050387001
1082,14.38315088066774,75.24364590770881,3.3958976800632135,0.18583425746004062,0.5142228443714478
1083,14.396443996084257,75.24364590770881,3.39608962781053,0.1858278662600176,0.5141559102238917
1084,14.409737111500768,75.24364590770881,3.3962638878689724,0.18582063613979996,0.514098475514191
1085,14.423030226917282,75.24364590770881,3.396407276548594,0.18581318429106863,0.5140532185465271
1086,14.436323342333797,75.24364590770881,3.396506842049142,0.1858060744443742,0.5140234427460485
1087,14.44961645775031,75.24364590770881,3.3965512812467913,0.1857997442904409,0.5140128788024259
1088,14.462909573166822,75.24364590770881,3.3965322874245882,0.18579445103445297,0.514025260453644
1089,14.476202688583337,75.24364590770881,3.396445667640119,0.1857902466586868,0.5140636977717014
1090,14.48949580399985,75.24364590770881,3.39629210278656,0.1857869913834216,0.5141299170996536
1091,14.502788919416362,75.24364590770881,3.39607746889913,0.18578440699758075,0.5142234852507499
1092,14.516082034832875,75.24364590770881,3.3958126847766255,0.18578216229149708,0.5143411640039989
1093,14.52937515024939,75.24364590770881,3.3955130899410015,0.18577997617457906,0.5144765423238438
1094,14.542668265665904,75.24364590770881,3.3951973833440565,0.18577772153223296,0.5146200688042736
1095,14.555961381082415,75.24364590770881,3.3948861668117654,0.18577551023367397,0.514759559891608
1096,14.569254496498932,75.24364590770881,3.39460014246886,0.18577373787521803,0.5148811981559932
1097,14.582547611915444,75.24364590770881,3.3943580181704562,0.1857730704697454,0.5149709678479009
1098,14.59584072733196,75.24364590770881,3.3941741882681344,0.1857743643919778,0.5150164100591101
1099,14.609133842748472,75.24364590770881,3.3940562863250205,0.1857785229326762,0.515008523541718
1100,14.622426958164986,75.24364590770881,3.3940027551870444,0.1857863059010929,0.5149435952318661
1101,14.6357200735815,75.24364590770881,3.394000645866425,0.18579812070344656,0.5148247220250634
1102,14.649013188998014,75.24364590770881,3.394023931046443,0.18581383179796218,0.5146627871297879
1103,14.662306304414528,75.24364590770881,3.394032686168835,0.1858326283253576,0.5144766836781848
1104,14.67559941983104,75.24364590770881,3.393973530405314,0.18585298575406997,0.5142926357159502
1105,14.688892535247554,75.24364590770881,3.3937817085291773,0.18587274638074291,0.5141425492892002
1106,14.702185650664068,75.24364590770881,3.393385112082787,0.1858893265320229,0.5140614280535889
1107,14.71547876608058,75.24364590770881,3.3927103709699695,0.1859000375241143,0.5140840004699624
1108,14.728771881497094,75.24364590770881,3.391690894192275,0.18590248592228234,0.5142408195436088
1109,14.742064996913609,75.24364590770881,3.3902764177214566,0.1858949999902528,0.5145541997997278
1110,14.75535811233012,75.24364590770881,3.3884432645677833,0.18587701659587522,0.5150344359506025
1111,14.768651227746636,75.24364590770881,3.3862041921343753,0.18584935938816236,0.5156767874918796
1112,14.781944343163149,75.24364590770881,3.383616460915859,0.1858143499005553,0.5164596972146424
1113,14.795237458579663,75.24364590770881,3.3807866881989312,0.18577571762717135,0.5173446277693662
1114,14.808530573996176,75.24364590770881,3.377871194824635,0.1857383011461714,0.5182777455067713
1115,14.82182368941269,75.24364590770881,3.375070803063961,0.18570755660472693,0.5191934656965099
1116,14.835116804829203,75.24364590770881,3.3726194125569116,0.1856889204374829,0.5200196054344589
1117,14.848409920245718,75.24364590770881,3.3707664983900805,0.1856871033728064,0.5206836162750158
1118,14.86170303566223,75.24364590770881,3.3697548372828514,0.1857054084050015,0.5211192835967787
1119,14.874996151078744,75.24364590770881,3.36979563661023,0.18574516736012583,0.5212733907309693
1120,14.888289266495258,75.24364590770881,3.3710436761840494,0.18580538163027882,0.5211117363541878
1121,14.901582381911773,75.24364590770881,3.37357533785077,0.18588262844335113,0.5206235889399223
1122,14.914875497328286,75.24364590770881,3.377372427233478,0.1859712577668048,0.5198237590463961
1123,14.928168612744798,75.24364590770881,3.3823143047545288,0.18606386576155415,0.5187519658157034
1124,14.941461728161311,75.24364590770881,3.3881800430259843,0.18615199411529623,0.5174695970326547
1125,14.954754843577826,75.24364590770881,3.3946612065044435,0.1862269718833643,0.5160542442597045
1126,14.96804795899434,75.24364590770881,3.4013845438013677,0.1862807929020385,0.5145926470618069
1127,14.981341074410851,75.24364590770881,3.4079425756644195,0.18630692917551175,0.5131728701535205
1128,14.994634189827368,75.24364590770881,3.4139289507859245,0.18630101624244177,0.511876614212909
1129,15.00792730524388,75.24364590770881,3.4189747079952384,0.1862613557792815,0.5107725115957187
1130,15.021220420660397,75.24364590770881,3.422781347256951,0.1861891623899071,0.509911091515847
1131,15.034513536076908,75.24364590770881,3.4251469168539606,0.18608850427345455,0.5093218476477881
1132,15.047806651493422,75.24364590770881,3.4259820500731757,0.18596594858231383,0.5090125506727322
1133,15.061099766909935,75.24364590770881,3.425313954291478,0.1858299645057269,0.5089706676885075
1134,15.07439288232645,75.24364590770881,3.4232782664951276,0.18569015441832706,0.5091665259733343
1135,15.087685997742962,75.24364590770881,3.420101119752812,0.18555639361227289,0.5095577144459724
1136,15.100979113159475,75.24364590770881,3.4160746203731067,0.1854379634799332,0.5100941174279703
1137,15.11427222857599,75.24364590770881,3.4115281260224526,0.1853427602960769,0.5107229261681075
1138,15.127565343992504,75.24364590770881,3.406797740954688,0.18527665289831963,0.5113930872146994
1139,15.140858459409015,75.24364590770881,3.402197349386751,0.18524305071542765,0.5120588947606517
1140,15.15415157482553,75.24364590770881,3.3979944430300764,0.18524272819221357,0.5126826127079641
1141,15.167444690242045,75.24364590770881,3.3943929603968854,0.18527391245518865,0.5132360898880092
1142,15.180737805658556,75.24364590770881,3.3915241788617063,0.18533258377020073,0.513701415788121
1143,15.194030921075072,75.24364590770881,3.3894456031312314,0.1854129259343729,0.514070749387653
1144,15.207324036491585,75.24364590770881,3.3881468541271853,0.18550789694363443,0.5143454920373458
1145,15.2206171519081,75.24364590770881,3.3875608917661117,0.18560988902933567,0.5145349712205072
1146,15.233910267324612,75.24364590770881,3.3875785554660935,0.18571141071917602,0.5146547751711044
1147,15.247203382741128,75.24364590770881,3.3880643767039063,0.18580571235120827,0.5147248456717257
1148,15.26049649815764,75.24364590770881,3.388871857070729,0.18588729300540804,0.5147674130124763
1149,15.273789613574154,75.24364590770881,3.3898568284081,0.1859522475044639,0.5148048521846794
1150,15.287082728990669,75.24364590770881,3.3908880214538373,0.18599843300806038,0.5148575547324711
1151,15.30037584440718,75.24364590770881,3.391854475447234,0.18602545567633852,0.5149419406329134
1152,15.313668959823694,75.24364590770881,3.392669853426414,0.18603449664225763,0.5150687674160382
1153,15.326962075240209,75.24364590770881,3.393274044006793,0.1860280113471686,0.5152419145149865
1154,15.34025519065672,75.24364590770881,3.3936326152641385,0.18600934577808667,0.5154578152319094
1155,15.353548306073234,75.24364590770881,3.393734747720206,0.18598231670806445,0.5157056672800205
1156,15.366841421489749,75.24364590770881,3.393590234676897,0.1859508009529174,0.5159684745566402
1157,15.380134536906262,75.24364590770881,3.393226030684088,0.18591837197486835,0.5162248664649239
1158,15.393427652322776,75.24364590770881,3.3926826858875323,0.18588801245841988,0.5164515243039077
1159,15.406720767739287,75.24364590770881,3.392010855577594,0.1858619204692237,0.5166259395144499
1160,15.420013883155804,75.24364590770881,3.3912679447343703,0.18584141597141587,0.5167291581054312
1161,15.433306998572316,75.24364590770881,3.390514853529485,0.18582694484003232,0.5167481460478425
1162,15.446600113988833,75.24364590770881,3.3898127403664122,0.1858181695462086,0.5166774491968016
1163,15.459893229405344,75.24364590770881,3.3892197152483936,0.18581412948293569,0.5165199150164047
1164,15.473186344821858,75.24364590770881,3.388787412745299,0.18581344932514962,0.5162863786655424
1165,15.486479460238373,75.24364590770881,3.388557460667822,0.18581457082223646,0.5159943718445726
1166,15.499772575654886,75.24364590770881,3.3885579453308514,0.18581598214088646,0.515666063857358
1167,15.513065691071398,75.24364590770881,3.3888000640255354,0.18581641963105616,0.5153257646707364
1168,15.526358806487911,75.24364590770881,3.389275237873809,0.18581502002950337,0.5149973867865044
1169,15.539651921904426,75.24364590770881,3.389953022899093,0.18581140681310107,0.5147022613115397
1170,15.55294503732094,75.24364590770881,3.390780194546688,0.18580570246257228,0.5144576296123501
1171,15.566238152737451,75.24364590770881,3.391681382521687,0.1857984681162961,0.5142759947741106
1172,15.579531268153966,75.24364590770881,3.3925615906454203,0.1857905823465982,0.5141653398292775
1173,15.59282438357048,75.24364590770881,3.3933108431486665,0.18578308011081554,0.5141300362001117
1174,15.606117498986992,75.24364590770881,3.3938110491620748,0.18577697972744506,0.5141721145427958
1175,15.619410614403508,75.24364590770881,3.3939449704743554,0.18577312855012698,0.5142924863052194
1176,15.63270372982002,75.24364590770881,3.3936069211944973,0.1857720958211118,0.5144917111699358
1177,15.645996845236535,75.24364590770881,3.3927145402384156,0.18577413363389053,0.5147700082737167
1178,15.659289960653048,75.24364590770881,3.3912206897819557,0.185779214594469,0.515126391753105
1179,15.672583076069564,75.24364590770881,3.3891242885236346,0.1857871392593366,0.5155570385352272
1180,15.685876191486075,75.24364590770881,3.386478737679854,0.18579769035003169,0.5160532201887095
1181,15.69916930690259,75.24364590770881,3.383396597105521,0.18581079737972514,0.5165992993822861
1182,15.712462422319105,75.24364590770881,3.3800493504688593,0.18582666804229686,0.5171713618030122
1183,15.725755537735616,75.24364590770881,3.3766614005914657,0.18584584414395522,0.5177369976810434
1184,15.73904865315213,75.24364590770881,3.3734978591950147,0.18586915108867055,0.5182565665633938
1185,15.752341768568645,75.24364590770881,3.370846410179812,0.18589752976811344,0.5186860376668294
1186,15.765634883985156,75.24364590770881,3.3689944492533477,0.18593176490917518,0.5189812387051199
1187,15.77892799940167,75.24364590770881,3.3682034428787473,0.18597215058453884,0.5191030294022867
1188,15.792221114818185,75.24364590770881,3.368682893491614,0.18601815573377653,0.5190226068389536
1189,15.805514230234698,75.24364590770881,3.3705665656395047,0.18606816183197536,0.5187260348067706
1190,15.818807345651212,75.24364590770881,3.373893662054972,0.18611933825075683,0.5182171995211405
1191,15.832100461067723,75.24364590770881,3.378597331702942,0.18616770247339504,0.517518628016485
1192,15.84539357648424,75.24364590770881,3.3845022550562134,0.18620838489620406,0.5166699254896626
1193,15.858686691900752,75.24364590770881,3.391332158481792,0.1862360833551811,0.515723971490777
1194,15.871979807317269,75.24364590770881,3.398727063924189,0.18624565716843305,0.5147413905043198
1195,15.88527292273378,75.24364590770881,3.4062690108624145,0.1862327822740758,0.513784101286813
1196,15.898566038150294,75.24364590770881,3.4135140276833313,0.18619457352796878,0.5129088929279411
1197,15.911859153566809,75.24364590770881,3.4200273972943704,0.18613008040002157,0.5121619460678336
1198,15.925152268983322,75.24364590770881,3.425418845179483,0.18604057834410806,0.5115750248713736
1199,15.938445384399834,75.24364590770881,3.429374222441467,0.18592960724555926,0.5111637535041519
1200,15.951738499816347,75.24364590770881,3.431680567082969,0.18580274546145145,0.5109280270768756
1201,15.965031615232862,75.24364590770881,3.4322420267650946,0.18566714659615322,0.5108542646205377
1202,15.978324730649376,75.24364590770881,3.4310849714474627,0.1855308996758927,0.5109189536458643
1203,15.991617846065887,75.24364590770881,3.4283519974423418,0.18540229624747384,0.511092802348435
1204,16.004910961482402,75.24364590770881,3.4242862324907932,0.18528909665656923,0.5113448197901065
1205,16.018204076898915,75.24364590770881,3.419208180150891,0.18519788189191472,0.5116457691269527
1206,16.03149719231543,75.24364590770881,3.4134872059689316,0.1851335592077148,0.5119706307271763
1207,16.044790307731944,75.24364590770881,3.4075100523991613,0.1850990665710465,0.5122999242539387
1208,16.058083423148457,75.24364590770881,3.4016494695762143,0.18509529698561752,0.5126199655544552
1209,16.07137653856497,75.24364590770881,3.396236094606894,0.18512122030203942,0.5129223323818057
1210,16.084669653981486,75.24364590770881,3.3915360904430196,0.1851741255857307,0.5132028969010819
1211,16.097962769398,75.24364590770881,3.3877362368761776,0.18524991120128256,0.5134607471601703
1212,16.11125588481451,75.24364590770881,3.384937276739101,0.18534340930741028,0.513697225506773
1213,16.124549000231024,75.24364590770881,3.383155418284666,0.1854487508164042,0.5139151942319897
1214,16.13784211564754,75.24364590770881,3.3823310744356565,0.18555975004444863,0.5141185201677384
1215,16.151135231064053,75.24364590770881,3.382343261345807,0.18567027984181173,0.5143116837688183
1216,16.164428346480566,75.24364590770881,3.383027647093933,0.18577461979733217,0.5144993870215528
1217,16.17772146189708,75.24364590770881,3.3841960733523004,0.1858677669542813,0.5146860608470294
1218,16.19101457731359,75.24364590770881,3.3856554715122353,0.1859456991220952,0.5148752414515743
1219,16.204307692730108,75.24364590770881,3.387224426634322,0.18600557947306987,0.5150688694806532
1220,16.21760080814662,75.24364590770881,3.388746142658713,0.18604588959404725,0.515266636437141
1221,16.230893923563134,75.24364590770881,3.390097145058136,0.18606647843373017,0.5154655365700993
1222,16.244187038979646,75.24364590770881,3.3911916320763478,0.18606851775953637,0.5156597687142856
1223,16.257480154396163,75.24364590770881,3.391981873464683,0.18605436112369672,0.5158410749630246
1224,16.270773269812675,75.24364590770881,3.3924554006924263,0.18602731235734377,0.5159995170196724
1225,16.28406638522919,75.24364590770881,3.3926299102954447,0.18599131992029794,0.5161245987476399
1226,16.2973595006457,75.24364590770881,3.3925468186705086,0.18595062319219785,0.5162065676986988
1227,16.310652616062217,75.24364590770881,3.3922642936879766,0.18590938404645727,0.5162376874925941
1228,16.32394573147873,75.24364590770881,3.391850392857216,0.18587134017191295,0.5162132766728373
