,time,sample_rate,Red,Green,Blue
0,0.0,74.71050984688931,7.0137998589383495,2.20208868708194,1.9986796660759016
1,0.0132930147524053,74.71050984688931,7.023068746243619,2.2053297018298124,2.001635574932013
2,0.0265860295048106,74.71050984688931,7.030981681222583,2.208033080203566,2.0041187760490455
3,0.0398790442572159,74.71050984688931,7.036524058484044,2.2098158464294224,2.005788690361069
4,0.0531720590096212,74.71050984688931,7.03926568773779,2.2105332676755363,2.0065142192215144
5,0.0664650737620266,74.71050984688931,7.039384614812627,2.210287342719071,2.0063813017323504
6,0.0797580885144319,74.71050984688931,7.037562139526447,2.2093825135885865,2.005653982295993
7,0.0930511032668372,74.71050984688931,7.034803588400415,2.2082506107405293,2.0047084757823854
8,0.1063441180192425,74.71050984688931,7.032214444308249,2.2073576041321217,2.0039513598282332
9,0.1196371327716478,74.71050984688931,7.030761441693571,2.2071049281134596,2.003733006162529
10,0.1329301475240532,74.71050984688931,7.031070956958225,2.2077464456175826,2.0042746991728015
11,0.1462231622764585,74.71050984688931,7.033331610576224,2.2093467073251523,2.0056322924323684
12,0.1595161770288638,74.71050984688931,7.037331911403689,2.2117924564444,2.0077071800520954
13,0.1728091917812691,74.71050984688931,7.0425946239988075,2.2148439190507467,2.010292477050916
14,0.1861022065336744,74.71050984688931,7.048536846207835,2.2181995562624617,2.0131308118120583
15,0.1993952212860798,74.71050984688931,7.054605451394043,2.221554368032097,2.015966015580431
16,0.2126882360384851,74.71050984688931,7.060369263794835,2.2246433129028413,2.018581153802179
17,0.2259812507908904,74.71050984688931,7.065566693797826,2.227268231070298,2.0208212924505307
18,0.2392742655432957,74.71050984688931,7.070114526202644,2.2293095808074135,2.0226020434076326
19,0.2525672802957011,74.71050984688931,7.074086358534193,2.2307256085211935,2.023906258981091
20,0.2658602950481064,74.71050984688931,7.077670078462663,2.2315421521185037,2.024771943137846
21,0.2791533098005117,74.71050984688931,7.081113707346571,2.2318364420273995,2.025274758364542
22,0.2924463245529171,74.71050984688931,7.084668298544906,2.2317181312817276,2.0255084978335547
23,0.3057393393053224,74.71050984688931,7.088535518886936,2.231310407950057,2.025566569088548
24,0.3190323540577277,74.71050984688931,7.0928261193405895,2.2307334656479796,2.025526931506819
25,0.332325368810133,74.71050984688931,7.097533747732198,2.2300918913998458,2.0254421318228255
26,0.3456183835625383,74.71050984688931,7.1025265293283235,2.2294667535012223,2.025335182796459
27,0.3589113983149437,74.71050984688931,7.107556570558432,2.228912424554265,2.0252011236895133
28,0.3722044130673489,74.71050984688931,7.112285240320586,2.2284575429457654,2.0250133010392446
29,0.3854974278197543,74.71050984688931,7.116320657268783,2.228109065520526,2.0247328191129537
30,0.3987904425721596,74.71050984688931,7.119263370991388,2.2278581347900768,2.0243192982145652
31,0.4120834573245649,74.71050984688931,7.120755034300294,2.22768650070118,2.023741069320748
32,0.4253764720769702,74.71050984688931,7.12052312097661,2.2275724623265623,2.0229832047606946
33,0.4386694868293755,74.71050984688931,7.118415123373974,2.227495603104824,2.022052275405796
34,0.4519625015817809,74.71050984688931,7.114418145343372,2.2274399119758908,2.0209773432164204
35,0.4652555163341862,74.71050984688931,7.108662252278232,2.227395226955264,2.019807336659034
36,0.4785485310865915,74.71050984688931,7.101407953333379,2.22735725005517,2.018605510701725
37,0.4918415458389968,74.71050984688931,7.093020144279992,2.2273265626498433,2.0174420788733354
38,0.5051345605914022,74.71050984688931,7.083932475098526,2.2273071079259505,2.016386273843742
39,0.5184275753438075,74.71050984688931,7.074607108073584,2.2273045453733067,2.0154990399513437
40,0.5317205900962129,74.71050984688931,7.065495066979358,2.2273247618576035,2.0148273220146833
41,0.5450136048486182,74.71050984688931,7.057001838365234,2.2273726879206412,2.014400556103336
42,0.5583066196010235,74.71050984688931,7.049461698549507,2.227451456390659,2.014229567911751
43,0.5715996343534288,74.71050984688931,7.043122633939396,2.2275618765044314,2.0143077107053586
44,0.5848926491058342,74.71050984688931,7.038141987726008,2.2277021831784847,2.0146137820690684
45,0.5981856638582395,74.71050984688931,7.034591400594303,2.2278680420210972,2.015116089581393
46,0.6114786786106448,74.71050984688931,7.032468468490092,2.228052820290269,2.0157769923350175
47,0.62477169336305,74.71050984688931,7.031711979506885,2.2282481470289297,2.01655729155379
48,0.6380647081154553,74.71050984688931,7.03221765862305,2.2284447663386535,2.0174199523153
49,0.6513577228678608,74.71050984688931,7.033851989124552,2.2286336343421542,2.018332794305256
50,0.664650737620266,74.71050984688931,7.036462703596579,2.2288071341326683,2.0192699645797
51,0.6779437523726713,74.71050984688931,7.0398855093469,2.228960204246127,2.020212169956515
52,0.6912367671250766,74.71050984688931,7.043947330541312,2.2290911190953233,2.021145783748056
53,0.7045297818774819,74.71050984688931,7.048467189118349,2.2292016475585985,2.0220610441274505
54,0.7178227966298873,74.71050984688931,7.053256674482801,2.2292963662349976,2.0229496312435087
55,0.7311158113822926,74.71050984688931,7.058121965830948,2.2293810243242373,2.0238019555998967
56,0.7444088261346979,74.71050984688931,7.0628686098189695,2.2294600403728735,2.024604520470961
57,0.7577018408871032,74.71050984688931,7.067309408045167,2.2295334319981963,2.0253377402492587
58,0.7709948556395086,74.71050984688931,7.071275016588348,2.2295936957915568,2.025974597685224
59,0.7842878703919139,74.71050984688931,7.074626151405222,2.2296233129046144,2.026480490500674
60,0.7975808851443192,74.71050984688931,7.077265746809885,2.2295936044748976,2.0268145178754513
61,0.8108738998967245,74.71050984688931,7.079149147881978,2.229465563727263,2.0269322850484617
62,0.8241669146491298,74.71050984688931,7.08029047960832,2.229193040184585,2.026790193572746
63,0.8374599294015352,74.71050984688931,7.080763721523753,2.2287282726875506,2.0263511313915936
64,0.8507529441539405,74.71050984688931,7.080697668121942,2.228029321431443,2.025591142622435
65,0.8640459589063458,74.71050984688931,7.080264771536265,2.2270685165959128,2.0245061033347267
66,0.8773389736587511,74.71050984688931,7.079664717711528,2.2258407091774406,2.0231172197645333
67,0.8906319884111564,74.71050984688931,7.0791043503069595,2.2243699517749675,2.021474354339248
68,0.9039250031635618,74.71050984688931,7.0787761147629435,2.222713297907406,2.0196564210874595
69,0.9172180179159672,74.71050984688931,7.078837468966685,2.2209606946953886,2.017768351255498
70,0.9305110326683724,74.71050984688931,7.079393661010455,2.2192304236321267,2.015934518317242
71,0.9438040474207776,74.71050984688931,7.08048591877671,2.217660152912787,2.0142889913769637
72,0.9570970621731832,74.71050984688931,7.0820864818595695,2.216394319166035,2.012963477924119
73,0.9703900769255884,74.71050984688931,7.084101116241466,2.215569157982055,2.0120742924966217
74,0.9836830916779936,74.71050984688931,7.086378886969056,2.215297125781278,2.011710051375707
75,0.996976106430399,74.71050984688931,7.088728129215018,2.2156526301320376,2.011921602962084
76,1.0102691211828043,74.71050984688931,7.090936850934515,2.2166609569311726,2.012714992738214
77,1.0235621359352096,74.71050984688931,7.092795300715487,2.2182920376989954,2.0140481130809
78,1.036855150687615,74.71050984688931,7.094118191131743,2.220460144752505,2.0158320993894385
79,1.0501481654400204,74.71050984688931,7.094764102889054,2.2230298083982976,2.017938093536882
80,1.0634411801924255,74.71050984688931,7.094649830163095,2.225827419263098,2.02020875695239
81,1.076734194944831,74.71050984688931,7.093757862835531,2.2286572380422434,2.022473059170449
82,1.0900272096972363,74.71050984688931,7.092136381046651,2.231319964638159,2.0245625458715337
83,1.1033202244496416,74.71050984688931,7.089892867491047,2.2336317003769572,2.0263271756329635
84,1.116613239202047,74.71050984688931,7.087182907688478,2.2354411141432364,2.02764890381453
85,1.1299062539544522,74.71050984688931,7.0841949163893565,2.236642886259214,2.0284515043696003
86,1.1431992687068575,74.71050984688931,7.081131676067078,2.237186002814861,2.0287056117352753
87,1.1564922834592628,74.71050984688931,7.078190719729073,2.23707611242393,2.0284286395773803
88,1.1697852982116683,74.71050984688931,7.075546008126423,2.236371855076878,2.027679989754199
89,1.1830783129640736,74.71050984688931,7.073332954455964,2.235175887873675,2.0265525016651442
90,1.196371327716479,74.71050984688931,7.071638289693483,2.233622151622102,2.0251613390483647
91,1.2096643424688842,74.71050984688931,7.0704956329558994,2.2318612439672494,2.023631703485001
92,1.2229573572212895,74.71050984688931,7.069886929996416,2.230045553865183,2.022086881946443
93,1.2362503719736948,74.71050984688931,7.0697492241953,2.228315636848175,2.0206379746835403
94,1.2495433867261,74.71050984688931,7.069985607597018,2.226789206089318,2.019376240978386
95,1.2628364014785054,74.71050984688931,7.070478748172779,2.225553712344523,2.018368494782649
96,1.2761294162309107,74.71050984688931,7.071105170595755,2.224662853097506,2.0176554779613936
97,1.289422430983316,74.71050984688931,7.071748515856321,2.2241367490364223,2.017252720070369
98,1.3027154457357215,74.71050984688931,7.072310313397732,2.223965065801615,2.017153133456648
99,1.3160084604881268,74.71050984688931,7.072717308393127,2.2241120956408733,2.017330527935909
100,1.329301475240532,74.71050984688931,7.0729249678899935,2.2245227744363465,2.0177433529352746
101,1.3425944899929374,74.71050984688931,7.072917334415654,2.2251287715778907,2.018338240359332
102,1.3558875047453427,74.71050984688931,7.072703888999046,2.225854090102866,2.019053245259107
103,1.369180519497748,74.71050984688931,7.072314447633821,2.2266199626225984,2.0198209364641686
104,1.3824735342501533,74.71050984688931,7.071793190462821,2.2273491253666045,2.0205716030224905
105,1.3957665490025586,74.71050984688931,7.071192729484883,2.2279697249316093,2.021236869547589
106,1.409059563754964,74.71050984688931,7.070568814708081,2.228419144955325,2.0217539408670677
107,1.4223525785073694,74.71050984688931,7.06997595578936,2.2286479338165375,2.0220704288004274
108,1.4356455932597747,74.71050984688931,7.069463956040904,2.22862376600112,2.0221493794705108
109,1.44893860801218,74.71050984688931,7.0690751889370365,2.228335054829844,2.0219739009862816
110,1.4622316227645853,74.71050984688931,7.068842433158466,2.2277935936682804,2.02155061958251
111,1.4755246375169906,74.71050984688931,7.068787209814373,2.2270355170420832,2.0209110929090004
112,1.488817652269396,74.71050984688931,7.068918779039391,2.2261199583760374,2.020110510522583
113,1.5021106670218012,74.71050984688931,7.069234164600014,2.225125041209591,2.019223487106531
114,1.5154036817742065,74.71050984688931,7.069719686940651,2.2241412480597753,2.018337268068219
115,1.5286966965266118,74.71050984688931,7.0703544178092566,2.2232626887745672,2.0175431115363978
116,1.5419897112790173,74.71050984688931,7.071115687705682,2.222577265969841,2.0169269624054817
117,1.5552827260314226,74.71050984688931,7.071986306047858,2.222157096733578,2.0165607151681963
118,1.568575740783828,74.71050984688931,7.072962581032216,2.2220504840095425,2.0164951846642287
119,1.5818687555362332,74.71050984688931,7.074061687654709,2.2222762467592125,2.0167554102512963
120,1.5951617702886385,74.71050984688931,7.0753265835510835,2.222821004059915,2.0173385917220084
121,1.6084547850410438,74.71050984688931,7.076826651128868,2.2236400973753585,2.018214862454456
122,1.621747799793449,74.71050984688931,7.0786526350471215,2.2246623910270946,2.0193307543379593
123,1.6350408145458544,74.71050984688931,7.080905248800608,2.2257982895305193,2.020614663015556
124,1.6483338292982597,74.71050984688931,7.083677950488294,2.2269497207354765,2.0219833579458615
125,1.6616268440506652,74.71050984688931,7.0870356540485755,2.2280206665544697,2.0233486407960224
126,1.6749198588030705,74.71050984688931,7.090992304018018,2.2289268695572995,2.0246234608929212
127,1.6882128735554758,74.71050984688931,7.095491031400584,2.2296035753039516,2.0257270791664475
128,1.701505888307881,74.71050984688931,7.100390798443989,2.230010559377992,2.026589159452393
129,1.7147989030602864,74.71050984688931,7.105462840093788,2.2301341505236083,2.0271528834654955
130,1.7280919178126917,74.71050984688931,7.110398861397269,2.229986404563303,2.0273773651788582
131,1.741384932565097,74.71050984688931,7.1148315421659305,2.2296019269651968,2.0272397429099653
132,1.7546779473175025,74.71050984688931,7.118366632843387,2.2290330347663563,2.026737118722355
133,1.7679709620699076,74.71050984688931,7.120623682781127,2.228343985888945,2.0258880662792573
134,1.7812639768223129,74.71050984688931,7.121279650578633,2.2276049363013626,2.024733175505242
135,1.7945569915747184,74.71050984688931,7.120108639951718,2.2268861665802175,2.023334134679611
136,1.807850006327124,74.71050984688931,7.117012006081627,2.2262529481960964,2.0217709635155097
137,1.821143021079529,74.71050984688931,7.1120346035039494,2.2257612098791855,2.0201371982297243
138,1.8344360358319345,74.71050984688931,7.1053647385917325,2.225454020795434,2.0185331470536174
139,1.84772905058434,74.71050984688931,7.097317668317116,2.2253589240241745,2.017057716237797
140,1.8610220653367449,74.71050984688931,7.08830489147956,2.225486252651059,2.0157996534947276
141,1.8743150800891504,74.71050984688931,7.078793537255925,2.2258285835407703,2.0148292849413783
142,1.887608094841556,74.71050984688931,7.069261514719812,2.226361420888347,2.01419187373791
143,1.9009011095939607,74.71050984688931,7.060154513574885,2.2270451295519567,2.0139035839074557
144,1.9141941243463665,74.71050984688931,7.051850381482785,2.2278280556948467,2.013950707565471
145,1.927487139098772,74.71050984688931,7.044634967197003,2.228650653760828,2.0142923415052656
146,1.9407801538511769,74.71050984688931,7.03869148791998,2.229450301841227,2.0148661608095892
147,1.9540731686035824,74.71050984688931,7.034103232073061,2.230166345524996,2.015596475532495
148,1.967366183355988,74.71050984688931,7.030867351285806,2.2307448020344207,2.016403452969734
149,1.9806591981083927,74.71050984688931,7.028915983083884,2.231142260357065,2.017212231403261
150,1.993952212860798,74.71050984688931,7.0281402292733715,2.2313288128072593,2.0179606696516577
151,2.007245227613204,74.71050984688931,7.0284126803540055,2.231289906748418,2.0186047152132085
152,2.0205382423656086,74.71050984688931,7.0296052788515615,2.231026806592918,2.0191207883359126
153,2.033831257118014,74.71050984688931,7.031601042205612,2.2305554717345544,2.0195050751422103
154,2.0471242718704192,74.71050984688931,7.034298954407268,2.229904067798001,2.0197701107877473
155,2.0604172866228248,74.71050984688931,7.037611056486699,2.2291095727235795,2.019939433380615
156,2.07371030137523,74.71050984688931,7.041452611988954,2.2282139739857567,2.0200413396121553
157,2.087003316127636,74.71050984688931,7.0457298789572835,2.2272605325483417,2.0201028425952905
158,2.100296330880041,74.71050984688931,7.050330648640423,2.226290531605116,2.020144822181632
159,2.113589345632446,74.71050984688931,7.055120241472188,2.225340829813688,2.0201790971821056
160,2.1268823603848515,74.71050984688931,7.0599437168875605,2.2244424138712673,2.020207786910004
161,2.1401753751372565,74.71050984688931,7.064634079732342,2.2236200057929216,2.0202249266328356
162,2.153468389889662,74.71050984688931,7.069025244539406,2.2228926378536267,2.0202199198187705
163,2.166761404642067,74.71050984688931,7.072967587799237,2.222274974402386,2.0201821051304814
164,2.1800544193944726,74.71050984688931,7.076343386475562,2.2217790481135773,2.02010553110911
165,2.1933474341468777,74.71050984688931,7.079079399663045,2.221416004844485,2.0199929927423677
166,2.2066404488992832,74.71050984688931,7.081154304576072,2.221197433012472,2.0198584983314367
167,2.2199334636516888,74.71050984688931,7.082599553423766,2.221135905278644,2.0197275878052374
168,2.233226478404094,74.71050984688931,7.083493313368361,2.221244485385433,2.0196352793290484
169,2.2465194931565,74.71050984688931,7.083948290854342,2.221535126439935,2.019621825830533
170,2.2598125079089044,74.71050984688931,7.084095227833206,2.222016085177307,2.0197268513683437
171,2.27310552266131,74.71050984688931,7.084064529371308,2.2226887020896244,2.0199827426602943
172,2.286398537413715,74.71050984688931,7.083968740658497,2.2235441054742946,2.020408339310784
173,2.2996915521661205,74.71050984688931,7.083888414427647,2.2245604954988023,2.0210039669650866
174,2.3129845669185256,74.71050984688931,7.083863351214618,2.2257016280448134,2.021748690730776
175,2.326277581670931,74.71050984688931,7.083890368527718,2.226916984350731,2.0226003609649106
176,2.3395705964233366,74.71050984688931,7.083927807528629,2.228143898806883,2.023498630317568
177,2.3528636111757417,74.71050984688931,7.083906066302293,2.229311638927089,2.0243706998036903
178,2.3661566259281472,74.71050984688931,7.083742681950657,2.2303471270420117,2.0251391593312422
179,2.3794496406805523,74.71050984688931,7.083359952574262,2.231181706590702,2.0257309731514703
180,2.392742655432958,74.71050984688931,7.082702830057464,2.231758130843617,2.026086438806613
181,2.406035670185363,74.71050984688931,7.081754817985301,2.2320368071507484,2.026166855402179
182,2.4193286849377684,74.71050984688931,7.080549838122802,2.2320003076079153,2.0259598696196153
183,2.432621699690173,74.71050984688931,7.079178431181002,2.231655459067937,2.025481988058326
184,2.445914714442579,74.71050984688931,7.077787180900466,2.231032905334436,2.024778006423702
185,2.4592077291949845,74.71050984688931,7.076570853535084,2.2301843177639142,2.023917086552082
186,2.4725007439473896,74.71050984688931,7.075757400911934,2.229177373451558,2.022985570176314
187,2.485793758699795,74.71050984688931,7.075586667714307,2.228088880539199,2.0220773120858313
188,2.4990867734522,74.71050984688931,7.076284353976237,2.226996962633669,2.021282767778399
189,2.5123797882046057,74.71050984688931,7.07803347593232,2.2259734433235883,2.0206782079134338
190,2.525672802957011,74.71050984688931,7.08094617562165,2.2250774528499746,2.020316415896225
191,2.5389658177094163,74.71050984688931,7.085039151040411,2.224351021366171,2.0202200631253087
192,2.5522588324618214,74.71050984688931,7.090216091759495,2.223817083445553,2.020378641855343
193,2.565551847214227,74.71050984688931,7.096260188957904,2.223479935170871,2.0207494004258186
194,2.578844861966632,74.71050984688931,7.102838971847486,2.22332782250069,2.021262218291741
195,2.592137876719037,74.71050984688931,7.109522355264314,2.223337061667008,2.021827843237482
196,2.605430891471443,74.71050984688931,7.115813020176198,2.223476938559467,2.0223484618484684
197,2.618723906223848,74.71050984688931,7.121186857202196,2.223714564625553,2.0227292550249554
198,2.6320169209762536,74.71050984688931,7.1251403737098595,2.2240188868237,2.022889455630808
199,2.6453099357286587,74.71050984688931,7.127240455868526,2.224363298423286,2.0227715011352996
200,2.658602950481064,74.71050984688931,7.127169990414561,2.22472672345195,2.022347152858193
201,2.6718959652334693,74.71050984688931,7.124762837993975,2.2250933651337172,2.021619894196833
202,2.685188979985875,74.71050984688931,7.120023578720947,2.2254514608820113,2.0206234548875965
203,2.69848199473828,74.71050984688931,7.11312965496909,2.225791503324657,2.0194168531127765
204,2.7117750094906854,74.71050984688931,7.104415670223112,2.226104456972363,2.0180768167625835
205,2.725068024243091,74.71050984688931,7.094341875721163,2.2263804604053936,2.0166887669084423
206,2.738361038995496,74.71050984688931,7.083450952428962,2.2266083651863253,2.0153376733961
207,2.751654053747901,74.71050984688931,7.072318670283475,2.226776261076281,2.0141000106664992
208,2.7649470685003066,74.71050984688931,7.061504629815002,2.22687291119275,2.013037776161698
209,2.778240083252712,74.71050984688931,7.051508954959889,2.2268898130673085,2.012195139064916
210,2.791533098005117,74.71050984688931,7.0427395773796855,2.2268234511748397,2.011597868136077
211,2.8048261127575227,74.71050984688931,7.035492861522197,2.226677242639239,2.011255309322015
212,2.818119127509928,74.71050984688931,7.029948116543247,2.2264627137164084,2.011164165127725
213,2.8314121422623333,74.71050984688931,7.026174429059645,2.2261995739330374,2.011312763459306
214,2.844705157014739,74.71050984688931,7.024146603874311,2.225914551802284,2.011684629065796
215,2.857998171767144,74.71050984688931,7.0237660946912195,2.2256390810965674,2.0122609490182635
216,2.8712911865195494,74.71050984688931,7.024882760119944,2.2254061347448686,2.0130219367167386
217,2.8845842012719545,74.71050984688931,7.027314096735757,2.225246654613566,2.0139470578733247
218,2.89787721602436,74.71050984688931,7.030860025582383,2.2251860935652075,2.0150142277290115
219,2.911170230776765,74.71050984688931,7.035312444960926,2.225241563487134,2.016198397563081
220,2.9244632455291706,74.71050984688931,7.040459361494323,2.225419979629811,2.017470117726042
221,2.937756260281576,74.71050984688931,7.046084789739121,2.2257174311920087,2.0187946583374443
222,2.951049275033981,74.71050984688931,7.05196751847614,2.2261198210501534,2.020132128933346
223,2.9643422897863867,74.71050984688931,7.057882013449605,2.226604634685129,2.021438804236123
224,2.977635304538792,74.71050984688931,7.0636031841782,2.227143546184353,2.0226695911843695
225,2.9909283192911973,74.71050984688931,7.068915287488131,2.22770546686392,2.023781318834599
226,3.0042213340436024,74.71050984688931,7.073624214982864,2.228259600180093,2.0247363453357745
227,3.017514348796008,74.71050984688931,7.077571490038519,2.2287780863450726,2.025505885935408
228,3.030807363548413,74.71050984688931,7.080647654494726,2.2292378954726275,2.0260724850613556
229,3.0441003783008185,74.71050984688931,7.082802554437933,2.2296217387662045,2.026431178684328
230,3.057393393053224,74.71050984688931,7.084050374163131,2.2299179039580297,2.02658910113313
231,3.070686407805629,74.71050984688931,7.084468054519898,2.2301191476825,2.0265635520883367
232,3.0839794225580346,74.71050984688931,7.084186810854886,2.2302210598130574,2.026378814257531
233,3.09727243731044,74.71050984688931,7.083377624863475,2.2302204022446883,2.0260622440157787
234,3.110565452062845,74.71050984688931,7.082232596510169,2.230113797175703,2.0256403006733303
235,3.1238584668152503,74.71050984688931,7.080944709828881,2.2298970805470257,2.025135266514037
236,3.137151481567656,74.71050984688931,7.079688764837181,2.22956563667486,2.024563402726236
237,3.150444496320061,74.71050984688931,7.078605931543461,2.2291158686506765,2.023934983562404
238,3.1637375110724664,74.71050984688931,7.077793670444436,2.228547654631203,2.0232561050469635
239,3.1770305258248714,74.71050984688931,7.077301800704133,2.2278673325170057,2.0225317393227593
240,3.190323540577277,74.71050984688931,7.07713448890797,2.2270905237600425,2.021769299357172
241,3.2036165553296825,74.71050984688931,7.077257076403211,2.226244010955644,2.0209818620049984
242,3.216909570082088,74.71050984688931,7.077606106828169,2.2253659663521552,2.020190206144078
243,3.230202584834493,74.71050984688931,7.078100721551979,2.2245040904106275,2.019423033762636
244,3.243495599586898,74.71050984688931,7.078653738598823,2.2237116168417708,2.0187151147126805
245,3.256788614339304,74.71050984688931,7.079181132351355,2.223041591654556,2.0181035404281493
246,3.2700816290917087,74.71050984688931,7.0796091631468006,2.2225402395093843,2.017622691580361
247,3.2833746438441143,74.71050984688931,7.079878941923241,2.222240498722527,2.0172988298462124
248,3.29666765859652,74.71050984688931,7.079948654547457,2.222156872969981,2.0171453524784053
249,3.309960673348925,74.71050984688931,7.079793953000696,2.222282593847629,2.0171596746257228
250,3.3232536881013304,74.71050984688931,7.079407129291331,2.2225897382283177,2.0173224488892054
251,3.3365467028537354,74.71050984688931,7.07879564280468,2.223032447897953,2.0175994399785715
252,3.349839717606141,74.71050984688931,7.077980417890814,2.2235528482718867,2.0179458621146176
253,3.363132732358546,74.71050984688931,7.07699412267574,2.2240887954933215,2.018312455650128
254,3.376425747110952,74.71050984688931,7.075879438630634,2.2245822827474764,2.018652273328436
255,3.3897187618633566,74.71050984688931,7.074687179188398,2.224987214187859,2.0189271248064316
256,3.403011776615762,74.71050984688931,7.073474043414938,2.225275332380882,2.0191127004058216
257,3.4163047913681672,74.71050984688931,7.0722998061027464,2.2254393860100987,2.0192015465642195
258,3.4295978061205727,74.71050984688931,7.071223838166158,2.2254930940348396,2.0192034129682197
259,3.4428908208729783,74.71050984688931,7.070300995901146,2.225467998595599,2.0191429665586713
260,3.456183835625384,74.71050984688931,7.06957708263511,2.2254077998977646,2.0190553108157885
261,3.469476850377789,74.71050984688931,7.069084241313337,2.2253611412723657,2.018980070593647
262,3.482769865130194,74.71050984688931,7.068836759944088,2.225373998470113,2.0189549754820466
263,3.4960628798825995,74.71050984688931,7.068827852717236,2.2254828042502033,2.019009900799879
264,3.5093558946350045,74.71050984688931,7.069028014627639,2.225709233450225,2.01916221149883
265,3.52264890938741,74.71050984688931,7.069385532883017,2.2260572465528514,2.0194140196009687
266,3.535941924139815,74.71050984688931,7.069829662509765,2.2265126187266864,2.0197516688847217
267,3.5492349388922206,74.71050984688931,7.070276814181768,2.22704483738206,2.020147468652001
268,3.5625279536446257,74.71050984688931,7.070639833195287,2.2276109818663135,2.0205634443435754
269,3.5758209683970312,74.71050984688931,7.070840054099429,2.228161021633377,2.0209566634842857
270,3.5891139831494367,74.71050984688931,7.070821308053341,2.2286438759610223,2.0212855305209
271,3.602406997901842,74.71050984688931,7.070564491997475,2.2290135490874055,2.0215163212100715
272,3.6157000126542473,74.71050984688931,7.070100773844728,2.2292346603158086,2.0216291446902206
273,3.628993027406653,74.71050984688931,7.069521128460678,2.229286726134793,2.021622494032202
274,3.642286042159058,74.71050984688931,7.068979802984893,2.229166714601804,2.021515631110671
275,3.655579056911463,74.71050984688931,7.0686896018315775,2.228889672414576,2.021348263598731
276,3.668872071663869,74.71050984688931,7.0689076157133,2.228487368227918,2.02117721897599
277,3.6821650864162736,74.71050984688931,7.069911176880496,2.228004906755367,2.021070100920564
278,3.695458101168679,74.71050984688931,7.071965300591544,2.227495483782102,2.021096339999214
279,3.7087511159210846,74.71050984688931,7.075284480864567,2.2270138507136803,2.021316570842952
280,3.7220441306734897,74.71050984688931,7.079993187180758,2.226609338556344,2.0217716999022826
281,3.7353371454258952,74.71050984688931,7.086090462702407,2.2263193944681574,2.0224732769562683
282,3.7486301601783,74.71050984688931,7.093424376121601,2.226164562897219,2.023396807601391
283,3.761923174930706,74.71050984688931,7.101681522173682,2.2261456833698317,2.0244793970450994
284,3.775216189683111,74.71050984688931,7.110395239821378,2.226243775662998,2.0256225952279396
285,3.788509204435517,74.71050984688931,7.118973738039953,2.226422680992446,2.0267005804495604
286,3.8018022191879215,74.71050984688931,7.126746256497586,2.2266340931802957,2.0275729871815655
287,3.815095233940327,74.71050984688931,7.133023136810346,2.226824229569446,2.028100900103202
288,3.828388248692733,74.71050984688931,7.137164586275773,2.226941134811804,2.028163948306318
289,3.8416812634451376,74.71050984688931,7.138650796337392,2.2269415334069262,2.0276761575834783
290,3.854974278197543,74.71050984688931,7.13714335717887,2.226796262536903,2.0265983146793047
291,3.868267292949948,74.71050984688931,7.132528341950884,2.2264935975611313,2.0249450564471414
292,3.8815603077023537,74.71050984688931,7.124935012999295,2.2260401666974774,2.0227856437940184
293,3.894853322454759,74.71050984688931,7.11472786754504,2.225459558145869,2.020238289032711
294,3.908146337207164,74.71050984688931,7.102473064783909,2.2247890711865916,2.0174588230944654
295,3.9214393519595694,74.71050984688931,7.088883563313439,2.224075289333139,2.0146252647443315
296,3.934732366711975,74.71050984688931,7.074750077115519,2.223369226017703,2.011920365208341
297,3.948025381464381,74.71050984688931,7.060866688123202,2.2227217160129906,2.0095143763685104
298,3.9613183962167855,74.71050984688931,7.04796036773786,2.2221795359067795,2.0075501243083536
299,3.974611410969191,74.71050984688931,7.036632705328631,2.221782499410345,2.006132016575989
300,3.987904425721596,74.71050984688931,7.027320002281183,2.2215615483678017,2.0053200319660784
301,4.001197440474002,74.71050984688931,7.020274945289418,2.2215376443547927,2.0051291262431374
302,4.014490455226407,74.71050984688931,7.015569832050911,2.221721100233783,2.005533428166446
303,4.027783469978812,74.71050984688931,7.013118331750417,2.2221110416597676,2.00647329003393
304,4.041076484731217,74.71050984688931,7.0127105118526,2.2226949296680276,2.0078632509153604
305,4.054369499483623,74.71050984688931,7.014054682486197,2.2234482496657337,2.009600231681173
306,4.067662514236028,74.71050984688931,7.016819727954512,2.2243345288618963,2.011571736916948
307,4.080955528988434,74.71050984688931,7.020672836478039,2.2253059027094646,2.0136633704731723
308,4.094248543740839,74.71050984688931,7.025308615219937,2.226304492226627,2.015764984352758
309,4.107541558493244,74.71050984688931,7.030466244116959,2.2272648106776125,2.017775277829085
310,4.1208345732456495,74.71050984688931,7.035933919499228,2.2281172964719036,2.0196050418183584
311,4.134127587998055,74.71050984688931,7.041543903116013,2.2287929022622466,2.021179426592419
312,4.14742060275046,74.71050984688931,7.047162993435129,2.2292284924630756,2.0224396512412177
313,4.160713617502865,74.71050984688931,7.052681994659353,2.2293726453884575,2.023344491697528
314,4.174006632255271,74.71050984688931,7.058006615347062,2.2291913436525372,2.023871722060119
315,4.187299647007676,74.71050984688931,7.06305153394046,2.2286729770962515,2.0240194854972104
316,4.200592661760082,74.71050984688931,7.067738381175633,2.2278320689192213,2.0238073803366206
317,4.213885676512486,74.71050984688931,7.07199730358954,2.226711167759492,2.023276902051226
318,4.227178691264892,74.71050984688931,7.075770920752013,2.2253804881147734,2.0224908109707194
319,4.240471706017297,74.71050984688931,7.079019017122345,2.223935117508523,2.0215310147059045
320,4.253764720769703,74.71050984688931,7.0817222733167275,2.2224897673072985,2.0204946663383985
321,4.267057735522108,74.71050984688931,7.083883696187539,2.2211711281128204,2.0194883746307024
322,4.280350750274513,74.71050984688931,7.0855270383756705,2.2201080866892378,2.018620679873008
323,4.293643765026919,74.71050984688931,7.086692251975184,2.219420368515224,2.017993238075956
324,4.306936779779324,74.71050984688931,7.0874287356439165,2.2192065338065508,2.017691438852545
325,4.32022979453173,74.71050984688931,7.0877876670061095,2.219532614197251,2.0177754146448517
326,4.333522809284134,74.71050984688931,7.0878149602697365,2.2204228272254953,2.018272535073164
327,4.34681582403654,74.71050984688931,7.087546306007848,2.221853692797332,2.0191724785811185
328,4.360108838788945,74.71050984688931,7.087005352508917,2.223752613542716,2.0204258060222244
329,4.373401853541351,74.71050984688931,7.086205453696462,2.22600157066051,2.0219466224640747
330,4.386694868293755,74.71050984688931,7.085154663606351,2.228446002676361,2.0236194303492474
331,4.399987883046161,74.71050984688931,7.083862953350148,2.2309082454281417,2.025309708260471
332,4.413280897798567,74.71050984688931,7.0823501097569,2.233204228891177,2.026877180708218
333,4.426573912550972,74.71050984688931,7.080652555276643,2.235161568326018,2.0281902740523967
334,4.4398669273033775,74.71050984688931,7.0788274552028625,2.2366368623390027,2.029139973674522
335,4.453159942055782,74.71050984688931,7.076952928682659,2.237529986040499,2.029651273048107
336,4.466452956808188,74.71050984688931,7.07512386783146,2.23779347224413,2.0296906601358855
337,4.479745971560593,74.71050984688931,7.073443665004786,2.2374357409371917,2.029268596609413
338,4.493038986312999,74.71050984688931,7.072012908228464,2.236517868096887,2.028436639700609
339,4.506332001065403,74.71050984688931,7.0709166992497146,2.235144464447868,2.0272796268791193
340,4.519625015817809,74.71050984688931,7.070212582701934,2.233449924678171,2.025904067669178
341,4.532918030570214,74.71050984688931,7.0699210992450245,2.231581926963684,2.0244244494199783
342,4.54621104532262,74.71050984688931,7.070020688963158,2.229684510833025,2.022949468841498
343,4.559504060075025,74.71050984688931,7.0704481166135205,2.2278830927859006,2.0215701896837044
344,4.57279707482743,74.71050984688931,7.071104846694022,2.226273384443072,2.0203517935630675
345,4.586090089579836,74.71050984688931,7.071868968058902,2.2249154875168684,2.019329985384114
346,4.599383104332241,74.71050984688931,7.0726114698336815,2.223833572516144,2.0185123342704525
347,4.612676119084647,74.71050984688931,7.073215010997274,2.223020643377911,2.0178840059183973
348,4.625969133837051,74.71050984688931,7.073592890307625,2.222447102147737,2.0174166145678467
349,4.639262148589457,74.71050984688931,7.073705761135761,2.2220712890728467,2.0170784192693696
350,4.652555163341862,74.71050984688931,7.07357375839562,2.2218499714317077,2.0168438978071452
351,4.665848178094268,74.71050984688931,7.07328209034343,2.2217469143325204,2.0167008848911037
352,4.679141192846673,74.71050984688931,7.072978753932713,2.2217381479705534,2.016653930394368
353,4.692434207599078,74.71050984688931,7.07286380741745,2.221813251454018,2.016723235354746
354,4.705727222351483,74.71050984688931,7.073170524572861,2.221972769874312,2.016939336795248
355,4.719020237103889,74.71050984688931,7.0741397033042075,2.2222226243507657,2.0173344990934345
356,4.732313251856295,74.71050984688931,7.075989336126154,2.2225669341747576,2.0179323974563457
357,4.745606266608699,74.71050984688931,7.0788826772017455,2.2230009510660995,2.0187380418197387
358,4.758899281361105,74.71050984688931,7.082898342183085,2.22350576251569,2.019729922556263
359,4.77219229611351,74.71050984688931,7.08800632314606,2.224046064521359,2.0208560496842973
360,4.785485310865916,74.71050984688931,7.09405356683405,2.2245716980466854,2.0220349468201757
361,4.798778325618321,74.71050984688931,7.100761979135021,2.2250228970402275,2.023161843159544
362,4.812071340370726,74.71050984688931,7.1077402957476075,2.225338445259213,2.024119414061764
363,4.825364355123131,74.71050984688931,7.1145093735279294,2.225465325742463,2.024791606145355
364,4.838657369875537,74.71050984688931,7.120539210357217,2.2253680910509797,2.025078493561077
365,4.851950384627942,74.71050984688931,7.125295525766779,2.2250361597963826,2.0249098624450963
366,4.865243399380347,74.71050984688931,7.128291849214608,2.224487568767523,2.024255366768544
367,4.8785364141327525,74.71050984688931,7.129140117911995,2.2237683254616587,2.02312962417998
368,4.891829428885158,74.71050984688931,7.12759234807275,2.222947300932931,2.0215914347060906
369,4.905122443637564,74.71050984688931,7.123568143879233,2.2221074269457866,2.0197372603997437
370,4.918415458389969,74.71050984688931,7.117165068406321,2.2213346776012792,2.0176900242925697
371,4.931708473142374,74.71050984688931,7.108650844462299,2.220706777879896,2.0155850049117516
372,4.945001487894779,74.71050984688931,7.0984385495719335,2.2202835185093535,2.013554993874841
373,4.958294502647185,74.71050984688931,7.0870481195566795,2.220099987349018,2.0117168911815493
374,4.97158751739959,74.71050984688931,7.0750591434514165,2.220163541276777,2.0101615573070135
375,4.984880532151995,74.71050984688931,7.063060860873392,2.2204550360300965,2.0089481097312842
376,4.9981735469044,74.71050984688931,7.0516053220211,2.2209341270725864,2.008103118797399
377,5.011466561656806,74.71050984688931,7.041168853987571,2.221547488355282,2.007624447607187
378,5.0247595764092114,74.71050984688931,7.032125450111259,2.222238228034234,2.0074885500477744
379,5.038052591161616,74.71050984688931,7.02473373292666,2.2229547188126593,2.007659059654181
380,5.051345605914022,74.71050984688931,7.019137077188202,2.2236573238959987,2.0080945932359047
381,5.064638620666427,74.71050984688931,7.015374667591258,2.2243220152169094,2.0087548166813
382,5.077931635418833,74.71050984688931,7.013400004886186,2.224940556022957,2.009604455934622
383,5.091224650171238,74.71050984688931,7.013102845441441,2.2255176124067706,2.010614942835411
384,5.104517664923643,74.71050984688931,7.014330856863813,2.22606572817549,2.01176370452762
385,5.117810679676048,74.71050984688931,7.016908241635423,2.2265994350709017,2.013031677105088
386,5.131103694428454,74.71050984688931,7.0206494367383145,2.2271298205923027,2.0143999738254816
387,5.144396709180859,74.71050984688931,7.025366547883404,2.2276606471968345,2.0158466981035197
388,5.157689723933264,74.71050984688931,7.030870697472054,2.2281866773103807,2.017344721524489
389,5.1709827386856695,74.71050984688931,7.036969693027247,2.228694317792304,2.0188609157348707
390,5.184275753438075,74.71050984688931,7.043465126102976,2.2291641801003848,2.0203569344155183
391,5.1975687681904805,74.71050984688931,7.050151123088951,2.2295747701816144,2.021791286798335
392,5.210861782942886,74.71050984688931,7.056816106969038,2.2299063496462606,2.02312220448104
393,5.224154797695291,74.71050984688931,7.063248309273753,2.230144070053925,2.024310717024622
394,5.237447812447696,74.71050984688931,7.0692449882289825,2.2302797447693132,2.025323414489778
395,5.250740827200102,74.71050984688931,7.07462447514774,2.2303120140806523,2.026134546322505
396,5.264033841952507,74.71050984688931,7.079239483082374,2.2302450811439427,2.0267273245012554
397,5.277326856704912,74.71050984688931,7.082989676519071,2.2300865465250586,2.027094499910833
398,5.290619871457317,74.71050984688931,7.085831389465928,2.2298450685955653,2.027238412283975
399,5.303912886209723,74.71050984688931,7.087782611453598,2.229528602707719,2.0271707469523763
400,5.317205900962128,74.71050984688931,7.08892190834806,2.2291438191838306,2.0269121658964635
401,5.330498915714534,74.71050984688931,7.089380733803967,2.2286969504317273,2.0264918417711564
402,5.343791930466939,74.71050984688931,7.0893295087675225,2.2281958527350714,2.0259467587507114
403,5.357084945219344,74.71050984688931,7.088958771023742,2.2276526724426415,2.025320490384819
404,5.37037795997175,74.71050984688931,7.088457490717286,2.2270862791649533,2.024661083903963
405,5.383670974724155,74.71050984688931,7.087991189927099,2.226523580953433,2.0240178716503525
406,5.39696398947656,74.71050984688931,7.087682701471972,2.2259989930969315,2.023437463865155
407,5.410257004228965,74.71050984688931,7.087598202614479,2.2255516905903265,2.0229593453483736
408,5.423550018981371,74.71050984688931,7.0877405650218055,2.225220762193517,2.0226113584761376
409,5.436843033733776,74.71050984688931,7.088051134613694,2.2250388926419338,2.022405484502538
410,5.450136048486182,74.71050984688931,7.088419913300861,2.2250256156686086,2.0223346895756085
411,5.4634290632385865,74.71050984688931,7.088702916063411,2.225181410153694,2.0223716718199523
412,5.476722077990992,74.71050984688931,7.088744401444045,2.225483901363884,2.022470099925982
413,5.4900150927433975,74.71050984688931,7.0884008113728,2.2258871748994817,2.0225685714001007
414,5.503308107495803,74.71050984688931,7.087562778260275,2.2263247555395673,2.0225971057749668
415,5.516601122248208,74.71050984688931,7.086172219221311,2.2267162242886025,2.0224855718758126
416,5.529894137000613,74.71050984688931,7.084233195392513,2.2269768401927896,2.022173094215293
417,5.543187151753019,74.71050984688931,7.081815809795899,2.2270289959575646,2.021617246535517
418,5.556480166505424,74.71050984688931,7.079051872275267,2.226813953030801,2.0208017607131175
419,5.56977318125783,74.71050984688931,7.076121890217154,2.226302135664881,2.0197415767630553
420,5.583066196010234,74.71050984688931,7.073235056978019,2.225500348696055,2.0184843319570556
421,5.59635921076264,74.71050984688931,7.070605211311215,2.2244546208141838,2.0171078075135305
422,5.609652225515045,74.71050984688931,7.068426020443108,2.223247928339956,2.0157133700773056
423,5.622945240267451,74.71050984688931,7.066848554800759,2.221992753601841,2.014415993498863
424,5.636238255019856,74.71050984688931,7.065964027845556,2.2208191802565773,2.013331944855813
425,5.649531269772261,74.71050984688931,7.065793748067088,2.2198599129564047,2.0125655909506572
426,5.662824284524667,74.71050984688931,7.066287371125225,2.219234139647467,2.0121969662532773
427,5.676117299277072,74.71050984688931,7.067329480242021,2.219032434717451,2.012271722808852
428,5.689410314029478,74.71050984688931,7.068753505165361,2.219304722064735,2.012794849257746
429,5.702703328781882,74.71050984688931,7.070361106600069,2.2200527133111683,2.013728994678452
430,5.715996343534288,74.71050984688931,7.071944509108353,2.221227722090315,2.0149974546933227
431,5.729289358286693,74.71050984688931,7.07330903787081,2.222734408430185,2.0164913553983923
432,5.742582373039099,74.71050984688931,7.0742933430669295,2.224440312700814,2.0180803741125093
433,5.755875387791503,74.71050984688931,7.074785267319032,2.226190086324693,2.019625985824322
434,5.769168402543909,74.71050984688931,7.074731832873337,2.2278226584998984,2.0209957504649685
435,5.7824614172963145,74.71050984688931,7.074142428588591,2.229189274324458,2.0220769762217157
436,5.79575443204872,74.71050984688931,7.073085036862538,2.2301702600565956,2.0227882187238224
437,5.8090474468011255,74.71050984688931,7.071676143037725,2.2306884773382647,2.023087341708184
438,5.82234046155353,74.71050984688931,7.070065638294197,2.2307177360804067,2.0229752872513784
439,5.835633476305936,74.71050984688931,7.068418518415188,2.230285154804501,2.0224952494968464
440,5.848926491058341,74.71050984688931,7.066895502202082,2.229467496016724,2.02172740686982
441,5.862219505810747,74.71050984688931,7.06563486517941,2.228382111557034,2.020779707586676
442,5.875512520563151,74.71050984688931,7.064737754164017,2.2271732513210236,2.019775605190195
443,5.888805535315557,74.71050984688931,7.064258603496929,2.225994966015342,2.0188400674502565
444,5.902098550067962,74.71050984688931,7.064201103764123,2.2249926168330343,2.018085428785572
445,5.915391564820368,74.71050984688931,7.064519672105107,2.2242853536445537,2.0175986861467443
446,5.928684579572773,74.71050984688931,7.065126580114945,2.2239517712860954,2.0174316997159782
447,5.941977594325178,74.71050984688931,7.065904347728639,2.2240205636029957,2.0175954618158665
448,5.955270609077584,74.71050984688931,7.0667217688214174,2.22446741649506,2.0180591472490477
449,5.968563623829989,74.71050984688931,7.067451223563743,2.225218553297324,2.0187540989329267
450,5.981856638582395,74.71050984688931,7.06798488275306,2.226160370757966,2.019582317909327
451,5.995149653334799,74.71050984688931,7.0682476397905685,2.227153837581958,2.020428484348863
452,6.008442668087205,74.71050984688931,7.068205080680961,2.228051873911141,2.0211740613072595
453,6.02173568283961,74.71050984688931,7.06786552040106,2.228717659462192,2.0217117018348643
454,6.035028697592016,74.71050984688931,7.067276011000754,2.229041762438229,2.021958171274925
455,6.048321712344421,74.71050984688931,7.06651314815123,2.228956014019054,2.0218643186280603
456,6.061614727096826,74.71050984688931,7.065670330579539,2.2284421868285254,2.021420986437464
457,6.074907741849231,74.71050984688931,7.0648437244399105,2.2275341949039236,2.020660092376153
458,6.088200756601637,74.71050984688931,7.0641194404116066,2.2263136235239127,2.0196507355338813
459,6.1014937713540425,74.71050984688931,7.0635642794074975,2.224899378044849,2.018490984748774
460,6.114786786106447,74.71050984688931,7.06322183731273,2.2234329629719407,2.017296622975077
461,6.128079800858853,74.71050984688931,7.063114839025809,2.2220614147964945,2.0161884518004625
462,6.141372815611258,74.71050984688931,7.06325341721092,2.2209201526468667,2.0152798479456844
463,6.154665830363664,74.71050984688931,7.063647831469833,2.220117931742619,2.0146661174609073
464,6.167958845116069,74.71050984688931,7.064323040738367,2.219725722671794,2.014416824643035
465,6.181251859868474,74.71050984688931,7.065331803591563,2.2197707479269133,2.0145716178511166
466,6.194544874620879,74.71050984688931,7.06676276981161,2.22023602093093,2.0151392652357503
467,6.207837889373285,74.71050984688931,7.068740461477678,2.221064710015776,2.0160991609322196
468,6.22113090412569,74.71050984688931,7.07141514493366,2.222168097764573,2.017404561747382
469,6.234423918878095,74.71050984688931,7.074942266063679,2.2234359100228076,2.0189868017053048
470,6.2477169336305005,74.71050984688931,7.079453132531743,2.22474774723967,2.0207596979592704
471,6.261009948382906,74.71050984688931,7.085020543596613,2.2259842391238305,2.0226236308338574
472,6.274302963135312,74.71050984688931,7.091624697330746,2.227036773482558,2.0244692605518244
473,6.287595977887717,74.71050984688931,7.099125567589903,2.2278151436125757,2.0261812393821157
474,6.300888992640122,74.71050984688931,7.107247738528138,2.228252912420885,2.027642467461097
475,6.314182007392527,74.71050984688931,7.11558229765362,2.228310602197912,2.028739513302754
476,6.327475022144933,74.71050984688931,7.1236077185080235,2.2279770686663447,2.0293697464530225
477,6.340768036897338,74.71050984688931,7.130728183361734,2.2272695840811636,2.0294501615663907
478,6.354061051649743,74.71050984688931,7.136325940408357,2.2262329507286744,2.0289269471278724
479,6.367354066402148,74.71050984688931,7.139824329906832,2.2249374841385783,2.027784285013944
480,6.380647081154554,74.71050984688931,7.140755238847231,2.2234754902294322,2.0260508104478134
481,6.393940095906959,74.71050984688931,7.138819530003931,2.221955996644252,2.023802293330463
482,6.407233110659365,74.71050984688931,7.133928918673111,2.2204976941865833,2.021159426043343
483,6.42052612541177,74.71050984688931,7.126222915760803,2.2192202722441206,2.018280226343373
484,6.433819140164175,74.71050984688931,7.1160591104854145,2.218234626935494,2.015347390031527
485,6.447112154916581,74.71050984688931,7.103978380784621,2.2176327188727987,2.0125517892493145
486,6.460405169668986,74.71050984688931,7.090649900411236,2.2174781607523104,2.0100740428604795
487,6.473698184421391,74.71050984688931,7.076803594897564,2.217798833399215,2.008066542187476
488,6.486991199173796,74.71050984688931,7.063159296328512,2.218582755298681,2.0066384016700076
489,6.500284213926202,74.71050984688931,7.050361989514004,2.21977804646768,2.005845548081456
490,6.513577228678607,74.71050984688931,7.038931208772857,2.221297277211946,2.0056875766707054
491,6.526870243431013,74.71050984688931,7.029230095304891,2.223025866933206,2.0061116927373837
492,6.5401632581834175,74.71050984688931,7.021456333045883,2.2248335761057803,2.007022276366711
493,6.553456272935823,74.71050984688931,7.015653741150595,2.2265876378167184,2.008293974001879
494,6.5667492876882285,74.71050984688931,7.011740313042956,2.2281658117666967,2.0097868433404247
495,6.580042302440634,74.71050984688931,7.009546442020495,2.2294676709898993,2.0113620981967975
496,6.593335317193039,74.71050984688931,7.008856245166951,2.2304227471234945,2.012896389117997
497,6.606628331945444,74.71050984688931,7.009445326310322,2.230994700593216,2.014292687581041
498,6.61992134669785,74.71050984688931,7.011109804804313,2.2311813389715156,2.015486678631625
499,6.633214361450255,74.71050984688931,7.013683601557078,2.2310109511606786,2.0164484405380634
500,6.646507376202661,74.71050984688931,7.017043343934768,2.230535936488691,2.0171799170551443
501,6.659800390955065,74.71050984688931,7.021102386813869,2.2298249991053294,2.0177092137203805
502,6.673093405707471,74.71050984688931,7.0257970432890104,2.2289552112667717,2.0180830165283634
503,6.686386420459876,74.71050984688931,7.0310689852028725,2.2280050399371456,2.018358440015357
504,6.699679435212282,74.71050984688931,7.036847836076003,2.227049042462431,2.018595405015774
505,6.712972449964687,74.71050984688931,7.043037350906991,2.2261544635054333,2.018850299260051
506,6.726265464717092,74.71050984688931,7.0495075046270825,2.2253795127300378,2.0191712758699882
507,6.739558479469498,74.71050984688931,7.056093546112801,2.2247727658504832,2.019595181572049
508,6.752851494221903,74.71050984688931,7.06260184315242,2.22437297566672,2.020145844803743
509,6.766144508974309,74.71050984688931,7.06882133171102,2.224208627212922,2.020833330178054
510,6.779437523726713,74.71050984688931,7.074538705178639,2.224296799094196,2.021653781505545
511,6.792730538479119,74.71050984688931,7.0795551724535795,2.2246412394545025,2.0225896008102295
512,6.806023553231524,74.71050984688931,7.083702648602876,2.225229943854778,2.023609894394723
513,6.81931656798393,74.71050984688931,7.08685754426009,2.226032843274619,2.024671300750286
514,6.832609582736335,74.71050984688931,7.088950794006639,2.22700039808274,2.0257194472310616
515,6.84590259748874,74.71050984688931,7.089973312869279,2.22806390166214,2.0266913272049343
516,6.8591956122411455,74.71050984688931,7.089976610861661,2.229138116471168,2.027518831792506
517,6.872488626993551,74.71050984688931,7.08906876762753,2.2301265147192124,2.0281335123064186
518,6.8857816417459565,74.71050984688931,7.087406336872239,2.2309289381183106,2.0284724126363325
519,6.899074656498361,74.71050984688931,7.0851830005285255,2.2314510800214613,2.0284844938683264
520,6.912367671250767,74.71050984688931,7.08261593156827,2.2316148959869877,2.0281368460319205
521,6.925660686003172,74.71050984688931,7.079930872072107,2.2313687201506225,2.0274199326406217
522,6.938953700755578,74.71050984688931,7.077346917731377,2.2306955695196784,2.0263515348135237
523,6.952246715507982,74.71050984688931,7.075061950430675,2.2296181885788684,2.0249789485299465
524,6.965539730260388,74.71050984688931,7.073239598694228,2.228199832180745,2.023378389567749
525,6.978832745012793,74.71050984688931,7.071998538840982,2.2265403543250906,2.0216507508656654
526,6.992125759765199,74.71050984688931,7.071404867673271,2.224767784328995,2.0199138258228
527,7.005418774517604,74.71050984688931,7.071468157430766,2.2230262134859005,2.018291846605713
528,7.018711789270009,74.71050984688931,7.072141620767792,2.221461380183649,2.016903546573644
529,7.032004804022415,74.71050984688931,7.073326555163271,2.2202057165682003,2.015850193038546
530,7.04529781877482,74.71050984688931,7.074880913095487,2.2193647292210548,2.01520510910625
531,7.058590833527226,74.71050984688931,7.076631492223076,2.219006401124096,2.0150060451444936
532,7.07188384827963,74.71050984688931,7.078388910654687,2.2191548515758717,2.015251387293747
533,7.085176863032036,74.71050984688931,7.079964277967697,2.219788856118933,2.0159006595869475
534,7.098469877784441,74.71050984688931,7.0811863276686475,2.2208451324584524,2.016879179296451
535,7.111762892536847,74.71050984688931,7.081917748629309,2.2222256655322434,2.0180861656068867
536,7.125055907289251,74.71050984688931,7.082069522030605,2.2238078331695044,2.019405174309911
537,7.138348922041657,74.71050984688931,7.0816121999111585,2.2254557896478575,2.020715503271701
538,7.151641936794063,74.71050984688931,7.0805832131509945,2.2270316711873415,2.021903212539559
539,7.164934951546468,74.71050984688931,7.079089445057157,2.228405658794004,2.0228706121630062
540,7.1782279662988735,74.71050984688931,7.077304448995253,2.2294643826007587,2.023543432204833
541,7.191520981051278,74.71050984688931,7.075459848516159,2.230117457332296,2.0238753163282195
542,7.204813995803684,74.71050984688931,7.073830682576808,2.230302263508717,2.02384967674336
543,7.218107010556089,74.71050984688931,7.0727148039790455,2.2299873465473787,2.023479232181683
544,7.231400025308495,74.71050984688931,7.072406954238042,2.2291747941590905,2.0228036756783325
545,7.244693040060899,74.71050984688931,7.073168836347845,2.227901688473963,2.021885888115537
546,7.257986054813305,74.71050984688931,7.075197342247818,2.2262403524430217,2.0208069781224456
547,7.27127906956571,74.71050984688931,7.078593944184417,2.2242967629990784,2.0196602730395496
548,7.284572084318116,74.71050984688931,7.0833389389313055,2.222206327629969,2.0185442982041057
549,7.297865099070521,74.71050984688931,7.08927451832364,2.220126323128205,2.017554826175487
550,7.311158113822926,74.71050984688931,7.0961003035770265,2.2182247084459457,2.016776268488856
551,7.3244511285753315,74.71050984688931,7.1033839265462895,2.216665694641162,2.0162729789647784
552,7.337744143327737,74.71050984688931,7.110587719324116,2.215593250097759,2.0160813531450588
553,7.351037158080143,74.71050984688931,7.117110734155546,2.2151144776716416,2.0162038362068446
554,7.364330172832547,74.71050984688931,7.122342859719794,2.2152853205703162,2.016605994839586
555,7.377623187584953,74.71050984688931,7.1257251580545145,2.2161009900255286,2.0172176074146018
556,7.390916202337358,74.71050984688931,7.126808983041666,2.217492822741373,2.0179382764735467
557,7.404209217089764,74.71050984688931,7.125306300095125,2.219332548422763,2.018647422802453
558,7.417502231842169,74.71050984688931,7.121124448933153,2.221444279252993,2.0192177873330253
559,7.430795246594574,74.71050984688931,7.114380314496758,2.223623363277346,2.0195308843230153
560,7.444088261346979,74.71050984688931,7.105391496907748,2.225659785592172,2.019492360215445
561,7.457381276099385,74.71050984688931,7.094645224092416,2.2273628322959773,2.019045034965224
562,7.4706742908517905,74.71050984688931,7.082748905527393,2.228583455137916,2.0181776004420686
563,7.483967305604195,74.71050984688931,7.070368857038609,2.2292310716409167,2.016927515957106
564,7.497260320356601,74.71050984688931,7.058165377741288,2.229282353354382,2.0153774919311016
565,7.510553335109006,74.71050984688931,7.046732735103652,2.2287807859239406,2.0136459466005863
566,7.523846349861412,74.71050984688931,7.036551638978634,2.2278273015574035,2.011872786271696
567,7.537139364613817,74.71050984688931,7.0279596299529645,2.2265638141485047,2.010202625224528
568,7.550432379366222,74.71050984688931,7.0211418556369685,2.2251525347518704,2.0087680375245203
569,7.563725394118627,74.71050984688931,7.016141485021659,2.223754325583489,2.007675515269537
570,7.577018408871033,74.71050984688931,7.012886077691983,2.222509253838929,2.0069960701520824
571,7.590311423623438,74.71050984688931,7.011224071834751,2.2215219756142695,2.0067610091397117
572,7.603604438375843,74.71050984688931,7.010964513939732,2.220853673750316,2.0069626782975885
573,7.616897453128248,74.71050984688931,7.011913336660313,2.2205211766105957,2.0075600368469795
574,7.630190467880654,74.71050984688931,7.013900823261201,2.2205026773874073,2.0084883371873743
575,7.6434834826330595,74.71050984688931,7.016797051252041,2.2207483723460473,2.009671039529087
576,7.656776497385465,74.71050984688931,7.020514327372512,2.2211936680094793,2.0110316463495055
577,7.67006951213787,74.71050984688931,7.024997512240103,2.221772452579485,2.0125034676679716
578,7.683362526890275,74.71050984688931,7.030205217505535,2.2224282021317907,2.014035922325974
579,7.696655541642681,74.71050984688931,7.036086830566702,2.223121301576501,2.015596697129244
580,7.709948556395086,74.71050984688931,7.042560787269797,2.2238317733142923,2.017169840398527
581,7.723241571147491,74.71050984688931,7.049498478432534,2.224557468605342,2.018750537777063
582,7.736534585899896,74.71050984688931,7.056716744548934,2.2253085446205287,2.0203378149646425
583,7.749827600652302,74.71050984688931,7.06398039727789,2.2260996116925864,2.0219266767167365
584,7.763120615404707,74.71050984688931,7.071014561735783,2.2269412230238332,2.0235012064923152
585,7.776413630157113,74.71050984688931,7.077525109720519,2.2278323754277527,2.0250299358481247
586,7.789706644909518,74.71050984688931,7.0832243037736395,2.228755423525196,2.0264643959056388
587,7.802999659661923,74.71050984688931,7.087858128780181,2.2296743458079495,2.027741252584864
588,7.816292674414329,74.71050984688931,7.091231692911659,2.2305367239649976,2.0287878768652448
589,7.829585689166734,74.71050984688931,7.093229483297324,2.2312791939456256,2.0295306809413414
590,7.842878703919139,74.71050984688931,7.093828047481982,2.2318355776942016,2.029905116937694
591,7.856171718671544,74.71050984688931,7.093099687305834,2.232146453631204,2.029865931336014
592,7.86946473342395,74.71050984688931,7.091206841798215,2.232168629700334,2.029396099189838
593,7.882757748176355,74.71050984688931,7.088387866103537,2.231883041793242,2.0285128667321866
594,7.896050762928761,74.71050984688931,7.084935784991556,2.231299994798805,2.0272697776061075
595,7.909343777681165,74.71050984688931,7.081172248836088,2.230460914611513,2.0257543888079814
596,7.922636792433571,74.71050984688931,7.077419314549967,2.2294358712297626,2.0240818267259613
597,7.935929807185976,74.71050984688931,7.073971805160789,2.2283166524505877,2.0223843517900177
598,7.949222821938382,74.71050984688931,7.071072878977172,2.2272060589444305,2.0207976079506085
599,7.962515836690787,74.71050984688931,7.068895086219392,2.226204802611154,2.019445164091856
600,7.975808851443192,74.71050984688931,7.067528642385164,2.225397806882138,2.018423491575375
601,7.989101866195598,74.71050984688931,7.066977947757441,2.2248419191839757,2.017789554954295
602,8.002394880948003,74.71050984688931,7.067166584836276,2.2245570035106814,2.0175529462417585
603,8.015687895700408,74.71050984688931,7.067950193921282,2.2245220370265626,2.0176739847034204
604,8.028980910452814,74.71050984688931,7.069135836398887,2.2246772017232117,2.018068446688596
605,8.042273925205219,74.71050984688931,7.070505788647854,2.2249321023394644,2.018618668362495
606,8.055566939957624,74.71050984688931,7.071843249990629,2.2251792683079596,2.019189800069286
607,8.06885995471003,74.71050984688931,7.072957264603727,2.2253111621869666,2.0196491331527673
608,8.082152969462435,74.71050984688931,7.073704286962209,2.2252381877770198,2.01988581862213
609,8.095445984214841,74.71050984688931,7.074004254017213,2.2249048208289537,2.019828075435072
610,8.108738998967246,74.71050984688931,7.073849703273424,2.2243010783859236,2.0194552125514087
611,8.12203201371965,74.71050984688931,7.073307287601922,2.223467127435237,2.0188024563096882
612,8.135325028472057,74.71050984688931,7.072511854494059,2.2224898467380325,2.0179575956877396
613,8.148618043224461,74.71050984688931,7.07165395544452,2.2214914474953393,2.0170496770327895
614,8.161911057976868,74.71050984688931,7.070962143118268,2.22061161469668,2.016231200816187
615,8.175204072729272,74.71050984688931,7.070681670547899,2.219985813036895,2.0156562954636237
616,8.188497087481677,74.71050984688931,7.071051259783806,2.2197231883120803,2.01545800064786
617,8.201790102234083,74.71050984688931,7.072279534777298,2.219887750192404,2.015727977531193
618,8.215083116986488,74.71050984688931,7.074522607727287,2.220486166933678,2.0165016655241326
619,8.228376131738893,74.71050984688931,7.077864242715818,2.2214643829549297,2.017751161230704
620,8.241669146491299,74.71050984688931,7.082300019802309,2.2227135726563656,2.0193868493264393
621,8.254962161243704,74.71050984688931,7.087726951337853,2.224084459768671,2.021267265392442
622,8.26825517599611,74.71050984688931,7.093939971300625,2.225408016460383,2.0232155123447226
623,8.281548190748515,74.71050984688931,7.100636518472438,2.2265194872893415,2.0250400027923185
624,8.29484120550092,74.71050984688931,7.107429945250387,2.2272817633276127,2.026556837450561
625,8.308134220253326,74.71050984688931,7.113871687644883,2.2276042569383474,2.0276107207511833
626,8.32142723500573,74.71050984688931,7.119481329253629,2.227454579017616,2.028091468655204
627,8.334720249758137,74.71050984688931,7.1237829659313565,2.2268615234026616,2.027943989187135
628,8.348013264510541,74.71050984688931,7.126345099198928,2.2259088930612756,2.0271707934115732
629,8.361306279262946,74.71050984688931,7.126819888544662,2.2247211686253068,2.025827305446955
630,8.374599294015352,74.71050984688931,7.124977138217217,2.2234436582424713,2.0240112929976872
631,8.387892308767757,74.71050984688931,7.120729023572012,2.2222207135507586,2.0218484995414885
632,8.401185323520163,74.71050984688931,7.114142579469477,2.221175685134231,2.019476916727577
633,8.414478338272568,74.71050984688931,7.1054382517097725,2.2203957693507643,2.017032055172391
634,8.427771353024973,74.71050984688931,7.094974431480219,2.2199238951077946,2.014635106919774
635,8.44106436777738,74.71050984688931,7.083219626692901,2.219758342828178,2.0123851646925868
636,8.454357382529784,74.71050984688931,7.07071547339259,2.219859172872152,2.0103558323423036
637,8.467650397282188,74.71050984688931,7.05803490067521,2.220159484724307,2.0085957920242627
638,8.480943412034595,74.71050984688931,7.045740240554255,2.220579213543167,2.00713232149472
639,8.494236426787,74.71050984688931,7.034345831608077,2.2210390674194906,2.0059764651691
640,8.507529441539406,74.71050984688931,7.024288740969046,2.2214722887078637,2.0051285741877813
641,8.52082245629181,74.71050984688931,7.01590979111957,2.221832532639495,2.004583246811202
642,8.534115471044215,74.71050984688931,7.009445395086875,2.222097138979463,2.004333203081452
643,8.547408485796621,74.71050984688931,7.005029093651433,2.2222660513576957,2.004371789118876
644,8.560701500549026,74.71050984688931,7.0027004469804615,2.222357410947707,2.004693589056306
645,8.573994515301433,74.71050984688931,7.002418282227447,2.2224013007798336,2.0052931078653216
646,8.587287530053837,74.71050984688931,7.004075307624169,2.2224331912200137,2.0061625969436703
647,8.600580544806242,74.71050984688931,7.007511592798637,2.222488368926977,2.007290243880355
648,8.613873559558648,74.71050984688931,7.0125252216380956,2.2225981232589875,2.0086591413622474
649,8.627166574311053,74.71050984688931,7.0188796201421395,2.222787861190656,2.0102469166409094
650,8.64045958906346,74.71050984688931,7.0263083813223375,2.2230767775960145,2.012025785679475
651,8.653752603815864,74.71050984688931,7.034519205858032,2.2234783482829865,2.0139627408880765
652,8.667045618568268,74.71050984688931,7.0431987140046886,2.2240008100023267,2.01601959463051
653,8.680338633320675,74.71050984688931,7.052019650970075,2.2246469485448808,2.0181527274621005
654,8.69363164807308,74.71050984688931,7.060651481265501,2.225412872089994,2.0203125932222292
655,8.706924662825484,74.71050984688931,7.06877455938651,2.2262858951856788,2.0224432514322834
656,8.72021767757789,74.71050984688931,7.076097136885654,2.2272420747807797,2.024482358010423
657,8.733510692330295,74.71050984688931,7.082373615813885,2.2282442131689493,2.026362089548175
658,8.746803707082702,74.71050984688931,7.087421852271747,2.2292412027868793,2.0280113777297193
659,8.760096721835106,74.71050984688931,7.0911370743141,2.230169418207656,2.0293596029359984
660,8.77338973658751,74.71050984688931,7.093500163179757,2.230956498629654,2.0303415905035593
661,8.786682751339917,74.71050984688931,7.0945786397599,2.231527391583343,2.0309034430049193
662,8.799975766092322,74.71050984688931,7.094519612184919,2.231812030088353,2.031008502025484
663,8.813268780844728,74.71050984688931,7.093535030300995,2.23175360543132,2.030642619801204
664,8.826561795597133,74.71050984688931,7.091880678058194,2.2313163322596026,2.029817947204782
665,8.839854810349538,74.71050984688931,7.089831229442706,2.230491881380656,2.0285746000812814
666,8.853147825101944,74.71050984688931,7.0876542407865495,2.2293037526630624,2.0269798954329206
667,8.866440839854349,74.71050984688931,7.0855860577996985,2.2278087368049646,2.0251252732637504
668,8.879733854606755,74.71050984688931,7.083812270458028,2.2260948911541623,2.0231212219198893
669,8.89302686935916,74.71050984688931,7.082454632503876,2.2242760841779625,2.021090479778762
670,8.906319884111564,74.71050984688931,7.081565422628377,2.2224835994156,2.0191598463347575
671,8.91961289886397,74.71050984688931,7.081129239404656,2.220855493016417,2.017451132636895
672,8.932905913616375,74.71050984688931,7.081071351278501,2.2195245613591057,2.016071886961912
673,8.94619892836878,74.71050984688931,7.081271079147074,2.218605920934195,2.015106553985446
674,8.959491943121186,74.71050984688931,7.0815782736856585,2.2181853154360804,2.0146087594306303
675,8.972784957873591,74.71050984688931,7.081830782175116,2.2183093218088903,2.014595443601492
676,8.986077972625997,74.71050984688931,7.081871258365175,2.2189785464571363,2.015043552898332
677,8.999370987378402,74.71050984688931,7.081562612041546,2.2201446682691595,2.0158899098165834
678,9.012664002130808,74.71050984688931,7.080801552240137,2.2217119289321285,2.017034697492834
679,9.025957016883211,74.71050984688931,7.079529023783893,2.22354340078725,2.018348682507054
680,9.039250031635618,74.71050984688931,7.077736452449294,2.225471915416354,2.0196838817544105
681,9.052543046388024,74.71050984688931,7.075467605994029,2.2273149446007015,2.0208869716960907
682,9.065836061140429,74.71050984688931,7.072816341971082,2.228892174516416,2.0218143815399667
683,9.079129075892832,74.71050984688931,7.069920501406796,2.23004402523612,2.0223476666860583
684,9.09242209064524,74.71050984688931,7.066952201646826,2.2306489717515006,2.0224074814163298
685,9.105715105397644,74.71050984688931,7.064104876957403,2.230637617819237,2.0219643381222787
686,9.11900812015005,74.71050984688931,7.061577617815392,2.230002076527373,2.021044426908131
687,9.132301134902455,74.71050984688931,7.059557684415423,2.228799436303853,2.0197291917190805
688,9.14559414965486,74.71050984688931,7.058202481033363,2.227147975769825,2.0181481069487917
689,9.158887164407266,74.71050984688931,7.057622688579877,2.2252155551098016,2.0164650219089837
690,9.172180179159673,74.71050984688931,7.057868600704083,2.2232011691032056,2.0148594057521803
691,9.185473193912076,74.71050984688931,7.058921840374864,2.2213118988690557,2.013504700399367
692,9.198766208664482,74.71050984688931,7.060693949495795,2.2197382102823653,2.012546609253284
693,9.212059223416889,74.71050984688931,7.063031921490333,2.2186308956348997,2.0120844226034116
694,9.225352238169291,74.71050984688931,7.065730109969104,2.218082882195508,2.0121583126836464
695,9.238645252921698,74.71050984688931,7.068548180241817,2.218118577577368,2.0127445468986735
696,9.251938267674102,74.71050984688931,7.071234057435654,2.218692337351526,2.0137589285133237
697,9.265231282426509,74.71050984688931,7.0735492868906675,2.2196961875603485,2.0150677297423467
698,9.278524297178912,74.71050984688931,7.075293452002254,2.220975644293776,2.016505089885324
699,9.29181731193132,74.71050984688931,7.076324453386378,2.2223515387993635,2.017895017469357
700,9.305110326683725,74.71050984688931,7.07657202837571,2.2236449058531265,2.019074885488095
701,9.31840334143613,74.71050984688931,7.076042812388903,2.224701358372461,2.019916838862934
702,9.331696356188536,74.71050984688931,7.074816441329991,2.2254113695160096,2.020343927161444
703,9.34498937094094,74.71050984688931,7.073033412788782,2.225723533871559,2.0203386075800434
704,9.358282385693348,74.71050984688931,7.070876483934095,2.225648978835825,2.0199425243261113
705,9.371575400445751,74.71050984688931,7.068548229546495,2.225256474539357,2.019248003684701
706,9.384868415198156,74.71050984688931,7.0662478826969695,2.2246592298999146,2.0183829167288847
707,9.398161429950562,74.71050984688931,7.064150594714692,2.2239956287490448,2.017491262868339
708,9.411454444702969,74.71050984688931,7.062391776097547,2.2234070564047794,2.0167123669995095
709,9.424747459455372,74.71050984688931,7.0610581795874845,2.2230163326922376,2.016161852931434
710,9.438040474207778,74.71050984688931,7.060186046454401,2.2229100349785518,2.0159171740196005
711,9.451333488960184,74.71050984688931,7.059765591797601,2.2231272422586943,2.016009583727774
712,9.464626503712587,74.71050984688931,7.05975052747832,2.223656108035269,2.0164233189183114
713,9.477919518464994,74.71050984688931,7.060070751936755,2.2244383483783556,2.017101579287943
714,9.491212533217398,74.71050984688931,7.060645847390644,2.225380446874925,2.017957811521448
715,9.504505547969805,74.71050984688931,7.0613970769709,2.2263693713209367,2.018890081541707
716,9.51779856272221,74.71050984688931,7.0622561346331025,2.227290023118889,2.0197960440383746
717,9.531091577474616,74.71050984688931,7.0631696928033225,2.228041526226604,2.0205861851912763
718,9.54438459222702,74.71050984688931,7.064099657188474,2.2285498033997313,2.0211935528968277
719,9.557677606979423,74.71050984688931,7.065019840370171,2.228774863054698,2.021578969110625
720,9.570970621731831,74.71050984688931,7.065910376554149,2.228712619613045,2.021731580813488
721,9.584263636484236,74.71050984688931,7.066751534740248,2.2283919138156016,2.021665413640513
722,9.597556651236642,74.71050984688931,7.067518615127576,2.227867541768009,2.021413208847592
723,9.610849665989049,74.71050984688931,7.068179355477902,2.2272104989503725,2.021019096774439
724,9.624142680741452,74.71050984688931,7.0686947931476904,2.2264972616830283,2.02053157073092
725,9.637435695493858,74.71050984688931,7.069023910253532,2.225799976075479,2.0199979114427893
726,9.650728710246264,74.71050984688931,7.069131724374356,2.2251789236936124,2.0194607603515378
727,9.664021724998667,74.71050984688931,7.068999857261007,2.2246779796666623,2.0189569880736253
728,9.677314739751074,74.71050984688931,7.068638086699406,2.2243231227325952,2.0185184623781267
729,9.690607754503478,74.71050984688931,7.068095015214018,2.2241234909753214,2.0181739127413874
730,9.703900769255885,74.71050984688931,7.06746581611673,2.224074098573936,2.0179508850444474
731,9.71719378400829,74.71050984688931,7.066895077060199,2.224159189503008,2.017876804457808
732,9.730486798760694,74.71050984688931,7.066573080266251,2.224355306832766,2.017978401946157
733,9.7437798135131,74.71050984688931,7.066724450544477,2.2246334544315527,2.018279158144653
734,9.757072828265503,74.71050984688931,7.067588957857197,2.224960137265814,2.0187949000770002
735,9.770365843017911,74.71050984688931,7.069395335185978,2.2252974848441385,2.0195281623097405
736,9.783658857770316,74.71050984688931,7.072330170377543,2.225602992255358,2.020462309133248
737,9.79695187252272,74.71050984688931,7.076505102610592,2.225829582873427,2.0215566389737787
738,9.810244887275127,74.71050984688931,7.081926500600449,2.225926673686614,2.02274371261795
739,9.823537902027532,74.71050984688931,7.088472297908492,2.225842719555462,2.023929949504918
740,9.836830916779938,74.71050984688931,7.095880493371335,2.2255293760445847,2.0250001395664405
741,9.850123931532345,74.71050984688931,7.103752858729073,2.224947026775688,2.025825970090496
742,9.863416946284747,74.71050984688931,7.111575460300346,2.2240710537917963,2.026278041258749
743,9.876709961037154,74.71050984688931,7.118754961009164,2.22289796230413,2.026240230769966
744,9.890002975789558,74.71050984688931,7.124668161103615,2.2214503550807474,2.025624762990765
745,9.903295990541965,74.71050984688931,7.128722030510534,2.219779806141961,2.0243860280710337
746,9.91658900529437,74.71050984688931,7.130418790128025,2.217966895984835,2.022531144779197
747,9.929882020046774,74.71050984688931,7.129415963149448,2.2161180077751688,2.020125496094385
748,9.94317503479918,74.71050984688931,7.125570815268938,2.2143588954652373,2.017291976907505
749,9.956468049551583,74.71050984688931,7.118962445072039,2.212825512857733,2.0142034264176836
750,9.96976106430399,74.71050984688931,7.109888560221264,2.2116530591210406,2.0110685878349144
751,9.983054079056396,74.71050984688931,7.098837053842111,2.2109641917691363,2.008112833981245
752,9.9963470938088,74.71050984688931,7.086435871234199,2.2108569239294558,2.005555700420615
753,10.009640108561207,74.71050984688931,7.073387831397725,2.2113930109798994,2.003587858498783
754,10.022933123313612,74.71050984688931,7.060399303416305,2.212588589683748,2.00235048677318
755,10.036226138066016,74.71050984688931,7.048112508396528,2.214408855200707,2.001919966049741
756,10.049519152818425,74.71050984688931,7.0370505222890865,2.2167676153061944,2.0022999791947553
757,10.062812167570828,74.71050984688931,7.027581887279481,2.219531841317827,2.0034215695636726
758,10.076105182323232,74.71050984688931,7.0199084652526595,2.222530949197721,2.005150847733435
759,10.08939819707564,74.71050984688931,7.014076361888625,2.2255701212064882,2.0073039525444414
760,10.102691211828043,74.71050984688931,7.010006091692117,2.2284465437299548,2.0096680618026865
761,10.11598422658045,74.71050984688931,7.007535289692818,2.230967088785079,2.0120258249050123
762,10.129277241332854,74.71050984688931,7.0064657005561894,2.2329657482475795,2.0141798952273566
763,10.14257025608526,74.71050984688931,7.006606129367531,2.234319073291508,2.0159743939208488
764,10.155863270837663,74.71050984688931,7.007804542869629,2.2349579909365493,2.017310676330413
765,10.16915628559007,74.71050984688931,7.009965189863496,2.23487466392702,2.018155587951603
766,10.182449300342476,74.71050984688931,7.013049239813371,2.2341235126632757,2.0185414172523535
767,10.19574231509488,74.71050984688931,7.017059537883771,2.232816086437181,2.0185578365970542
768,10.209035329847286,74.71050984688931,7.0220130511812915,2.2311101068787016,2.018337129499013
769,10.222328344599692,74.71050984688931,7.027907946488281,2.2291937068435956,2.018034804534005
770,10.235621359352097,74.71050984688931,7.034693085380274,2.227266561832878,2.017808197793842
771,10.248914374104505,74.71050984688931,7.042245982184223,2.225519989468911,2.0177958136356096
772,10.262207388856908,74.71050984688931,7.050363112119834,2.224118124133928,2.0180999421626575
773,10.275500403609312,74.71050984688931,7.058764344663253,2.2231821739082167,2.0187745620098725
774,10.28879341836172,74.71050984688931,7.067110926556337,2.2227794702432555,2.0198197688577366
775,10.302086433114123,74.71050984688931,7.075034223720374,2.2229183869058735,2.0211830730014197
776,10.315379447866528,74.71050984688931,7.082170785372225,2.2235494901218122,2.022767008200665
777,10.328672462618934,74.71050984688931,7.088198453538148,2.2245726525730887,2.0244417136878905
778,10.34196547737134,74.71050984688931,7.092868296967353,2.225849178343516,2.026060598458321
779,10.355258492123744,74.71050984688931,7.096028028819036,2.2272173366332004,2.0274769435780358
780,10.36855150687615,74.71050984688931,7.097634069234067,2.2285093494213237,2.02855936462722
781,10.381844521628556,74.71050984688931,7.097751245359831,2.2295678684577234,2.029204410086446
782,10.39513753638096,74.71050984688931,7.096540959478854,2.2302602896325077,2.029345102153463
783,10.408430551133366,74.71050984688931,7.0942402038182655,2.230489804584724,2.0289548388637058
784,10.421723565885772,74.71050984688931,7.091134836292113,2.230202597680031,2.028046912493663
785,10.435016580638177,74.71050984688931,7.0875309385019865,2.2293909646255567,2.026670806780845
786,10.44830959539058,74.71050984688931,7.083727855436785,2.22809253448873,2.024906602248547
787,10.461602610142988,74.71050984688931,7.079995770906375,2.2263861702336176,2.022858245138812
788,10.474895624895392,74.71050984688931,7.076559587808961,2.22438529418609,2.0206461557869617
789,10.4881886396478,74.71050984688931,7.07358968186764,2.222229345525783,2.018399756847363
790,10.501481654400203,74.71050984688931,7.071199003013309,2.2200739493611668,2.016250341273383
791,10.514774669152608,74.71050984688931,7.069445190632913,2.218080234499181,2.0143243273200397
792,10.528067683905014,74.71050984688931,7.068335958670804,2.2164036399556952,2.0127367126355873
793,10.54136069865742,74.71050984688931,7.06783602179747,2.215182550358911,2.0115845164552515
794,10.554653713409824,74.71050984688931,7.067874219170857,2.2145272184484464,2.0109401709481793
795,10.56794672816223,74.71050984688931,7.0683501228618075,2.2145096543243,2.010845174507047
796,10.581239742914637,74.71050984688931,7.069140124148502,2.2151554221760867,2.011304751307032
797,10.59453275766704,74.71050984688931,7.070103591170321,2.216438453264742,2.012284454990549
798,10.607825772419446,74.71050984688931,7.071090029890749,2.218279958393119,2.0137095189501646
799,10.62111878717185,74.71050984688931,7.071948161398409,2.2205523222453807,2.015467753705246
800,10.634411801924257,74.71050984688931,7.072537441281273,2.223088446607259,2.0174168621928583
801,10.64770481667666,74.71050984688931,7.072741869917992,2.225696275280564,2.0193964560597895
802,10.660997831429068,74.71050984688931,7.072485127152017,2.228177291323911,2.021243907294581
803,10.674290846181473,74.71050984688931,7.071745297988972,2.2303469075569575,2.0228121949395277
804,10.687583860933875,74.71050984688931,7.070566916161529,2.2320540159041973,2.023987321970984
805,10.700876875686284,74.71050984688931,7.069067870922749,2.233196672758238,2.0247026426059986
806,10.714169890438688,74.71050984688931,7.067438961445809,2.2337315506594093,2.0249476886950704
807,10.727462905191096,74.71050984688931,7.065934533611294,2.233676282799642,2.0247698229815945
808,10.7407559199435,74.71050984688931,7.06485362739997,2.2331046631391493,2.0242680140875096
809,10.754048934695904,74.71050984688931,7.064512288541128,2.232134708176638,2.0235790733404846
810,10.76734194944831,74.71050984688931,7.065209014838788,2.2309105255230786,2.0228578597926363
811,10.780634964200717,74.71050984688931,7.067186553216669,2.2295806184149494,2.0222540606312105
812,10.79392797895312,74.71050984688931,7.070594261013939,2.228276139335261,2.0218888529593895
813,10.807220993705526,74.71050984688931,7.075455816061731,2.227092516581177,2.0218349229795276
814,10.82051400845793,74.71050984688931,7.081647050388934,2.2260772995815032,2.0221029705690996
815,10.833807023210335,74.71050984688931,7.088887984695883,2.2252261027596254,2.02263699113803
816,10.847100037962742,74.71050984688931,7.096751745425466,2.2244872578778807,2.0233194006110087
817,10.860393052715146,74.71050984688931,7.104690939077104,2.223774405271499,2.0239856278683286
818,10.873686067467553,74.71050984688931,7.112079536555657,2.2229849831408113,2.0244463620712163
819,10.886979082219955,74.71050984688931,7.118266785282122,2.222021622553831,2.0245144405716293
820,10.900272096972364,74.71050984688931,7.122639287356554,2.2208129844900713,2.024032595410358
821,10.913565111724768,74.71050984688931,7.124685446980426,2.219330662724635,2.022898072314688
822,10.926858126477171,74.71050984688931,7.12405336111343,2.217599403946749,2.0210805316294445
823,10.94015114122958,74.71050984688931,7.120593200555283,2.2156989535489964,2.01863057307826
824,10.953444155981984,74.71050984688931,7.114378301420666,2.2137571426205067,2.015677548721692
825,10.96673717073439,74.71050984688931,7.1057023584037955,2.211935177888323,2.0124168388189188
826,10.980030185486797,74.71050984688931,7.095052806609626,2.2104072748185515,2.0090882423502014
827,10.9933232002392,74.71050984688931,7.083063393565252,2.209337635007004,2.005948371012296
828,11.006616214991606,74.71050984688931,7.070451703499494,2.2088581904863758,2.0032407728658446
829,11.01990922974401,74.71050984688931,7.057949441559968,2.2090503031083366,2.0011678435126012
830,11.033202244496415,74.71050984688931,7.04623425740853,2.209932773498999,1.9998684376374132
831,11.046495259248822,74.71050984688931,7.035871573656321,2.2114576595038997,1.9994044567628078
832,11.059788274001226,74.71050984688931,7.027273290012893,2.213514647362885,1.9997580267999313
833,11.073081288753633,74.71050984688931,7.020677590222013,2.2159435578752453,2.0008384630741447
834,11.086374303506036,74.71050984688931,7.016150819162061,2.218553168999139,2.002497033331447
835,11.099667318258442,74.71050984688931,7.013609083267258,2.221143556566698,2.004547747014539
836,11.112960333010848,74.71050984688931,7.012854438961491,2.223528757723143,2.0067918239389675
837,11.126253347763251,74.71050984688931,7.013618749008395,2.2255566409766363,2.0090422154776504
838,11.13954636251566,74.71050984688931,7.015607784407994,2.227123400601882,2.0111443803921394
839,11.152839377268064,74.71050984688931,7.018538947271945,2.2281810098015336,2.012990495765661
840,11.166132392020469,74.71050984688931,7.022167827118687,2.228737107617897,2.0145256122237076
841,11.179425406772877,74.71050984688931,7.026301266403934,2.2288479618146537,2.015745666854461
842,11.19271842152528,74.71050984688931,7.030797277671708,2.228606143149896,2.0166885687386666
843,11.206011436277686,74.71050984688931,7.035554524755394,2.228125202259382,2.017420554868165
844,11.21930445103009,74.71050984688931,7.040495645785072,2.2275238639215598,2.0180205371722013
845,11.232597465782495,74.71050984688931,7.045549237698393,2.22691203540359,2.018565171306527
846,11.245890480534902,74.71050984688931,7.050634911638423,2.226380340478519,2.019116919813743
847,11.259183495287306,74.71050984688931,7.055654640682086,2.2259940780453626,2.019716582977992
848,11.272476510039713,74.71050984688931,7.0604919319359665,2.2257916366448107,2.020380808351624
849,11.285769524792116,74.71050984688931,7.065018537242153,2.2257866422453234,2.021104155905056
850,11.299062539544522,74.71050984688931,7.0691068388167,2.225972607467425,2.021864557206864
851,11.312355554296929,74.71050984688931,7.072644992216649,2.226328655361033,2.0226305773386217
852,11.325648569049331,74.71050984688931,7.075551533736111,2.2268250083643206,2.023368810172369
853,11.338941583801738,74.71050984688931,7.077786468226133,2.2274272967353483,2.0240499817667836
854,11.352234598554144,74.71050984688931,7.079356716096526,2.228099239171274,2.0246528144080123
855,11.365527613306549,74.71050984688931,7.080314988884552,2.2288037541386814,2.025165291907071
856,11.378820628058955,74.71050984688931,7.080752416380804,2.2295029591442606,2.0255835367521806
857,11.39211364281136,74.71050984688931,7.08078632006971,2.2301577320905004,2.0259089554369596
858,11.405406657563764,74.71050984688931,7.080545239917381,2.230727502245705,2.0261445643724256
859,11.418699672316173,74.71050984688931,7.080153589686171,2.231170744817452,2.026291455476931
860,11.431992687068576,74.71050984688931,7.079718150588605,2.231446497305156,2.0263462198265865
861,11.445285701820982,74.71050984688931,7.079318102735611,2.2315171441537274,2.0262998572297457
862,11.458578716573388,74.71050984688931,7.078999575607582,2.2313523379648106,2.0261383311182937
863,11.471871731325791,74.71050984688931,7.0787749252298005,2.2309333097304607,2.0258446620413406
864,11.485164746078198,74.71050984688931,7.078626254484891,2.2302566282042147,2.0254023262879075
865,11.498457760830602,74.71050984688931,7.078512183947613,2.2293367256754184,2.024799458396012
866,11.511750775583009,74.71050984688931,7.078376603605317,2.2282067457661747,2.024032984461883
867,11.525043790335411,74.71050984688931,7.07815808957359,2.22691743921026,2.0231117860002112
868,11.538336805087818,74.71050984688931,7.077798811406056,2.2255340688480487,2.0220583114686947
869,11.551629819840224,74.71050984688931,7.0772520168134365,2.2241315575594576,2.0209083636302436
870,11.564922834592627,74.71050984688931,7.0764874886256734,2.222788362623845,2.0197090367874164
871,11.578215849345034,74.71050984688931,7.0754946644125525,2.221579748463116,2.0185150303565385
872,11.59150886409744,74.71050984688931,7.074283359190506,2.2205712269132474,2.017383792059697
873,11.604801878849845,74.71050984688931,7.072882231856143,2.219812926136857,2.0163701027428407
874,11.618094893602253,74.71050984688931,7.071335303411577,2.219335538454208,2.01552078944274
875,11.631387908354656,74.71050984688931,7.0696969926722595,2.2191483011010575,2.0148702398847265
876,11.64468092310706,74.71050984688931,7.068026295147292,2.2192392101389076,2.014437296290239
877,11.657973937859468,74.71050984688931,7.066380883117507,2.2195773897214477,2.0142239407802114
878,11.671266952611871,74.71050984688931,7.064812015983669,2.220117270964659,2.0142159646372635
879,11.684559967364278,74.71050984688931,7.063361171400556,2.220804009419896,2.0143855605924657
880,11.697852982116682,74.71050984688931,7.062059191964987,2.2215794168313256,2.0146955195711467
881,11.711145996869089,74.71050984688931,7.060928458943624,2.2223876250138255,2.01510448552511
882,11.724439011621492,74.71050984688931,7.0599881536608,2.223179751481193,2.0155725598455865
883,11.737732026373898,74.71050984688931,7.059262086103597,2.2239169980147038,2.0160664795104597
884,11.751025041126304,74.71050984688931,7.058787934358423,2.224571866993405,2.0165636353607947
885,11.764318055878707,74.71050984688931,7.058626154682653,2.225127489875219,2.0170543448528635
886,11.777611070631114,74.71050984688931,7.058866415995778,2.225575377211417,2.0175420255028587
887,11.79090408538352,74.71050984688931,7.059629309026689,2.225912163769451,2.0180411966369975
888,11.804197100135925,74.71050984688931,7.061061378125282,2.2261360852671133,2.018573528628595
889,11.81749011488833,74.71050984688931,7.063322268887156,2.2262439515730454,2.019162423494415
890,11.830783129640736,74.71050984688931,7.066563946406161,2.226229267009218,2.019826818582848
891,11.84407614439314,74.71050984688931,7.070903394625298,2.22608191149378,2.0205750349020772
892,11.857369159145549,74.71050984688931,7.076391743988082,2.2257894806476837,2.0213995301569305
893,11.870662173897951,74.71050984688931,7.082984111784511,2.225340047535849,2.0222733570586877
894,11.883955188650356,74.71050984688931,7.090515274350533,2.224725815329823,2.023148969474515
895,11.897248203402762,74.71050984688931,7.098686359424554,2.2239469322274803,2.023959770121235
896,11.910541218155169,74.71050984688931,7.107066895622969,2.2230146734171217,2.024624472715072
897,11.923834232907572,74.71050984688931,7.115114783664381,2.221953273193764,2.0250539913907772
898,11.937127247659978,74.71050984688931,7.122214260205119,2.220799902942541,2.025160216150851
899,11.950420262412385,74.71050984688931,7.127729148080435,2.2196026044080366,2.0248657374816825
900,11.96371327716479,74.71050984688931,7.131066087767794,2.218416351080497,2.0241133958889304
901,11.977006291917194,74.71050984688931,7.1317403116290565,2.2172977612266305,2.0228744894668793
902,11.990299306669598,74.71050984688931,7.129435281515089,2.2162992625854,2.021154589484583
903,12.003592321422005,74.71050984688931,7.124047703510374,2.215463659170951,2.0189961795650584
904,12.01688533617441,74.71050984688931,7.115711108489936,2.2148200640892663,2.016477713309055
905,12.030178350926816,74.71050984688931,7.104793943358954,2.214382022026293,2.013709124135458
906,12.04347136567922,74.71050984688931,7.091871544140613,2.2141481913658456,2.0108242544373236
907,12.056764380431623,74.71050984688931,7.0776749918617545,2.214105266879162,2.007971032713586
908,12.070057395184032,74.71050984688931,7.063023098920503,2.2142324755337963,2.005300461083866
909,12.083350409936436,74.71050984688931,7.048746092208112,2.214507024140663,2.0029555541668724
910,12.096643424688844,74.71050984688931,7.035610567763594,2.2149096897088323,2.0010612944950323
911,12.109936439441247,74.71050984688931,7.024254836975669,2.215429366793202,1.9997165453926948
912,12.123229454193652,74.71050984688931,7.01514197330033,2.2160653765618377,1.9989887068179668
913,12.136522468946058,74.71050984688931,7.008535046110504,2.216826741500192,1.998911140390377
914,12.149815483698465,74.71050984688931,7.004495706258345,2.217728220825888,1.999482200628929
915,12.163108498450868,74.71050984688931,7.002904049671687,2.218783589465884,2.0006649329630872
916,12.176401513203274,74.71050984688931,7.0034950587661475,2.219997322742888,2.002388070111976
917,12.18969452795568,74.71050984688931,7.005905384494603,2.2213563726390713,2.004549366188243
918,12.202987542708083,74.71050984688931,7.009723892159661,2.222823954053466,2.0070214187058775
919,12.21628055746049,74.71050984688931,7.014539303809734,2.224337109978406,2.0096596715099144
920,12.229573572212894,74.71050984688931,7.019978346697931,2.2258092778661975,2.012312319944388
921,12.2428665869653,74.71050984688931,7.025730220496917,2.2271382087781078,2.0148316941591835
922,12.256159601717703,74.71050984688931,7.031557457362652,2.2282185487261033,2.0170863713092735
923,12.269452616470112,74.71050984688931,7.037295597716697,2.228957380298471,2.0189729167063746
924,12.282745631222516,74.71050984688931,7.042844198272946,2.2292902515394224,2.020425884004949
925,12.29603864597492,74.71050984688931,7.04815189348554,2.229194859118421,2.0214246201171937
926,12.309331660727327,74.71050984688931,7.05319867565713,2.228699700135594,2.0219955890558934
927,12.322624675479732,74.71050984688931,7.057978425528973,2.2278856627181445,2.0222093682054805
928,12.335917690232138,74.71050984688931,7.062484105982542,2.2268795959123295,2.0221721412867915
929,12.349210704984545,74.71050984688931,7.066697211272415,2.2258402119587593,2.0220123221834205
930,12.362503719736948,74.71050984688931,7.070582217834851,2.22493800725806,2.0218637609308026
931,12.375796734489354,74.71050984688931,7.0740860440675135,2.2243320072160837,2.0218476572354813
932,12.38908974924176,74.71050984688931,7.07714195843375,2.2241468348664886,2.0220556958600557
933,12.402382763994163,74.71050984688931,7.079676983627837,2.224453726438408,2.022536917432161
934,12.41567577874657,74.71050984688931,7.081621599033793,2.225258615880934,2.0232904071806863
935,12.428968793498974,74.71050984688931,7.082920406751603,2.2264993451132944,2.024265064066631
936,12.44226180825138,74.71050984688931,7.083542376348635,2.228052600449717,2.025366628465189
937,12.455554823003784,74.71050984688931,7.083489323788021,2.2297495855390173,2.026470987655797
938,12.46884783775619,74.71050984688931,7.082801432479091,2.2313980126821344,2.027441759935332
939,12.482140852508596,74.71050984688931,7.081558910215352,2.232806969554947,2.028149475082584
940,12.495433867261,74.71050984688931,7.079879294320676,2.233810793187184,2.02848942662676
941,12.508726882013407,74.71050984688931,7.0779104335248695,2.234288545764427,2.0283955132675744
942,12.522019896765812,74.71050984688931,7.075819721215459,2.234176907147552,2.027848238905614
943,12.535312911518217,74.71050984688931,7.073780646196992,2.2334754072962255,2.026876315311168
944,12.548605926270625,74.71050984688931,7.0719580849999675,2.2322436833756383,2.025552257452342
945,12.561898941023028,74.71050984688931,7.070493930269895,2.230591523996871,2.0239828094684205
946,12.575191955775434,74.71050984688931,7.069494613424377,2.228663689451122,2.022295605409824
947,12.58848497052784,74.71050984688931,7.069021849811507,2.2266221036260623,2.020624094503608
948,12.601777985280243,74.71050984688931,7.069087548421886,2.224627954887285,2.0190928813613285
949,12.61507100003265,74.71050984688931,7.069653338675714,2.222825831258412,2.0178052649747387
950,12.628364014785054,74.71050984688931,7.070634637235136,2.2213313890764526,2.01683419871262
951,12.64165702953746,74.71050984688931,7.07190867931507,2.220223331678532,2.016217265499785
952,12.654950044289864,74.71050984688931,7.073325545515531,2.219539794554266,2.0159556629492803
953,12.66824305904227,74.71050984688931,7.0747209916741065,2.2192787055668974,2.016016721716594
954,12.681536073794677,74.71050984688931,7.075929873272897,2.219401379051738,2.016339198703994
955,12.69482908854708,74.71050984688931,7.076799139861125,2.2198385187212035,2.0168405088712236
956,12.708122103299486,74.71050984688931,7.077199697908294,2.2204978967881535,2.017425146023829
957,12.721415118051892,74.71050984688931,7.077036798327658,2.2212731535465733,2.0179937134079284
958,12.734708132804297,74.71050984688931,7.076258878128617,2.222053316959634,2.018452142622426
959,12.748001147556703,74.71050984688931,7.0748648771184195,2.222732690571412,2.0187207439151793
960,12.761294162309108,74.71050984688931,7.072909919237507,2.2232206654987303,2.0187426662003545
961,12.774587177061512,74.71050984688931,7.070508926535297,2.2234508071355648,2.0184911726444943
962,12.78788019181392,74.71050984688931,7.067837323435114,2.223388333498354,2.0179749307498036
963,12.801173206566324,74.71050984688931,7.065127635734202,2.223034951558412,2.0172403766563485
964,12.81446622131873,74.71050984688931,7.0626606474024705,2.222430052623212,2.016370240766131
965,12.827759236071136,74.71050984688931,7.060749974881039,2.2216475460572322,2.0154775804323273
966,12.84105225082354,74.71050984688931,7.059719519782772,2.2207881257960747,2.0146951645631903
967,12.854345265575946,74.71050984688931,7.059874252209859,2.219967443000188,2.0141607412572764
968,12.86763828032835,74.71050984688931,7.0614660529798625,2.219301377269209,2.0139994846917304
969,12.880931295080757,74.71050984688931,7.064657711114057,2.2188902126402943,2.014305617544441
970,12.89422430983316,74.71050984688931,7.069489371861995,2.2188038991481407,2.015125688253752
971,12.907517324585566,74.71050984688931,7.075852469827376,2.2190706220199004,2.0164461191698546
972,12.920810339337972,74.71050984688931,7.083476190104691,2.219670581980342,2.0181873546699554
973,12.934103354090375,74.71050984688931,7.091930603229693,2.2205362421218733,2.0202062232195033
974,12.947396368842782,74.71050984688931,7.100648712997903,2.22155935430718,2.022307060925739
975,12.960689383595188,74.71050984688931,7.108966961044801,2.22260399179655,2.0242608757787117
976,12.973982398347593,74.71050984688931,7.116181359544913,2.22352391488293,2.025830559486882
977,12.9872754131,74.71050984688931,7.121614734612484,2.2241820224656985,2.02679908962762
978,13.000568427852404,74.71050984688931,7.124687978001197,2.224469271952479,2.0269969978509743
979,13.013861442604808,74.71050984688931,7.124985269271248,2.224320349960949,2.026325244113864
980,13.027154457357216,74.71050984688931,7.12230314177379,2.2237237292812524,2.0247700884761244
981,13.04044747210962,74.71050984688931,7.116676162017331,2.2227244983930388,2.0224075569898523
982,13.053740486862026,74.71050984688931,7.10837555121711,2.2214193488525193,2.0193965318694884
983,13.06703350161443,74.71050984688931,7.097880715965245,2.21994425606549,2.0159611539137323
984,13.080326516366837,74.71050984688931,7.085827499413065,2.218456536768181,2.0123648480270866
985,13.09361953111924,74.71050984688931,7.072940380612104,2.2171139575347865,2.008879596581389
986,13.106912545871646,74.71050984688931,7.059958142141955,2.216054208689646,2.00575485158043
987,13.12020556062405,74.71050984688931,7.047563277509718,2.215377815774293,2.0031905410920268
988,13.133498575376455,74.71050984688931,7.036324476658705,2.215136468944068,2.0013179647481865
989,13.146791590128862,74.71050984688931,7.0266590814470895,2.215328046563179,2.0001910882609084
990,13.160084604881268,74.71050984688931,7.018818891380829,2.2158994013192097,1.9997889951446322
991,13.173377619633673,74.71050984688931,7.012898766109285,2.216756865405447,2.0000283519682616
992,13.186670634386076,74.71050984688931,7.008863831192783,2.217782610290767,2.000783208615528
993,13.199963649138484,74.71050984688931,7.006588398454661,2.2188538559546207,2.0019085561601453
994,13.213256663890888,74.71050984688931,7.005898423797211,2.219861676572687,2.0032637111113356
995,13.226549678643297,74.71050984688931,7.006609620344801,2.220726419999402,2.0047318213016916
996,13.2398426933957,74.71050984688931,7.008555123577611,2.2214074665179924,2.0062326944612523
997,13.253135708148104,74.71050984688931,7.011599422879279,2.221906105769234,2.00772753680253
998,13.26642872290051,74.71050984688931,7.015638166497732,2.222261510613986,2.0092157068962395
999,13.279721737652917,74.71050984688931,7.020585824576285,2.222540915836246,2.0107249465296664
1000,13.29301475240532,74.71050984688931,7.026355509672326,2.2228259705659426,2.0122975149872175
1001,13.306307767157726,74.71050984688931,7.032837122126939,2.223197691721828,2.0139750855348586
1002,13.31960078191013,74.71050984688931,7.039879944622817,2.223722454500877,2.015785141557065
1003,13.332893796662535,74.71050984688931,7.047283986914118,2.2244410587275474,2.017731025007983
1004,13.346186811414942,74.71050984688931,7.054802138833196,2.22536222362078,2.0197869117835405
1005,13.359479826167346,74.71050984688931,7.062153032958408,2.226461045750026,2.0218980206328805
1006,13.372772840919753,74.71050984688931,7.06904252511674,2.227682166298844,2.023985493360175
1007,13.386065855672156,74.71050984688931,7.075190197900927,2.228946765354185,2.0259547526645796
1008,13.399358870424564,74.71050984688931,7.080356534964695,2.2301621123841717,2.02770581847867
1009,13.412651885176968,74.71050984688931,7.084366463390699,2.2312322731512535,2.029144041084235
1010,13.425944899929371,74.71050984688931,7.087125735792394,2.232068665042531,2.030189927338878
1011,13.43923791468178,74.71050984688931,7.088627922462934,2.2325993878416086,2.0307870958572676
1012,13.452530929434184,74.71050984688931,7.088951337581182,2.2327765060620806,2.0309077848424617
1013,13.46582394418659,74.71050984688931,7.088246748299367,2.232580662084266,2.0305556594508753
1014,13.479116958938995,74.71050984688931,7.086717965945426,2.2320228330136542,2.0297658254289077
1015,13.4924099736914,74.71050984688931,7.084598228121802,2.2311436521640524,2.0286019790299017
1016,13.505702988443806,74.71050984688931,7.08212558178441,2.230010632507304,2.027150969774259
1017,13.51899600319621,74.71050984688931,7.07952029837474,2.228712949302288,2.0255157188231117
1018,13.532289017948615,74.71050984688931,7.076966792483753,2.227353459333653,2.0238073180486476
1019,13.545582032701022,74.71050984688931,7.074601712859182,2.2260384104939077,2.0221363041645435
1020,13.558875047453428,74.71050984688931,7.072508970566816,2.2248658956657166,2.020603136191194
1021,13.572168062205831,74.71050984688931,7.070721585247584,2.223914399595336,2.0192887851493286
1022,13.585461076958238,74.71050984688931,7.069229456154003,2.223232995212114,2.018246822420986
1023,13.598754091710642,74.71050984688931,7.067991557287148,2.2228347816248886,2.0174983124309174
1024,13.612047106463049,74.71050984688931,7.066950647454633,2.2226949083824397,2.0170305346659827
1025,13.625340121215451,74.71050984688931,7.0660483919443635,2.2227539826449894,2.0168000970093796
1026,13.63863313596786,74.71050984688931,7.065238818728332,2.222926861235775,2.0167403570004585
1027,13.651926150720264,74.71050984688931,7.064498277826956,2.2231159125629043,2.0167723399097484
1028,13.665219165472667,74.71050984688931,7.063830527915607,2.2232269642281395,2.0168176667073205
1029,13.678512180225075,74.71050984688931,7.063266214694524,2.223185511876303,2.016811527144542
1030,13.69180519497748,74.71050984688931,7.062856783542002,2.2229505050772853,2.01671357287295
1031,13.705098209729886,74.71050984688931,7.062663708712073,2.2225232325904747,2.016514825610045
1032,13.718391224482293,74.71050984688931,7.06274471884904,2.221949498982512,2.016239282536743
1033,13.731684239234696,74.71050984688931,7.0631393306931765,2.2213143207803716,2.015939764220842
1034,13.744977253987102,74.71050984688931,7.06385634510562,2.220729599880044,2.0156885369267394
1035,13.758270268739508,74.71050984688931,7.064865910471158,2.2203164380420737,2.015564168396221
1036,13.771563283491911,74.71050984688931,7.066098265023379,2.2201847212618997,2.015636768745141
1037,13.784856298244318,74.71050984688931,7.067450347359013,2.2204131502640165,2.015954093748411
1038,13.798149312996722,74.71050984688931,7.068800207873025,2.2210329218141336,2.0165308828991453
1039,13.811442327749129,74.71050984688931,7.0700277323716945,2.2220177664545924,2.017343285383929
1040,13.824735342501532,74.71050984688931,7.071038827765254,2.2232821061530745,2.0183293849244133
1041,13.838028357253938,74.71050984688931,7.071789166848112,2.224687870356991,2.019395818037217
1042,13.851321372006344,74.71050984688931,7.072303074717683,2.226059206024666,2.020429468373894
1043,13.864614386758747,74.71050984688931,7.072683330375347,2.227203148202666,2.0213123891252196
1044,13.877907401511155,74.71050984688931,7.073108617719548,2.227933463750402,2.021937599141106
1045,13.89120041626356,74.71050984688931,7.073817025089801,2.2280944620968146,2.022223299921278
1046,13.904493431015965,74.71050984688931,7.075076159916765,2.227581625523786,2.0221233780853574
1047,13.917786445768373,74.71050984688931,7.077142794985827,2.2263564097378996,2.0216327224631625
1048,13.931079460520776,74.71050984688931,7.080217098488817,2.224453399493514,2.0207867647471263
1049,13.944372475273182,74.71050984688931,7.084398016270808,2.221979028386958,2.019655580692866
1050,13.957665490025589,74.71050984688931,7.089646905330606,2.219102130058343,2.0183336985009515
1051,13.970958504777991,74.71050984688931,7.095765882357042,2.2160375402955577,2.01692732092064
1052,13.984251519530398,74.71050984688931,7.102395799607805,2.2130247157814074,2.0155409069760304
1053,13.997544534282802,74.71050984688931,7.109036463489065,2.2103038197680718,2.0142649767930902
1054,14.010837549035209,74.71050984688931,7.115088369394582,2.2080919572443816,2.0131666582438243
1055,14.024130563787612,74.71050984688931,7.119911393194261,2.2065622216285385,2.0122839840601787
1056,14.037423578540018,74.71050984688931,7.1228930711117995,2.205827754264934,2.011624378151362
1057,14.050716593292425,74.71050984688931,7.123517807096138,2.2059321837703965,2.011167228202353
1058,14.06400960804483,74.71050984688931,7.121428153887911,2.2068472369974153,2.0108699843810323
1059,14.077302622797234,74.71050984688931,7.1164702343328425,2.208478015575865,2.010676874694691
1060,14.09059563754964,74.71050984688931,7.108717476787036,2.2106756485991874,2.010529087917193
1061,14.103888652302045,74.71050984688931,7.098469782276498,2.2132558276432706,2.010375140267214
1062,14.117181667054451,74.71050984688931,7.086228513680302,2.2160208165440944,2.010180112689525
1063,14.130474681806856,74.71050984688931,7.072650795400151,2.2187820626502957,2.009932532379839
1064,14.14376769655926,74.71050984688931,7.058489090082938,2.2213804106167188,2.0096478872360777
1065,14.157060711311669,74.71050984688931,7.044523555823363,2.2237011848696318,2.0093680994449605
1066,14.170353726064072,74.71050984688931,7.031495122486567,2.22568208838062,2.0091567337708973
1067,14.183646740816478,74.71050984688931,7.020046573117803,2.2273128925552683,2.0090902722496846
1068,14.196939755568884,74.71050984688931,7.010677351672919,2.228627129373995,2.0092463887340766
1069,14.210232770321287,74.71050984688931,7.003715644463545,2.2296872566158075,2.0096906838689517
1070,14.223525785073694,74.71050984688931,6.999308873743814,2.2305658460785014,2.010463708546539
1071,14.236818799826098,74.71050984688931,6.997431481684664,2.2313260539346667,2.011570264319208
1072,14.250111814578505,74.71050984688931,6.99790708627884,2.232004829999609,2.01297286349161
1073,14.26340482933091,74.71050984688931,7.000441031891755,2.232601942654225,2.0145908191314517
1074,14.276697844083314,74.71050984688931,7.004659043917703,2.2330769672252297,2.0163057314416784
1075,14.28999085883572,74.71050984688931,7.010147353404367,2.2333550368004387,2.01797321457098
1076,14.303283873588123,74.71050984688931,7.016489248730381,2.2333406013763293,2.019439694447125
1077,14.31657688834053,74.71050984688931,7.02329432466897,2.232936954827014,2.0205621734132118
1078,14.329869903092936,74.71050984688931,7.030219492032819,2.2320681377576186,2.0212281841718336
1079,14.34316291784534,74.71050984688931,7.036982247396723,2.2306992406111226,2.02137289978059
1080,14.356455932597749,74.71050984688931,7.0433666110562045,2.228851322072578,2.020990616757896
1081,14.369748947350152,74.71050984688931,7.049222421515684,2.226608104162849,2.0201385772916947
1082,14.383041962102556,74.71050984688931,7.054459392910901,2.224112943783294,2.0189322339209714
1083,14.396334976854964,74.71050984688931,7.059037758736892,2.2215560686797606,2.01753239168636
1084,14.409627991607367,74.71050984688931,7.062957383000686,2.219153702754245,2.016125950107129
1085,14.422921006359774,74.71050984688931,7.066247015951171,2.217122197069798,2.014902977803053
1086,14.436214021112178,74.71050984688931,7.068954956672551,2.2156511932515803,2.0140334072522434
1087,14.449507035864585,74.71050984688931,7.071141841232547,2.214880015558509,2.0136466453467876
1088,14.46280005061699,74.71050984688931,7.072875696506485,2.214880764460893,2.0138168689447418
1089,14.476093065369394,74.71050984688931,7.074228884942419,2.2156501294251743,2.014555821137622
1090,14.4893860801218,74.71050984688931,7.075276201016313,2.2171105915625366,2.015813722171022
1091,14.502679094874203,74.71050984688931,7.07609322521983,2.2191206877612846,2.0174876726173228
1092,14.51597210962661,74.71050984688931,7.076754116494758,2.221492749245141,2.0194358644029404
1093,14.529265124379016,74.71050984688931,7.077328306002869,2.2240152085019647,2.0214951952886873
1094,14.54255813913142,74.71050984688931,7.077875980767503,2.2264759650703922,2.0234996036493698
1095,14.555851153883824,74.71050984688931,7.07844272233795,2.2286834907208335,2.0252966198931905
1096,14.569144168636232,74.71050984688931,7.079054087638225,2.230483006481839,2.026760203298018
1097,14.582437183388636,74.71050984688931,7.079711188304114,2.2317660344875216,2.027798766752293
1098,14.595730198141045,74.71050984688931,7.080388370456543,2.2324730895835176,2.0283582055955676
1099,14.609023212893447,74.71050984688931,7.081033892328825,2.2325909364740384,2.0284205653170075
1100,14.622316227645852,74.71050984688931,7.08157406812759,2.2321464866982885,2.027999631334186
1101,14.635609242398258,74.71050984688931,7.08192076893764,2.2311989368225,2.0271350910692263
1102,14.648902257150665,74.71050984688931,7.0819815588173345,2.22983147997824,2.0258867608130013
1103,14.66219527190307,74.71050984688931,7.081671225477486,2.2281439525440097,2.024329755625637
1104,14.675488286655474,74.71050984688931,7.080923157376306,2.2262472579486876,2.0225508424295318
1105,14.68878130140788,74.71050984688931,7.079699000819682,2.224259494027542,2.0206457299534324
1106,14.702074316160283,74.71050984688931,7.077995319345244,2.222302978591261,2.0187166567430572
1107,14.71536733091269,74.71050984688931,7.075846521138048,2.2205010150530167,2.0168694449363787
1108,14.728660345665094,74.71050984688931,7.073324003382514,2.218973304390915,2.015209312879657
1109,14.7419533604175,74.71050984688931,7.070532130503422,2.2178293588017586,2.01383514174221
1110,14.755246375169904,74.71050984688931,7.067602157175535,2.2171599726910336,2.01283243996338
1111,14.768539389922312,74.71050984688931,7.064685403176645,2.2170275666103403,2.012265785098061
1112,14.781832404674716,74.71050984688931,7.061946830949522,2.2174568381327275,2.0121718928952848
1113,14.79512541942712,74.71050984688931,7.059559700367109,2.218427471405549,2.0125545655759174
1114,14.808418434179528,74.71050984688931,7.057701294528583,2.219870594082829,2.01338257694004
1115,14.821711448931932,74.71050984688931,7.056549000498222,2.2216702382923725,2.014591109675951
1116,14.83500446368434,74.71050984688931,7.056275484459385,2.2236703530735653,2.0160867763934864
1117,14.848297478436743,74.71050984688931,7.057041491609975,2.225687071392843,2.0177556621876733
1118,14.861590493189148,74.71050984688931,7.05898503294161,2.2275251113405394,2.019473345682453
1119,14.874883507941554,74.71050984688931,7.0622064089961185,2.228996526514953,2.021115574972317
1120,14.88817652269396,74.71050984688931,7.0667495796769915,2.2299396146825847,2.022568233952392
1121,14.901469537446363,74.71050984688931,7.072581639721097,2.2302356995381034,2.0237354242093177
1122,14.91476255219877,74.71050984688931,7.079573351180962,2.229821723768291,2.024544859080909
1123,14.928055566951176,74.71050984688931,7.0874845223418985,2.228697095553783,2.0249502431928734
1124,14.94134858170358,74.71050984688931,7.09595823906044,2.2269239410413344,2.02493080219352
1125,14.954641596455986,74.71050984688931,7.104527232769287,2.224620730591925,2.02448854377762
1126,14.96793461120839,74.71050984688931,7.112634049149665,2.2219500523266187,2.023644099817113
1127,14.981227625960797,74.71050984688931,7.1196654967832,2.2191019945110098,2.022432080811019
1128,14.9945206407132,74.71050984688931,7.12500120847365,2.2162750861747704,2.0208967713079913
1129,15.007813655465608,74.71050984688931,7.128073112260276,2.2136569879936516,2.0190887538569755
1130,15.021106670218012,74.71050984688931,7.128427768369146,2.211407120692633,2.0170627424844967
1131,15.034399684970415,74.71050984688931,7.125781876823705,2.209643188404984,2.014876611700393
1132,15.047692699722823,74.71050984688931,7.120063174715676,2.2084331900832552,2.0125913806623754
1133,15.060985714475228,74.71050984688931,7.111431122964313,2.2077940156152014,2.010271777393909
1134,15.074278729227634,74.71050984688931,7.100273866563614,2.207696629200222,2.007986954793064
1135,15.08757174398004,74.71050984688931,7.0871807932655,2.208076292220732,2.005810930034965
1136,15.100864758732444,74.71050984688931,7.072893225455547,2.2088457689132195,2.0038223441402017
1137,15.11415777348485,74.71050984688931,7.058238715163771,2.2099100482707885,2.002103182315183
1138,15.127450788237256,74.71050984688931,7.044056608141708,2.211180987291112,2.000736171119558
1139,15.14074380298966,74.71050984688931,7.031123652041898,2.212589489589651,1.999800753010754
1140,15.154036817742066,74.71050984688931,7.020088287669651,2.214092855938132,1.9993678305906586
1141,15.16732983249447,74.71050984688931,7.011420923579485,2.2156758534528422,1.999493438672385
1142,15.180622847246877,74.71050984688931,7.005385187443528,2.2173452450016065,2.000211197494713
1143,15.19391586199928,74.71050984688931,7.0020322534535095,2.21911878944154,2.001524010850875
1144,15.207208876751686,74.71050984688931,7.00121733515802,2.2210108918525364,2.003396863607235
1145,15.220501891504092,74.71050984688931,7.002634767798754,2.2230179078594308,2.005752936422781
1146,15.233794906256495,74.71050984688931,7.005866308510835,2.225106388169582,2.008474454507593
1147,15.247087921008903,74.71050984688931,7.0104365007964295,2.2272071785754983,2.011408918187361
1148,15.260380935761308,74.71050984688931,7.015867910771616,2.2292172883817636,2.014380724528276
1149,15.273673950513713,74.71050984688931,7.02172788150815,2.2310099674380597,2.0172073391627787
1150,15.28696696526612,74.71050984688931,7.027660695046125,2.232451763210892,2.019718253490418
1151,15.300259980018524,74.71050984688931,7.033404258954221,2.233423797993399,2.0217742135227503
1152,15.31355299477093,74.71050984688931,7.038793217146307,2.233843429207672,2.023283818978422
1153,15.326846009523337,74.71050984688931,7.04375030304644,2.233682071168276,2.024214695418733
1154,15.34013902427574,74.71050984688931,7.048268314656227,2.232975318037071,2.0245970737814445
1155,15.353432039028146,74.71050984688931,7.052386361187687,2.2318225964415364,2.02451870114635
1156,15.36672505378055,74.71050984688931,7.056164594195234,2.23037566551924,2.0241113857569166
1157,15.380018068532957,74.71050984688931,7.0596614091719845,2.2288179741594942,2.0235309087545192
1158,15.39331108328536,74.71050984688931,7.062916320544338,2.2273384777718594,2.022933247693409
1159,15.406604098037766,74.71050984688931,7.065940523878228,2.2261036991203422,2.0224508109903505
1160,15.419897112790172,74.71050984688931,7.0687157650551145,2.2252321387786203,2.022172513266839
1161,15.433190127542575,74.71050984688931,7.071200746204081,2.2247755249943144,2.0221309796717817
1162,15.446483142294982,74.71050984688931,7.073343116330695,2.224710554744802,2.0222990336053606
1163,15.459776157047388,74.71050984688931,7.075094290517525,2.2249428534609734,2.0225960944830126
1164,15.473069171799793,74.71050984688931,7.076424024997115,2.2253226862512845,2.02290346364996
1165,15.4863621865522,74.71050984688931,7.077331877115036,2.2256699117535375,2.0230860016774947
1166,15.499655201304604,74.71050984688931,7.077853345346557,2.2258041853115516,2.0230166407873744
1167,15.512948216057008,74.71050984688931,7.078059486510098,2.225575730307957,2.0225997094843766
1168,15.526241230809417,74.71050984688931,7.078049966004825,2.2248918827343247,2.021789353078221
1169,15.53953424556182,74.71050984688931,7.0779406156847795,2.223735065376088,2.020600331811432
1170,15.552827260314226,74.71050984688931,7.07784747333112,2.222169199429589,2.019109660896871
1171,15.56612027506663,74.71050984688931,7.0778698242848055,2.220333567776517,2.0174487184441205
1172,15.579413289819035,74.71050984688931,7.078074891682148,2.218425134869022,2.0157868298142034
1173,15.592706304571442,74.71050984688931,7.078486531237332,2.216671986931254,2.01430874043103
1174,15.605999319323846,74.71050984688931,7.079079650925474,2.215301775009224,2.0131893027977545
1175,15.619292334076253,74.71050984688931,7.079781217071146,2.2145096967279736,2.0125690532552727
1176,15.632585348828655,74.71050984688931,7.080477773343448,2.2144305640521766,2.012534230366657
1177,15.645878363581062,74.71050984688931,7.081028531985242,2.2151187610920737,2.0131039298666544
1178,15.659171378333468,74.71050984688931,7.0812824061304855,2.2165385453967854,2.0142256485227077
1179,15.672464393085871,74.71050984688931,7.081096903382821,2.2185658000809614,2.0157794830823326
1180,15.685757407838278,74.71050984688931,7.080356547539303,2.2210011783953245,2.017590833521889
1181,15.699050422590684,74.71050984688931,7.078988450591823,2.2235931821788983,2.019450508170594
1182,15.712343437343089,74.71050984688931,7.076973330552388,2.226068228804171,2.0211397274971654
1183,15.725636452095497,74.71050984688931,7.07435151788589,2.228163762802343,2.022456639947824
1184,15.7389294668479,74.71050984688931,7.071223718540474,2.2296600346233033,2.0232407397389496
1185,15.752222481600304,74.71050984688931,7.067745535345818,2.230406224094893,2.0233920232363176
1186,15.76551549635271,74.71050984688931,7.064115107287811,2.2303375451594354,2.022882768208595
1187,15.778808511105115,74.71050984688931,7.060554747816937,2.2294817215095306,2.0217606359438185
1188,15.792101525857522,74.71050984688931,7.057288563014316,2.2279544674284995,2.0201423153443425
1189,15.805394540609926,74.71050984688931,7.0545185510401565,2.2259442087763355,2.0181981365495596
1190,15.818687555362333,74.71050984688931,7.052402118301932,2.2236876311534215,2.0161298172368407
1191,15.831980570114736,74.71050984688931,7.051034191877388,2.2214395469793335,2.014144731316935
1192,15.845273584867142,74.71050984688931,7.050436680353156,2.219441629881034,2.0124305711166346
1193,15.858566599619548,74.71050984688931,7.050556922801408,2.217894553128252,2.0111341801980878
1194,15.871859614371951,74.71050984688931,7.051275839426921,2.216937376649734,2.010347696965557
1195,15.885152629124358,74.71050984688931,7.052425837323486,2.2166367663370523,2.0101040016228207
1196,15.898445643876764,74.71050984688931,7.05381714531441,2.2169869094225296,2.0103816423315775
1197,15.911738658629169,74.71050984688931,7.055269360303186,2.2179191160859033,2.011117265742328
1198,15.925031673381572,74.71050984688931,7.056643683775042,2.219318540630942,2.012222393957733
1199,15.93832468813398,74.71050984688931,7.057870864141432,2.221044502136321,2.013601397149079
1200,15.951617702886384,74.71050984688931,7.058970062726953,2.222950521349513,2.0151675042402073
1201,15.96491071763879,74.71050984688931,7.060054751874651,2.2249004796045893,2.0168536645902764
1202,15.978203732391195,74.71050984688931,7.0613233152649,2.226778383746521,2.0186159441016054
1203,15.9914967471436,74.71050984688931,7.063034102394946,2.2284908727797395,2.020428907855059
1204,16.004789761896006,74.71050984688931,7.0654670470889265,2.2299632668332383,2.0222744353724513
1205,16.018082776648413,74.71050984688931,7.06887626752754,2.2311313007169455,2.024126880015977
1206,16.031375791400816,74.71050984688931,7.0734399510365025,2.231931673233459,2.025938167297901
1207,16.044668806153222,74.71050984688931,7.0792149265384845,2.2322949556897487,2.027626648036749
1208,16.05796182090563,74.71050984688931,7.086103355319087,2.2321439385301636,2.0290731929593835
1209,16.07125483565803,74.71050984688931,7.093837773943829,2.2313992116081196,2.0301267873617386
1210,16.084547850410438,74.71050984688931,7.101988364182903,2.2299919812058326,2.0306199553643505
1211,16.097840865162844,74.71050984688931,7.109992902515887,2.2278821973702843,2.030392215069621
1212,16.111133879915247,74.71050984688931,7.117205954121605,2.2250784174422447,2.029317875946959
1213,16.124426894667653,74.71050984688931,7.122961822415036,2.2216548605021647,2.0273332296619047
1214,16.13771990942006,74.71050984688931,7.1266458329093725,2.217761080214139,2.0244578501327464
1215,16.151012924172466,74.71050984688931,7.127766383168294,2.2136206712143163,2.0208054174695933
1216,16.16430593892487,74.71050984688931,7.126016226867192,2.2095172738676148,2.0165811100948914
1217,16.177598953677276,74.71050984688931,7.121312200923975,2.2057685174317845,2.0120648721821803
1218,16.190891968429682,74.71050984688931,7.113807968228738,2.20269098075662,2.0075823345145936
1219,16.204184983182085,74.71050984688931,7.103879126455844,2.2005614006735135,2.003467384954399
1220,16.21747799793449,74.71050984688931,7.092083406538072,2.1995807475979343,2.000021954235169
1221,16.230771012686898,74.71050984688931,7.079101802774224,2.19984703249769,1.9974792333038065
1222,16.2440640274393,74.71050984688931,7.065668939567844,2.201339971696363,1.995976254073679
1223,16.257357042191707,74.71050984688931,7.0525021979592335,2.2039192967689596,1.9955405633196504
1224,16.270650056944113,74.71050984688931,7.040238885706762,2.2073387673773093,1.996093039664492
1225,16.283943071696516,74.71050984688931,7.029389055329862,2.2112758490465936,1.9974652228277314
1226,16.297236086448923,74.71050984688931,7.020308742377771,2.2153728886236577,1.9994274503585283
1227,16.31052910120133,74.71050984688931,7.013194912762432,2.219283073210782,2.0017239714411774
1228,16.323822115953735,74.71050984688931,7.0080999021348,2.2227139811569887,2.0041103820174997
1229,16.337115130706138,74.71050984688931,7.004960233769745,2.2254621130038728,2.006387346038342
1230,16.350408145458545,74.71050984688931,7.003632919608991,2.227433299514281,2.0084248711415444
1231,16.36370116021095,74.71050984688931,7.003931955460876,2.228646215918972,2.010173370393938
1232,16.376994174963354,74.71050984688931,7.005658708568995,2.2292189977452006,2.0116602510580353
1233,16.39028718971576,74.71050984688931,7.008621975109999,2.2293416835483186,2.012973334179992
1234,16.403580204468167,74.71050984688931,7.0126461283367245,2.2292394247491636,2.014234649972769
1235,16.41687321922057,74.71050984688931,7.017568414373502,2.229132722276365,2.015569680167619
1236,16.430166233972976,74.71050984688931,7.023228654188652,2.2292011664277704,2.017077685684725
1237,16.443459248725382,74.71050984688931,7.029455982607297,2.2295562732707666,2.018808304123534
1238,16.456752263477785,74.71050984688931,7.0360574728323195,2.230227231685366,2.020748258079382
1239,16.47004527823019,74.71050984688931,7.042812612248533,2.2311610536640565,2.022820069688422
1240,16.483338292982598,74.71050984688931,7.049475978985123,2.232236184423998,2.0248925079885045
1241,16.496631307735004,74.71050984688931,7.055788508061041,2.2332864962733923,2.026800496754403
1242,16.509924322487407,74.71050984688931,7.061495813819966,2.234131098802672,2.028370717503601
1243,16.523217337239814,74.71050984688931,7.0663705272454935,2.234604746421771,2.0294483784675377
1244,16.53651035199222,74.71050984688931,7.070234783043647,2.234583871255784,2.0299206697092638
1245,16.549803366744623,74.71050984688931,7.0729789642367304,2.2340043950751856,2.0297331995891326
1246,16.56309638149703,74.71050984688931,7.074573529440764,2.2328692338640557,2.0288970369468498
1247,16.576389396249436,74.71050984688931,7.075072015056218,2.2312452590164136,2.0274858314729447
1248,16.58968241100184,74.71050984688931,7.074604833500856,2.229251078270353,2.025624494284003
1249,16.602975425754245,74.71050984688931,7.073364965687801,2.2270383404695493,2.023472118029987
1250,16.61626844050665,74.71050984688931,7.071587800178321,2.2247701418004877,2.0212020113719795
1251,16.629561455259058,74.71050984688931,7.0695280274679355,2.2226002137841374,2.018981753633382
1252,16.64285447001146,74.71050984688931,7.067436601110539,2.220655959858435,2.016956105826647
1253,16.656147484763867,74.71050984688931,7.065540387724913,2.2190273473963047,2.015234916938553
1254,16.669440499516273,74.71050984688931,7.06402638852011,2.217762417082471,2.0138870183859967
1255,16.682733514268676,74.71050984688931,7.063031509173679,2.216868992004895,2.0129399802752257
