,time,Red,Green,Blue
0,0.0,-0.33799953825886253,-0.0858881691885221,-0.43817831472941177
1,0.0132929593661904,-0.3778954503806433,-0.08534115405833682,-0.44595129192390476
2,0.0265859187323808,-0.41636578897158383,-0.08485556111190105,-0.45406529210716323
3,0.0398788780985712,-0.45191637351364156,-0.0844631329445599,-0.46274892348936586
4,0.0531718374647617,-0.4830783778837871,-0.08416330867497644,-0.47201414871409136
5,0.0664647968309521,-0.5085267432038991,-0.08391681422367678,-0.48163868373839464
6,0.0797577561971425,-0.5272604625743037,-0.08364993424163458,-0.49122215544200065
7,0.093050715563333,-0.5387880547018098,-0.08326965778610422,-0.5002975156040401
8,0.1063436749295234,-0.5432499930480751,-0.08268660333786552,-0.5084600261545145
9,0.1196366342957138,-0.5414278971896608,-0.0818397210504438,-0.5154704802038499
10,0.1329295936619042,-0.5346271880506447,-0.08071541703792173,-0.5213004555742345
11,0.1462225530280947,-0.5244587671214652,-0.07935468844229289,-0.5261106943549897
12,0.1595155123942851,-0.5125722572636117,-0.07784510445285128,-0.5301786711540217
13,0.1728084717604755,-0.5004023917183016,-0.07629917901579106,-0.5338073526758976
14,0.186101431126666,-0.48898229662226617,-0.07482530717198002,-0.5372485939972276
15,0.1993943904928564,-0.47885772414917405,-0.07350024298497174,-0.5406632413677827
16,0.2126873498590468,-0.4701113726588895,-0.0723519598938948,-0.5441226273993374
17,0.2259803092252372,-0.4624829659205092,-0.07135871478319498,-0.5476406861502774
18,0.2392732685914277,-0.4555538438763323,-0.07046536849336715,-0.5512177721790975
19,0.2525662279576181,-0.4489562528329174,-0.06961302912426902,-0.5548774859495517
20,0.2658591873238085,-0.442565823535196,-0.06877415827939776,-0.5586836827628419
21,0.279152146689999,-0.4366383658192667,-0.06798323931928445,-0.5627322935289915
22,0.2924451060561894,-0.4318582083308281,-0.06735344223337986,-0.5671187421760301
23,0.3057380654223798,-0.4292762029525497,-0.06707260894989459,-0.5718861305319165
24,0.3190310247885702,-0.4301328032579402,-0.06737695164992213,-0.5769631752265355
25,0.3323239841547606,-0.4355847660270437,-0.06850696585306218,-0.582105115207297
26,0.3456169435209511,-0.44637946343776175,-0.0706554757559191,-0.5868545849360707
27,0.3589099028871415,-0.4625429031849696,-0.07392070897133965,-0.5905398851142583
28,0.372202862253332,-0.4831600543054958,-0.0782767686603465,-0.5923221812035028
29,0.3854958216195224,-0.5063230399274596,-0.08356982506510258,-0.5912906080682787
30,0.3987887809857128,-0.5292995931586865,-0.08954181084915408,-0.5865888732613801
31,0.4120817403519032,-0.5489295759540275,-0.09587610162605024,-0.5775452552583071
32,0.4253746997180936,-0.5621963670678717,-0.10225359420100162,-0.5637755906027786
33,0.4386676590842841,-0.5668564645557903,-0.10840458559815626,-0.5452375125117569
34,0.4519606184504745,-0.5619667695477565,-0.1141430491273262,-0.5222302251964239
35,0.465253577816665,-0.5481484411675671,-0.11937525724998166,-0.4953504210800096
36,0.4785465371828554,-0.5274827349159592,-0.12408275083203016,-0.46542472929243983
37,0.4918394965490458,-0.5030398711522358,-0.12828781460706024,-0.43343918028651457
38,0.5051324559152363,-0.4781628124133438,-0.13201500080082634,-0.40047828761138954
39,0.5184254152814267,-0.45571441528031353,-0.135262716614533,-0.3676752327655319
40,0.5317183746476171,-0.43750828861770497,-0.1379941406169937,-0.3361654743768468
41,0.5450113340138075,-0.42407406089910027,-0.1401487658281038,-0.3070330260077006
42,0.558304293379998,-0.4147881877655814,-0.14166812333246617,-0.28124331344832487
43,0.5715972527461883,-0.4082825664738291,-0.14252469411017812,-0.2595665647759431
44,0.5848902121123788,-0.4029689093017875,-0.1427428945842824,-0.24250555046967576
45,0.5981831714785693,-0.39750722750698625,-0.14240472121802147,-0.2302456991998095
46,0.6114761308447597,-0.3910946715428666,-0.14163831572057656,-0.22264188780634014
47,0.6247690902109501,-0.38352963389856787,-0.1405931722342029,-0.21924669268757943
48,0.6380620495771405,-0.3750832284235236,-0.13940930492160025,-0.21937469675256843
49,0.651355008943331,-0.36626122589863225,-0.13818877639853558,-0.22219108467408807
50,0.6646479683095213,-0.3575539049998061,-0.13697678608541242,-0.22681134862149321
51,0.6779409276757118,-0.3492530883481947,-0.1357567425435862,-0.2324004445564703
52,0.6912338870419023,-0.3413779832170244,-0.13446021345524034,-0.23826156909475468
53,0.7045268464080926,-0.33370971442726943,-0.13298911194609164,-0.24390572550883577
54,0.7178198057742831,-0.3259011215839724,-0.1312445924159434,-0.24909378190041337
55,0.7311127651404735,-0.31761084354594893,-0.1291554541764632,-0.25384366640673894
56,0.744405724506664,-0.30861103384423577,-0.12669881885435447,-0.25839766468492203
57,0.7576986838728543,-0.2988338613803167,-0.12390764344491097,-0.26314977531851425
58,0.7709916432390448,-0.2883473217969352,-0.12086301143115194,-0.2685417723337361
59,0.7842846026052352,-0.2772776460171815,-0.11767331714585418,-0.27494786506724417
60,0.7975775619714256,-0.2657154098716967,-0.11444621798015174,-0.28257685078775635
61,0.8108705213376161,-0.2536493941747355,-0.11126138571125081,-0.29142072478311243
62,0.8241634807038065,-0.24096471531451472,-0.1081519637516612,-0.30126614725723416
63,0.837456440069997,-0.22752254820257214,-0.10510030439750553,-0.3117635843696898
64,0.8507493994361873,-0.21331328317163423,-0.10204970927839341,-0.3225284572986671
65,0.8640423588023778,-0.19864884771088567,-0.0989294966537471,-0.33323949508666023
66,0.8773353181685682,-0.18433816754136326,-0.09568675746373408,-0.3437051212069252
67,0.8906282775347586,-0.1717775908538461,-0.09231558204277114,-0.35388409479717936
68,0.903921236900949,-0.16289206655644242,-0.08887423606558024,-0.363863003775221
69,0.9172141962671396,-0.15988914468815435,-0.08548335354341165,-0.37380423911269695
70,0.93050715563333,-0.16483756694832213,-0.08230353385806162,-0.38388234836273516
71,0.9438001149995204,-0.17914618440616728,-0.07949744328903732,-0.39422585027993234
72,0.9570930743657108,-0.20307650765115642,-0.07718732527134467,-0.4048776509467581
73,0.9703860337319012,-0.2354467027247895,-0.07542133583901994,-0.4157812361219056
74,0.9836789930980916,-0.2736553462438604,-0.07415999852264765,-0.42679263931069705
75,0.996971952464282,-0.3140678846276363,-0.07328773527315059,-0.4377112594361883
76,1.0102649118304723,-0.35269213529876325,-0.07264603379060422,-0.448318126600134
77,1.0235578711966629,-0.3859663888774465,-0.07207748320225353,-0.45841009255254106
78,1.0368508305628534,-0.41143983118104,-0.07146648137675266,-0.46782284597916285
79,1.0501437899290438,-0.42816077397007163,-0.07076416081645129,-0.4764424940370491
80,1.063436749295234,-0.4366876321163243,-0.0699911081148078,-0.4842110408189711
81,1.0767297086614247,-0.4387574941428746,-0.06921920157203801,-0.49113208683579945
82,1.090022668027615,-0.4367409398486461,-0.06854042405079952,-0.49727857792797614
83,1.1033156273938054,-0.43305138327803405,-0.06803379501816419,-0.5027971542181411
84,1.116608586759996,-0.42966066383467777,-0.06774106388473143,-0.5078988527615993
85,1.1299015461261863,-0.4278175125432037,-0.06765824591087581,-0.5128281603422505
86,1.1431945054923769,-0.4279968457413604,-0.06774487373875744,-0.5178120001398432
87,1.1564874648585672,-0.43004735610957634,-0.06794753055425108,-0.5230021325154375
88,1.1697804242247576,-0.43346557141367226,-0.0682301604137629,-0.5284309913033319
89,1.183073383590948,-0.43770971864967856,-0.06860173795462282,-0.5339969914650415
90,1.1963663429571385,-0.4424723573823709,-0.06913252586727561,-0.5394822602081628
91,1.2096593023233289,-0.44784965221888484,-0.06995320622003891,-0.5445913566828373
92,1.2229522616895194,-0.4543708293225857,-0.07123592407145182,-0.5489928260269895
93,1.2362452210557098,-0.4628797753039915,-0.07316144626842255,-0.5523498598868155
94,1.2495381804219,-0.47428969465388365,-0.07588058432913357,-0.554337306620516
95,1.2628311397880907,-0.48925896559580656,-0.07947937757512731,-0.5546511491271012
96,1.276124099154281,-0.5078581300311865,-0.08395589105787349,-0.5530177410467391
97,1.2894170585204714,-0.5293095409765205,-0.08921274504036054,-0.5492047732606242
98,1.302710017886662,-0.5518781754119743,-0.09506534088406599,-0.5430300340360675
99,1.3160029772528523,-0.572971757972188,-0.10126269726161029,-0.5343629861645106
100,1.3292959366190429,-0.5894701344172416,-0.10751646970088498,-0.5231192171164446
101,1.3425888959852332,-0.598250525289587,-0.11353370348880967,-0.5092553966646247
102,1.3558818553514236,-0.5968152185285844,-0.11904926351770957,-0.4927767262615005
103,1.369174814717614,-0.5838776170473378,-0.12385400296630654,-0.47376579450945233
104,1.3824677740838045,-0.55974360423844,-0.12781460628184868,-0.4524315296586564
105,1.3957607334499949,-0.5263573755861893,-0.13088139613992517,-0.42916432978396774
106,1.4090536928161852,-0.486967111899428,-0.13308205199159756,-0.40457496963804174
107,1.4223466521823758,-0.4454827276893791,-0.13450228699298425,-0.37949516373288683
108,1.435639611548566,-0.40570024583340647,-0.13525814903597888,-0.35492717118561384
109,1.4489325709147567,-0.37060939936160786,-0.13546716666340952,-0.3319449876549797
110,1.462225530280947,-0.3419628587085805,-0.13522575452932187,-0.31156491219593235
111,1.4755184896471374,-0.32018548944889574,-0.13459792927619463,-0.29461342830763604
112,1.488811449013328,-0.3045864425718002,-0.1336164653529749,-0.2816221813600251
113,1.5021044083795183,-0.2937535285571812,-0.13229372630638148,-0.2727728056481887
114,1.5153973677457089,-0.2859845245132168,-0.13063690333262135,-0.26790080895868235
115,1.5286903271118992,-0.2796407752538737,-0.12866191517780934,-0.26655249430624317
116,1.5419832864780896,-0.27337018892021336,-0.12640162132709942,-0.2680774947425768
117,1.55527624584428,-0.2662088296833594,-0.1239065776425397,-0.2717353341982414
118,1.5685692052104705,-0.25760940121743314,-0.12123940142406255,-0.2767969900906509
119,1.5818621645766608,-0.24745147212746693,-0.11846603314504839,-0.28262811058640297
120,1.5951551239428512,-0.23606635172916554,-0.11564811688947241,-0.2887457001460202
121,1.6084480833090418,-0.2242725035223384,-0.11284002930058136,-0.29484377516337645
122,1.621741042675232,-0.21338269591131467,-0.11009187150997381,-0.3007873532431115
123,1.6350340020414225,-0.20512764528588717,-0.10745666340506163,-0.3065798072692102
124,1.648326961407613,-0.20145218836791914,-0.10499724681462205,-0.31231514612428113
125,1.6616199207738034,-0.20417871125799242,-0.10278741431299977,-0.31813065613180336
126,1.674912880139994,-0.2145876489133805,-0.10090344937357375,-0.3241731765199648
127,1.6882058395061843,-0.23301668482226673,-0.09940631296685953,-0.3305840249782
128,1.7014987988723749,-0.258605773435512,-0.09831947938701195,-0.3374972987012616
129,1.7147917582385652,-0.28929634867356313,-0.09761055173781039,-0.3450397468356707
130,1.7280847176047556,-0.3221272470280017,-0.09718452101143121,-0.3533213460348326
131,1.741377676970946,-0.35377558115271657,-0.09689280631647319,-0.36241330136201966
132,1.7546706363371365,-0.3812042287249174,-0.09655673186756077,-0.37231969055179664
133,1.7679635957033268,-0.402236557801056,-0.09599932999700429,-0.38295469668600357
134,1.7812565550695172,-0.4159027189850499,-0.09507716950085504,-0.39413617860170524
135,1.7945495144357078,-0.4224799565599784,-0.09370472178361783,-0.40559937158499043
136,1.807842473801898,-0.42324814280765255,-0.09186671943835359,-0.4170263911603107
137,1.8211354331680885,-0.42006228076907826,-0.08961759775191393,-0.4280829178494142
138,1.834428392534279,-0.41488018316272046,-0.08707015159971086,-0.43845496422600705
139,1.8477213519004692,-0.40937115187674866,-0.08437720709076482,-0.4478835191388588
140,1.86101431126666,-0.40468370301807727,-0.08171021583028382,-0.45619804385472723
141,1.8743072706328503,-0.40138970488424364,-0.07923761855201057,-0.4633476615439708
142,1.8876002299990409,-0.3995703815179445,-0.07710441428970664,-0.4694226322163828
143,1.9008931893652312,-0.39898037552954585,-0.07541354617550675,-0.4746538079806913
144,1.9141861487314216,-0.3992229795939192,-0.07421006215909495,-0.4793796515676593
145,1.927479108097612,-0.39988720548899226,-0.07347035160531927,-0.48398001869134843
146,1.9407720674638025,-0.40062483322715337,-0.07310009826222123,-0.48878897666576065
147,1.9540650268299928,-0.40117169893831195,-0.07294459644785052,-0.49400919493437634
148,1.9673579861961832,-0.40133426921794996,-0.0728129257370061,-0.49965352570458454
149,1.9806509455623735,-0.4009672238264022,-0.07251349156150946,-0.5055342973836711
150,1.993943904928564,-0.399962347710755,-0.07189408044734931,-0.5113090937950718
151,2.0072368642947547,-0.3982583639430358,-0.07087681227270755,-0.5165762408690908
152,2.020529823660945,-0.3958706051277363,-0.06947872906788961,-0.5209976372264117
153,2.033822783027136,-0.39293211445847187,-0.06781254293913312,-0.5244153869083303
154,2.0471157423933257,-0.3897347485940411,-0.06606802774361198,-0.5269260565946472
155,2.060408701759516,-0.3867587610158557,-0.06448029531342567,-0.5288845007985292
156,2.073701661125707,-0.3846801102565552,-0.06329434330544209,-0.5308270592854107
157,2.086994620491897,-0.38434533025471523,-0.06273465134943555,-0.5333270712620198
158,2.100287579858088,-0.3867050142611237,-0.06298493529645584,-0.536817220066539
159,2.113580539224278,-0.392700706913293,-0.06417847562167178,-0.5414260319420365
160,2.1268734985904683,-0.40310774173043623,-0.06639587082488849,-0.5468749261990076
161,2.1401664579566586,-0.41834823072806954,-0.06966586702954808,-0.552466939899804
162,2.1534594173228494,-0.4383022878100638,-0.07396604366442247,-0.5571730857270629
163,2.16675237668904,-0.4621586031119875,-0.07922257137396214,-0.5597954882160783
164,2.18004533605523,-0.4883534002319685,-0.08531060380989032,-0.5591670052453329
165,2.1933382954214204,-0.5146442008324316,-0.09205796183159032,-0.5543410816513464
166,2.206631254787611,-0.5383463673647175,-0.09925414289777994,-0.5447335948500853
167,2.2199242141538016,-0.5567238609003455,-0.10666470605865497,-0.530195425952702
168,2.233217173519992,-0.5674759420068535,-0.1140487648359802,-0.5110130363377944
169,2.2465101328861823,-0.5692131360535323,-0.12117586764295941,-0.4878487577311227
170,2.2598030922523726,-0.5617902379818565,-0.1278387604856907,-0.4616408837852913
171,2.273096051618563,-0.5463812110207772,-0.1338603829778925,-0.4334867340258433
172,2.2863890109847533,-0.5252460903939162,-0.13909603142666876,-0.4045306211318251
173,2.299681970350944,-0.5012361262528295,-0.14343354337116854,-0.37587324915775816
174,2.3129749297171345,-0.477173387158835,-0.1467945252659442,-0.3485100412383707
175,2.326267889083325,-0.45528503164788076,-0.14913797856528657,-0.3232956942004183
176,2.339560848449515,-0.4368495040016479,-0.1504652358375065,-0.3009249207318243
177,2.352853807815705,-0.42213227480714066,-0.1508234381759257,-0.2819182084770623
178,2.366146767181896,-0.4105880277442098,-0.1503048753684148,-0.2666067880116799
179,2.3794397265480867,-0.40122587950509325,-0.14904119298851956,-0.25511949427047353
180,2.392732685914277,-0.3930015945519079,-0.1471935492796907,-0.24738052134490984
181,2.406025645280468,-0.3851192290150316,-0.1449409129449809,-0.24312712535563172
182,2.4193186046466577,-0.3771772479691353,-0.1424682349545494,-0.24194993070425166
183,2.432611564012848,-0.36915536976730623,-0.13995476910093535,-0.24334948754970856
184,2.445904523379039,-0.3612862683059233,-0.13756165254955935,-0.2467963634956773
185,2.459197482745229,-0.3538793247191592,-0.13541806272073137,-0.25178158841868115
186,2.47249044211142,-0.34716137953608917,-0.13360690358495822,-0.25784932896278895
187,2.48578340147761,-0.3411791414359903,-0.1321530228570891,-0.2646111226683068
188,2.4990763608438,-0.3357801233162532,-0.131017998408044,-0.27174719539211467
189,2.5123693202099906,-0.3306634763623051,-0.13010468235749123,-0.2790030017061692
190,2.5256622795761814,-0.3254750132762539,-0.12927219024355072,-0.28618788340094675
191,2.538955238942372,-0.31991376822285666,-0.1283590126477338,-0.2931789737743301
192,2.552248198308562,-0.3138191742262432,-0.12720968863993135,-0.2999290892892122
193,2.5655411576747524,-0.30721576041588716,-0.12569971066047123,-0.3064738324638163
194,2.578834117040943,-0.30030385797079295,-0.1237539387022354,-0.31293124334873457
195,2.592127076407133,-0.2933982580695883,-0.12135523013404029,-0.3194874615040222
196,2.605420035773324,-0.286830026450425,-0.11854171601860357,-0.3263644132264639
197,2.6187129951395143,-0.28083710389481165,-0.1153930039569439,-0.3337708968225522
198,2.6320059545057046,-0.27547409155738684,-0.11200767636451586,-0.3418461006481769
199,2.645298913871895,-0.27056891305262054,-0.10847678285260419,-0.35061205244538923
200,2.6585918732380853,-0.26574417711105114,-0.10486006929765739,-0.3599542957324345
201,2.671884832604276,-0.2605065802834102,-0.10117236436479707,-0.36964413655539563
202,2.6851777919704665,-0.2543921085513483,-0.09738576735743446,-0.37940101285051964
203,2.698470751336657,-0.24714096243407493,-0.09344881737031945,-0.3889755942542257
204,2.711763710702847,-0.2388656347914498,-0.08931788057926132,-0.3982223051985653
205,2.725056670069037,-0.23016973788674336,-0.08499094022544239,-0.4071314891986591
206,2.738349629435228,-0.2221763405046831,-0.08053219541339564,-0.41580732837961976
207,2.7516425888014187,-0.2164358068987724,-0.07607842865391234,-0.424401249081519
208,2.764935548167609,-0.21470597577732914,-0.07182406846760994,-0.4330306917345906
209,2.7782285075338,-0.21862940199679914,-0.06798878159809747,-0.4417196162086379
210,2.7915214668999897,-0.22936581936853778,-0.06477649343357998,-0.4503861949599313
211,2.80481442626618,-0.24726242865179843,-0.06233622619798162,-0.4588799879337793
212,2.8181073856323704,-0.2716501130724298,-0.06073317498749007,-0.46704730008978884
213,2.831400344998561,-0.3008347087141042,-0.05993469176810682,-0.4747914495144663
214,2.8446933043647515,-0.3323105675629268,-0.059812351878125156,-0.48209988800825
215,2.857986263730942,-0.36316812481320515,-0.06015910098688668,-0.48902881229376916
216,2.871279223097132,-0.39061334835830164,-0.06071928282645967,-0.4956577677911086
217,2.8845721824633226,-0.41248210632419363,-0.061228114267279365,-0.502040755457464
218,2.8978651418295134,-0.4276297031999715,-0.06145535847315493,-0.5081802532828159
219,2.911158101195704,-0.43610758238125447,-0.061246028585105534,-0.5140373577021157
220,2.924451060561894,-0.4390947940843575,-0.0605500913671717,-0.5195720295483165
221,2.9377440199280844,-0.43861169868562233,-0.05943435259987262,-0.5247915361216856
222,2.9510369792942748,-0.4370884221367356,-0.058073183649729784,-0.5297797102332759
223,2.964329938660465,-0.4368807450124463,-0.05671963292448097,-0.5346865278302506
224,2.977622898026656,-0.43982280697894915,-0.055663192326643504,-0.5396733231296231
225,2.9909158573928463,-0.44688816111504853,-0.05518350716450013,-0.5448270278995965
226,3.0042088167590366,-0.45800816617464685,-0.05550976781461269,-0.550070105046349
227,3.017501776125227,-0.47207516024340007,-0.056793478783584754,-0.5550965453445716
228,3.0307947354914173,-0.48713722266852494,-0.05909855789728204,-0.5593574310252589
229,3.044087694857608,-0.5007675037423345,-0.06240837303432458,-0.5621051605432532
230,3.0573806542237985,-0.5105602413055614,-0.06664545149844016,-0.562489049321133
231,3.070673613589989,-0.5146691818162606,-0.07169705092890111,-0.559682173895235
232,3.083966572956179,-0.5122723263390146,-0.07743904690215242,-0.5530130095873453
233,3.097259532322369,-0.5038370889985191,-0.08375172384638298,-0.5420755460236426
234,3.11055249168856,-0.4910888827995482,-0.09052375142895022,-0.5267966320573579
235,3.12384545105475,-0.4766581915758822,-0.0976443551088042,-0.5074482973849248
236,3.137138410420941,-0.46347914777592053,-0.10498765685115315,-0.4846051086509208
237,3.150431369787132,-0.45409986351908077,-0.11239623849958183,-0.4590600410062343
238,3.1637243291533217,-0.45010155111391686,-0.11967191653349646,-0.43172230089718
239,3.177017288519512,-0.4517896675837141,-0.12657979838735425,-0.4035224899605169
240,3.1903102478857024,-0.45822851916269497,-0.13286736965262086,-0.3753436124030002
241,3.203603207251893,-0.467579822270581,-0.1382952441776575,-0.347984518874562
242,3.2168961666180835,-0.47761938703395196,-0.14267226419938892,-0.3221510905934667
243,3.230189125984274,-0.48627193352669895,-0.14588616942221416,-0.29846345641820504
244,3.243482085350464,-0.4920247266141205,-0.1479221781203823,-0.2774651729743166
245,3.2567750447166546,-0.4941387319393205,-0.1488647469681937,-0.25962137317260126
246,3.270068004082845,-0.4926453348046293,-0.14888150452147436,-0.2452968357213794
247,3.283360963449036,-0.4881740679758507,-0.1481921648211908,-0.23471209179943983
248,3.296653922815226,-0.48168872872417157,-0.14702862158134472,-0.22788570206642975
249,3.3099468821814164,-0.47421356922332,-0.14559481227079554,-0.22458119515358133
250,3.3232398415476068,-0.46661440133936644,-0.14403555711477684,-0.22428347848540295
251,3.336532800913797,-0.45947166320792127,-0.142421782307402,-0.22622748354434916
252,3.349825760279988,-0.4530531390390276,-0.14075533734087242,-0.2294896313922425
253,3.3631187196461783,-0.4473693772022397,-0.13899100237768916,-0.23313299155273157
254,3.3764116790123686,-0.44227817818751175,-0.13706806683160094,-0.2363764155788244
255,3.389704638378559,-0.43759744692870434,-0.1349410042477738,-0.23874457548168387
256,3.4029975977447493,-0.4331891745759463,-0.1325994784905846,-0.24015576559278473
257,3.41629055711094,-0.4289910599143332,-0.1300720204237008,-0.24091890057696697
258,3.4295835164771304,-0.4249931728192504,-0.12741367876247514,-0.24163641369873273
259,3.442876475843321,-0.421178425765624,-0.12468353731924801,-0.24303775314906306
260,3.456169435209511,-0.41745922521939394,-0.12192120198704971,-0.24578955997405616
261,3.469462394575701,-0.41364278068653465,-0.11913118328410555,-0.25033591361687
262,3.482755353941892,-0.40944418147995587,-0.11628080963717854,-0.2568123970386313
263,3.496048313308082,-0.4045454440855951,-0.11331226737381289,-0.2650542612287534
264,3.509341272674273,-0.3986791774272763,-0.11016445398388792,-0.27468975643051013
265,3.5226342320404638,-0.39170511005199915,-0.10679720714254443,-0.2852846282743617
266,3.5359271914066537,-0.3836501313141599,-0.1032099718922063,-0.2964905858283106
267,3.549220150772844,-0.37469619182610636,-0.09944893858423502,-0.3081523187119661
268,3.5625131101390344,-0.3651196325849616,-0.09560025918203217,-0.3203426536169677
269,3.575806069505225,-0.3552027222458463,-0.09177101905235098,-0.33331857534308573
270,3.5890990288714155,-0.3451470959830806,-0.08806316855071865,-0.3474152492109495
271,3.602391988237606,-0.3350168326918367,-0.0845477408141881,-0.36291378523422607
272,3.615684947603796,-0.3247278713024728,-0.0812467966429067,-0.37992558059960635
273,3.6289779069699866,-0.3140850948789976,-0.07812849833257306,-0.39832929999067757
274,3.642270866336177,-0.30285392685493695,-0.07511699221589191,-0.41777829414425705
275,3.655563825702368,-0.2908434937454835,-0.0721143952809171,-0.437773211385027
276,3.668856785068558,-0.2779752769707163,-0.06902843917525517,-0.4577750470330268
277,3.682149744434749,-0.2643153260637971,-0.06579747983219353,-0.4773242685646093
278,3.6954427038009383,-0.25005900212264714,-0.062405464890902276,-0.49613391159185233
279,3.708735663167129,-0.23547261771201042,-0.05888304847709195,-0.5141361230016006
280,3.72202862253332,-0.22081192842254796,-0.055296201552034595,-0.5314773579971336
281,3.7353215818995102,-0.20624780251542277,-0.05172832726645914,-0.548471822684826
282,3.7486145412657006,-0.19183017729839744,-0.0482640000475677,-0.565531538905339
283,3.761907500631891,-0.17751132145515452,-0.04498109510111683,-0.5830923991280186
284,3.775200459998081,-0.1632310625463769,-0.04195404644002551,-0.601549260618096
285,3.788493419364272,-0.14904568356323286,-0.039266255983430975,-0.6212029138436517
286,3.8017863787304624,-0.13526535104769655,-0.0370262991981108,-0.6422130603155967
287,3.815079338096653,-0.12255754055415223,-0.0353815688005584,-0.6645492549983053
288,3.828372297462843,-0.11197818410750149,-0.0345241294583535,-0.6879378585825542
289,3.8416652568290335,-0.10490689685873172,-0.03468579054068215,-0.7118144284916748
290,3.854958216195224,-0.10288382041379825,-0.036121688258954156,-0.7353011549393005
291,3.868251175561414,-0.10736856893479829,-0.03908346565623464,-0.7572313600260269
292,3.881544134927605,-0.11946207907621934,-0.04378447719975383,-0.7762347032186271
293,3.8948370942937953,-0.1396462582487118,-0.05036062447415594,-0.7908795816026817
294,3.9081300536599857,-0.1676010697259673,-0.058831692049817086,-0.7998492163342545
295,3.921423013026176,-0.20215118920697764,-0.06906938984720173,-0.8021126652468346
296,3.9347159723923664,-0.2413728420392037,-0.08077937610300776,-0.797048478549772
297,3.948008931758557,-0.2828572765084509,-0.09350461778457092,-0.7844907901615241
298,3.961301891124748,-0.3240869806645521,-0.10665559048464288,-0.7646931264841953
299,3.974594850490938,-0.36284553380305895,-0.11956831444444761,-0.7382345396079035
300,3.987887809857128,-0.39756488278947383,-0.13158432017302302,-0.7059120103523423
301,4.001180769223319,-0.4275239718783996,-0.14213906291195685,-0.6686617647806665
302,4.014473728589509,-0.45285020138400567,-0.15083998740027993,-0.6275298219764123
303,4.027766687955699,-0.4743298194024704,-0.1575152804423246,-0.5836800328879151
304,4.04105964732189,-0.4930875062972542,-0.16222054087748256,-0.5384031680751363
305,4.05435260668808,-0.5102307917153807,-0.16520158420302272,-0.49308646012511687
306,4.067645566054271,-0.5265592938578921,-0.1668234452694011,-0.4491213095023757
307,4.0809385254204615,-0.5424107088532943,-0.16748386203013932,-0.40775776851149975
308,4.094231484786651,-0.5576657461489768,-0.16753135493279686,-0.36994263186751936
309,4.107524444152842,-0.5718819900221053,-0.16720374703555826,-0.33619109647027784
310,4.120817403519032,-0.5844914229708621,-0.16659547555229626,-0.3065356024137043
311,4.134110362885223,-0.5949889518214453,-0.16565489995455177,-0.28057324475546885
312,4.147403322251414,-0.6030577945325175,-0.16420825755355684,-0.25760360442679475
313,4.160696281617604,-0.6086100503187631,-0.16200496926062607,-0.2368219230833601
314,4.173989240983794,-0.6117525473326544,-0.15877804822155367,-0.2175166629463371
315,4.187282200349984,-0.6127086507536601,-0.15431168707516735,-0.19922034903668628
316,4.200575159716175,-0.6117325039956562,-0.14850526128752314,-0.18177787300338322
317,4.213868119082366,-0.6090452310244875,-0.14142036831087373,-0.16532204368632417
318,4.227161078448556,-0.604808127853968,-0.13329766195482523,-0.15017403736572704
319,4.240454037814747,-0.599131984274707,-0.12453522340072719,-0.1367080407129047
320,4.2537469971809365,-0.5921097950516176,-0.1156299207536107,-0.12522808246705058
321,4.267039956547127,-0.5838551357128889,-0.10709460361403952,-0.11589759648641178
322,4.280332915913317,-0.5745299830927877,-0.09937220824340012,-0.10874044360867789
323,4.293625875279508,-0.5643511655035196,-0.09276890092954374,-0.10370344066858296
324,4.306918834645699,-0.5535714321070097,-0.08742157882466753,-0.10074624826810341
325,4.320211794011889,-0.542438224132101,-0.08330351419062108,-0.09991504246289547
326,4.33350475337808,-0.5311401798401219,-0.08026072418053641,-0.10136553082593121
327,4.346797712744269,-0.5197569874935332,-0.07806490430838837,-0.10532377879810141
328,4.36009067211046,-0.5082301263953395,-0.07646785623537446,-0.11199946383421791
329,4.373383631476651,-0.4963683262822651,-0.07524596349771813,-0.12148491951218794
330,4.386676590842841,-0.48389226830057097,-0.07422883843133958,-0.13367844174630134
331,4.399969550209032,-0.4705107172445828,-0.07331143830161363,-0.14826133068183614
332,4.413262509575222,-0.45600905224843746,-0.07245242349599151,-0.16473907457294096
333,4.426555468941412,-0.44032513241011756,-0.07166305571842085,-0.18253461963751874
334,4.439848428307603,-0.42358917035698934,-0.07099095795368318,-0.20110346906577545
335,4.453141387673793,-0.4061138720534363,-0.0705023064096814,-0.2200330382543358
336,4.466434347039984,-0.3883357605043306,-0.07026511706677512,-0.23909523095296192
337,4.479727306406174,-0.37072338007158345,-0.07033549144261053,-0.2582390835747002
338,4.493020265772365,-0.3536777018498489,-0.07074793640910874,-0.2775322850854286
339,4.5063132251385545,-0.33745120029888365,-0.07151006017977542,-0.29707762662426085
340,4.519606184504745,-0.3221047853646263,-0.07260117971658647,-0.31693655313566593
341,4.532899143870936,-0.3075092279162646,-0.07397398091381575,-0.33708551864664676
342,4.546192103237126,-0.2933846832425448,-0.07555861980226741,-0.3574155376989702
343,4.559485062603317,-0.27936281261807183,-0.0772694533532298,-0.3777681252444836
344,4.572778021969507,-0.26505337469785345,-0.07901544731681827,-0.3979886474545484
345,4.5860709813356975,-0.25010111552804315,-0.08071554563382005,-0.4179750873533802
346,4.599363940701888,-0.23422729584832816,-0.08231936386717156,-0.4377064883081668
347,4.612656900068078,-0.21725978178893346,-0.08383136527744685,-0.45724732319004846
348,4.625949859434269,-0.19916218457319754,-0.08533364616389491,-0.4767357850383117
349,4.639242818800459,-0.18007250134595348,-0.08699964226702395,-0.4963692621414302
350,4.65253577816665,-0.1603537711338143,-0.08908989711304852,-0.5163955307330167
351,4.66582873753284,-0.14064589525560678,-0.09192283159157506,-0.5371054702122093
352,4.67912169689903,-0.12189518479150556,-0.09581878762686916,-0.5588101427458938
353,4.692414656265221,-0.1053338427807283,-0.10102372236799953,-0.5817816440222984
354,4.705707615631411,-0.09239017289140145,-0.10762757401782076,-0.606148760643667
355,4.719000574997602,-0.08453059594319356,-0.11549836186721425,-0.6317619601317525
356,4.732293534363792,-0.08305916186252078,-0.12425360261829302,-0.6580664482138334
357,4.745586493729983,-0.0889188299938864,-0.13328422798797934,-0.6840338931347165
358,4.758879453096173,-0.10254304900501458,-0.14183386677186377,-0.7081952833889109
359,4.772172412462363,-0.12379387163762215,-0.14912141528591022,-0.7287909029770665
360,4.785465371828554,-0.15199879369140387,-0.15448178382071046,-0.7440181148861768
361,4.798758331194744,-0.18607199797507637,-0.15749268216994974,-0.7523260748608415
362,4.812051290560935,-0.22468598428481643,-0.1580566570071097,-0.7526890810732281
363,4.8253442499271255,-0.26645200244358624,-0.15641733811485348,-0.7447921488128023
364,4.838637209293315,-0.31007218438279793,-0.15310467322143784,-0.7290826715210142
365,4.851930168659506,-0.35443852623130817,-0.14882158506680604,-0.7066747453784469
366,4.865223128025696,-0.39866832041390293,-0.14429876841205208,-0.6791288732086654
367,4.878516087391887,-0.4420782646245978,-0.14015084371099892,-0.6481595676211945
368,4.891809046758078,-0.48410927142136506,-0.13676412538854277,-0.6153389338856624
369,4.905102006124268,-0.5242221485872801,-0.13423581763556294,-0.5818620135888904
370,4.918394965490458,-0.5617916506307066,-0.13237107961705716,-0.5484213845451941
371,4.931687924856648,-0.5960312019321403,-0.13073277957101917,-0.5152105175121113
372,4.944980884222839,-0.6259788202798255,-0.12873143408006446,-0.4820454465615479
373,4.958273843589029,-0.6505629377720981,-0.1257395803220249,-0.4485688977155313
374,4.97156680295522,-0.668745482370434,-0.12121369367876247,-0.41448439816545896
375,4.984859762321411,-0.6797146221358004,-0.11480587960577568,-0.37976265966200545
376,4.9981527216876005,-0.683079902717715,-0.10644668953593593,-0.34477000251018775
377,5.011445681053791,-0.6790157521733142,-0.09638125997218186,-0.31028794846765334
378,5.024738640419981,-0.668308504787846,-0.08514619426364461,-0.2774203368812261
379,5.038031599786172,-0.6522850760924166,-0.0734857451727327,-0.24741247879455663
380,5.051324559152363,-0.6326321917429623,-0.06222146730264989,-0.221428278992566
381,5.064617518518553,-0.6111451362906092,-0.052104673695843165,-0.20034027017836237
382,5.077910477884744,-0.5894649701311708,-0.0436891090478267,-0.18458224625501898
383,5.091203437250933,-0.5688657647500235,-0.03725734104945692,-0.17409666471448956
384,5.104496396617124,-0.5501370825539375,-0.03281848416885806,-0.16838409815150182
385,5.117789355983315,-0.5335775073408275,-0.030172547671016757,-0.16663628804018168
386,5.131082315349505,-0.5190833466090697,-0.02901642723681691,-0.16791469070643816
387,5.144375274715696,-0.5062934584091927,-0.029055661679188067,-0.17132827245110446
388,5.157668234081886,-0.4947427629409385,-0.03008764889467165,-0.17616963285717
389,5.170961193448076,-0.48398353582902515,-0.03203432303728002,-0.18198465609056594
390,5.184254152814266,-0.47365047332102056,-0.03492027064929226,-0.1885717583556831
391,5.197547112180457,-0.46346630723586996,-0.03880979794485027,-0.19592573155095305
392,5.210840071546648,-0.4532034862192498,-0.04372835819991633,-0.20415323654155515
393,5.224133030912838,-0.4426296881068719,-0.049596916191172805,-0.2133897821108076
394,5.2374259902790286,-0.4314678404163128,-0.05620181717034711,-0.22374154811229244
395,5.2507189496452185,-0.41939406336439883,-0.06320979049528787,-0.23526207033628818
396,5.264011909011409,-0.4060815872828396,-0.07022229700286035,-0.24795835083830103
397,5.2773048683776,-0.3912804003822243,-0.0768508744171436,-0.26180939390096486
398,5.29059782774379,-0.3749077664423215,-0.08278973187490893,-0.2767773531048916
399,5.303890787109981,-0.3571189891843327,-0.0878649659448118,-0.2927986474219657
400,5.317183746476171,-0.33833237964314977,-0.0920493047832846,-0.3097561847656857
401,5.330476705842361,-0.3191948977177324,-0.09544285842358535,-0.3274474677557885
402,5.343769665208552,-0.3004907421497375,-0.098229597244025,-0.345569870408075
403,5.357062624574742,-0.28300962823948456,-0.10062373318958552,-0.36374018466208335
404,5.370355583940933,-0.26740155464695875,-0.10281979698115844,-0.38155242731580385
405,5.383648543307123,-0.25404917102058133,-0.1049565938717061,-0.3986619087067383
406,5.396941502673314,-0.24298695489702232,-0.10710033978953837,-0.41487153929811543
407,5.410234462039504,-0.2338881114864913,-0.1092474861674657,-0.43019266953294916
408,5.423527421405694,-0.2261259864989782,-0.11134363472490333,-0.44485817528905125
409,5.436820380771885,-0.21889913897056534,-0.1133118387371928,-0.4592779076624138
410,5.450113340138075,-0.21139242456766413,-0.11508196338782421,-0.473942375751626
411,5.463406299504266,-0.20293591066007716,-0.11661318484259152,-0.48929552393997217
412,5.476699258870456,-0.19312367786570572,-0.11790428074969872,-0.5056079762419977
413,5.489992218236647,-0.18186691001570898,-0.11899047695602002,-0.5228853328308548
414,5.503285177602837,-0.16937683088995834,-0.11992997873629034,-0.5408403024829548
415,5.516578136969027,-0.15609545251160806,-0.12078643405895162,-0.5589424546989799
416,5.529871096335218,-0.14260690057946646,-0.12161432328967249,-0.5765376997295054
417,5.543164055701408,-0.12956345479186993,-0.12245238112440943,-0.5930073843358393
418,5.556457015067599,-0.11764854525585083,-0.12332641734926926,-0.6079224176045696
419,5.5697499744337895,-0.10757947830811578,-0.12425883691002428,-0.6211474559006702
420,5.583042933799979,-0.1001336706677542,-0.12527935027434178,-0.6328643244399742
421,5.59633589316617,-0.09617058294460225,-0.12643081086809163,-0.6435067413224214
422,5.60962885253236,-0.096621177242745,-0.12776594507504777,-0.6536216338825027
423,5.622921811898551,-0.10242757682674555,-0.12933426976405424,-0.6636894029472299
424,5.636214771264741,-0.1144338349761925,-0.13116245772224483,-0.6739438596961995
425,5.649507730630932,-0.1332476246927446,-0.13323431620221035,-0.6842325788035877
426,5.662800689997122,-0.15910522083454506,-0.13547720834706645,-0.6939511611091499
427,5.676093649363312,-0.19177417653379247,-0.13775990905714391,-0.7020712198116265
428,5.689386608729503,-0.230519879059919,-0.13990340714726487,-0.7072630774159291
429,5.702679568095693,-0.2741474573691472,-0.14170254565625146,-0.7080930870542012
430,5.715972527461884,-0.32111401700979025,-0.1429538960781409,-0.7032570050692588
431,5.729265486828075,-0.369691619520325,-0.14348432517507465,-0.6918006023191438
432,5.7425584461942645,-0.4181511462997226,-0.14317502231140727,-0.6732809759480394
433,5.755851405560455,-0.464932783559903,-0.14197677422222335,-0.6478372843758561
434,5.769144364926645,-0.5087716202078804,-0.1399136899468446,-0.6161633930564442
435,5.782437324292836,-0.5487572437943841,-0.13707437397897435,-0.5793990557073603
436,5.795730283659027,-0.5843227320949248,-0.1335917555066315,-0.5389725687276685
437,5.809023243025217,-0.6151768193433086,-0.12961518878879952,-0.49643189512545854
438,5.822316202391408,-0.6412072353769137,-0.12528046711603663,-0.4532940545339944
439,5.835609161757597,-0.662388126741587,-0.12068431666537004,-0.4109292245730523
440,5.848902121123788,-0.678718557880333,-0.11586930075682418,-0.3704826988731791
441,5.862195080489978,-0.6902052500774983,-0.11082298328364264,-0.3328292074106734
442,5.875488039856169,-0.6968865379349988,-0.10549230026014175,-0.2985519292686248
443,5.88878099922236,-0.6988815892952288,-0.09981113628380146,-0.2679418777649598
444,5.9020739585885496,-0.6964428431637689,-0.09373658890872859,-0.2410191342904379
445,5.91536691795474,-0.6899912040178148,-0.08728741129042795,-0.21758140151425567
446,5.92865987732093,-0.6801209081761915,-0.08057659619437159,-0.19728376366851977
447,5.941952836687121,-0.6675704730773292,-0.07382926932152586,-0.17974510924182832
448,5.955245796053312,-0.6531641744705359,-0.06737779479293994,-0.16466387457794673
449,5.968538755419502,-0.6377334659250351,-0.06162922397826477,-0.1519143503000373
450,5.9818317147856925,-0.6220303087744673,-0.057006265690092414,-0.14159155365615617
451,5.995124674151882,-0.6066458502649472,-0.05387081556525643,-0.13398229147813034
452,6.008417633518073,-0.5919485229839959,-0.0524463820666066,-0.12946202300400908
453,6.021710592884264,-0.578054335708024,-0.05275949997986375,-0.12834442170766322
454,6.035003552250454,-0.564837589985971,-0.05461807969563984,-0.13073153257818174
455,6.048296511616645,-0.5519823196327989,-0.057636135454797115,-0.13641648178937094
456,6.061589470982835,-0.5390649636059927,-0.061301579318531016,-0.14487425028197687
457,6.074882430349025,-0.5256502232329786,-0.06507104926591037,-0.15534519162133303
458,6.088175389715215,-0.5113783245464106,-0.06846784755921467,-0.16698373361810265
459,6.101468349081406,-0.49602527159683374,-0.07115899459818201,-0.17902438254984485
460,6.114761308447597,-0.4795271754870966,-0.07299483847329981,-0.1909160462886294
461,6.128054267813787,-0.4619710468882116,-0.07400627849198152,-0.2023920840625536
462,6.141347227179978,-0.4435623293229213,-0.07436599714198058,-0.21346833684781347
463,6.154640186546168,-0.4245812596853645,-0.07432765871067284,-0.22438349159754345
464,6.167933145912358,-0.4053372187154989,-0.07415947911305648,-0.23550761915278573
465,6.181226105278549,-0.3861262642598669,-0.07408662014632694,-0.2472441056227635
466,6.194519064644739,-0.36719500098469776,-0.07425238872457961,-0.2599419656311029
467,6.20781202401093,-0.3487143346308796,-0.07470315506182214,-0.27382693743480396
468,6.22110498337712,-0.3307679375169936,-0.07539742586637292,-0.2889561933575672
469,6.234397942743311,-0.3133602611322595,-0.07623584591016049,-0.3052029176551654
470,6.247690902109501,-0.2964460623907311,-0.07710570411644997,-0.32227825936743665
471,6.260983861475691,-0.2799773041299758,-0.07793056287471486,-0.3397935054668328
472,6.274276820841882,-0.26395542587125226,-0.07871335943012595,-0.357353668432739
473,6.287569780208072,-0.2484707328848157,-0.0795608543475063,-0.3746601765054537
474,6.300862739574263,-0.23371003543325752,-0.08067979503470765,-0.39159276397470294
475,6.314155698940453,-0.21992098451357908,-0.08234106570765831,-0.408243892400382
476,6.327448658306643,-0.2073355201990212,-0.08481660107340763,-0.42489226033309757
477,6.340741617672834,-0.19607082090584113,-0.08830284311276773,-0.44192005712732907
478,6.354034577039024,-0.18603821666423623,-0.09285105954107675,-0.45969568134674116
479,6.367327536405215,-0.17689398744281626,-0.09832601305412593,-0.47845515048808973
480,6.380620495771405,-0.16805864966350945,-0.10440864781959858,-0.4982182055208663
481,6.393913455137596,-0.1588141055376592,-0.11064643603698163,-0.5187671484833667
482,6.407206414503786,-0.1484650160552477,-0.11654037583228848,-0.5396981507987356
483,6.420499373869976,-0.1365290172934563,-0.12164570237160256,-0.5605306210446522
484,6.433792333236167,-0.12290793756642213,-0.1256590042211966,-0.5808385510529221
485,6.447085292602357,-0.10799438516118574,-0.1284694766675534,-0.6003577286711043
486,6.460378251968548,-0.09268469390577445,-0.13016427160501803,-0.6190298005152556
487,6.4736712113347386,-0.07829413223740676,-0.13099215594934924,-0.6369666797297034
488,6.4869641707009285,-0.066394616231626,-0.13130051613727828,-0.6543477314506753
489,6.500257130067119,-0.05861146989618687,-0.1314649084252985,-0.67128539275086
490,6.513550089433309,-0.05642074312135462,-0.13182779832608643,-0.6877033486900606
491,6.5268430487995,-0.06098309354518587,-0.13265623323573386,-0.7032635189418542
492,6.54013600816569,-0.07303753174681797,-0.1341201737327594,-0.7173595913887841
493,6.553428967531881,-0.09286232423476873,-0.13628681170999632,-0.7291744813699523
494,6.566721926898071,-0.12029482554581956,-0.13912308868543125,-0.7377839731769604
495,6.580014886264261,-0.15479050369730843,-0.14249930586337048,-0.7422815534516255
496,6.593307845630452,-0.1954968038004429,-0.14619061130968486,-0.7418987474290024
497,6.606600804996642,-0.2413209599628801,-0.14987868448802952,-0.7360985239976174
498,6.619893764362833,-0.2909810252019125,-0.1531608276203397,-0.7246253411205764
499,6.633186723729024,-0.3430423596526208,-0.15557553741820387,-0.707504724943775
500,6.6464796830952135,-0.39595249513441233,-0.15665087064669542,-0.6849980779112501
501,6.659772642461404,-0.44809119004452813,-0.15597454143190653,-0.6575319722089866
502,6.673065601827594,-0.4978474543534185,-0.15327471858917002,-0.625629865426312
503,6.686358561193785,-0.5437227912984229,-0.148491663507419,-0.5898725348490502
504,6.699651520559976,-0.5844450824790641,-0.14181699994757038,-0.5509004323935757
505,6.712944479926166,-0.6190677148459155,-0.13368264088371182,-0.509451507333982
506,6.7262374392923565,-0.6470293594164226,-0.12469507976903818,-0.46641039973509046
507,6.739530398658546,-0.6681615675035452,-0.11552852100638361,-0.4228368430434867
508,6.752823358024737,-0.6826482826987958,-0.10680487457149578,-0.37994572063358567
509,6.766116317390927,-0.6909550188643354,-0.09899329068379262,-0.3390266839910056
510,6.779409276757118,-0.6937498892584324,-0.09235442891633248,-0.3013123799806356
511,6.792702236123309,-0.6918336213946382,-0.08693862623702599,-0.26782430388038525
512,6.805995195489499,-0.6860855980889644,-0.08262979761958339,-0.23923710566434367
513,6.819288154855689,-0.6774233265329684,-0.07921511056072988,-0.21580069818830294
514,6.832581114221879,-0.6667670116900115,-0.07645744865985789,-0.19734382839287834
515,6.84587407358807,-0.6549999484893142,-0.07415238624305946,-0.18335760318025496
516,6.859167032954261,-0.6429186886286513,-0.07216015371093232,-0.17313225316611305
517,6.872459992320451,-0.6311733078034497,-0.07041191723057906,-0.16590562455537247
518,6.885752951686642,-0.6202057870449982,-0.06889605415448091,-0.16098377637696726
519,6.899045911052832,-0.6102006869657779,-0.06763319459132366,-0.15781084272763055
520,6.912338870419022,-0.6010639220117404,-0.06664907757571621,-0.15598768337468877
521,6.925631829785213,-0.5924410913995667,-0.0659526525658841,-0.1552554773497574
522,6.938924789151403,-0.5837777835547812,-0.06552419356849823,-0.15546505175666536
523,6.952217748517594,-0.5744139898283767,-0.06531509730024616,-0.1565472735481592
524,6.965510707883784,-0.5636968517707723,-0.0652579566938898,-0.1584911160688148
525,6.978803667249975,-0.551092312933381,-0.06528289108285219,-0.16132975023191706
526,6.992096626616165,-0.5362766633868096,-0.06533453079538576,-0.16513240678021254
527,7.005389585982355,-0.5191923466174585,-0.06538403030796529,-0.16999899364655696
528,7.018682545348546,-0.5000580012776956,-0.06543222040259447,-0.17605403396429956
529,7.031975504714736,-0.479330300839906,-0.0655031084532384,-0.18343660209390564
530,7.045268464080927,-0.4576241545075799,-0.06563042841807583,-0.1922843206223491
531,7.058561423447117,-0.43560662682758566,-0.06584263275506574,-0.20271205127612554
532,7.071854382813307,-0.4138861437203782,-0.06615264332906544,-0.21478868059562814
533,7.085147342179498,-0.39292004885582726,-0.06655743218004749,-0.2285173013657044
534,7.098440301545688,-0.37295943692003736,-0.06704932707427487,-0.2438245297803588
535,7.111733260911879,-0.35404113406863186,-0.06763662271468324,-0.26056346921818024
536,7.125026220278069,-0.3360249739469058,-0.06836681542878628,-0.27853189879017615
537,7.13831917964426,-0.318663426273337,-0.0693429950884438,-0.29750295135050864
538,7.15161213901045,-0.30168353274623316,-0.07072400059922805,-0.3172609358272815
539,7.16490509837664,-0.28486005071277687,-0.07270264242664297,-0.3376318514779706
540,7.178198057742831,-0.2680634598066279,-0.07546312624550244,-0.358498311380191
541,7.191491017109021,-0.2512747465868361,-0.07912678653972995,-0.3797928070848491
542,7.204783976475212,-0.2345676673806542,-0.083701396391922,-0.4014706011822702
543,7.218076935841402,-0.21806629259804017,-0.08905087365679334,-0.4234714633862077
544,7.231369895207592,-0.2018901339596937,-0.0948978036521442,-0.445684676089226
545,7.244662854573783,-0.1861010207438044,-0.1008617558672075,-0.467931822925232
546,7.257955813939973,-0.17066542741355537,-0.10652503326295723,-0.48997660638708146
547,7.271248773306164,-0.15544355482791528,-0.1115085651446312,-0.5115622852664466
548,7.284541732672354,-0.1402125389407736,-0.11553774306495677,-0.5324683466138905
549,7.297834692038545,-0.12472594745392886,-0.11848220989477766,-0.5525715136470599
550,7.311127651404735,-0.10880516058172379,-0.12036293791338971,-0.5718936471742954
551,7.324420610770925,-0.09245031849283718,-0.1213303246709206,-0.5906205064182478
552,7.337713570137116,-0.07595024525796654,-0.12162450130071967,-0.6090798253379193
553,7.351006529503306,-0.05996469814826962,-0.12153141105906345,-0.6276741504535431
554,7.364299488869497,-0.04555185512598556,-0.12134563461780967,-0.6467734569046825
555,7.377592448235688,-0.03412145784255045,-0.12134527532371184,-0.6665842642414269
556,7.390885407601877,-0.027308911819297628,-0.12177798188668729,-0.687023153466771
557,7.404178366968068,-0.026784171926168752,-0.12285263462539951,-0.7076283999841493
558,7.417471326334258,-0.03402585449663521,-0.12472975852851294,-0.7275393678744095
559,7.430764285700449,-0.050100593299501645,-0.1275055736098378,-0.7455583689792065
560,7.44405724506664,-0.07548758236245129,-0.13118881145708466,-0.7602877834757219
561,7.45735020443283,-0.10997932431126445,-0.13567436597853477,-0.770313841829167
562,7.4706431637990205,-0.15267519992578166,-0.14072182550899004,-0.7743955217999845
563,7.48393612316521,-0.20206847198101505,-0.14594876011017735,-0.7716174949380914
564,7.497229082531401,-0.2562123629945114,-0.1508477336127368,-0.7614795655003379
565,7.510522041897591,-0.31293812972498636,-0.15483228134746713,-0.7439157449207456
566,7.523815001263782,-0.3700886820157722,-0.15731085845918857,-0.7192555462229521
567,7.537107960629973,-0.4257273079731108,-0.1577798849236096,-0.6881514556288363
568,7.550400919996163,-0.47828503946987594,-0.15591914164039697,-0.6514975719245205
569,7.563693879362353,-0.5266233786421245,-0.15166738484460826,-0.6103572783276128
570,7.576986838728543,-0.5700097255338654,-0.14525597165051812,-0.5659070133915747
571,7.590279798094734,-0.608025775870579,-0.13718553780331477,-0.5193933180128196
572,7.603572757460925,-0.6404472453379956,-0.12814495266698328,-0.4720946513923718
573,7.616865716827115,-0.6671397310839394,-0.11888907470699044,-0.4252792099484941
574,7.630158676193306,-0.688006731063303,-0.11010573064197024,-0.3801540730210656
575,7.643451635559495,-0.7030037189245427,-0.10230653408978467,-0.3378068470716565
576,7.656744594925686,-0.7122045401984691,-0.09576814783048351,-0.29914600791942014
577,7.670037554291877,-0.7158842896005512,-0.09053348110045517,-0.26484887682884134
578,7.683330513658067,-0.7145754777487825,-0.0864633073156717,-0.23532622471228973
579,7.696623473024258,-0.7090645958378572,-0.08331540323191734,-0.2107101102983729
580,7.709916432390448,-0.7003194441195825,-0.08082477608090907,-0.19086750027597996
581,7.7232093917566385,-0.6893640320076837,-0.07876437607350796,-0.17543784495439552
582,7.736502351122828,-0.6771371135107654,-0.07697675086811812,-0.16388944080044193
583,7.749795310489019,-0.664375588605322,-0.07537813046152944,-0.15558761150829464
584,7.76308826985521,-0.6515538511205612,-0.07394356952734066,-0.14986707602949262
585,7.7763812292214,-0.6388891811105291,-0.07268381179107393,-0.14610077839342608
586,7.789674188587591,-0.626399838450698,-0.07162259965392136,-0.14375784305365227
587,7.802967147953779,-0.6139857644644392,-0.07077938257265294,-0.14244453021105424
588,7.816260107319971,-0.6014981354058404,-0.07015871737146832,-0.14192441895092617
589,7.829553066686162,-0.588774402213037,-0.06974525302454855,-0.14211742885780276
590,7.842846026052352,-0.5756349258279188,-0.06950241204819338,-0.14308090403848905
591,7.856138985418543,-0.561857146686538,-0.0693734882254978,-0.1449784660176253
592,7.869431944784733,-0.547154855548081,-0.06928525396017608,-0.1480425711798339
593,7.8827249041509235,-0.5311888606701931,-0.06915550140817495,-0.1525349567000989
594,7.896017863517114,-0.5136219597035402,-0.0689064296829041,-0.15870736166271077
595,7.909310822883304,-0.49421108827986154,-0.06848482378157474,-0.16676511940795385
596,7.922603782249495,-0.4729106421697249,-0.06788735836510516,-0.17683834230246093
597,7.935896741615685,-0.44995066765101505,-0.06718563597648401,-0.18896680389346096
598,7.949189700981876,-0.42585638052263425,-0.06654214498491884,-0.20310240547117664
599,7.962482660348066,-0.40139113794316017,-0.06620714849503417,-0.21912718131458211
600,7.975775619714256,-0.37742851756804824,-0.06648922835476909,-0.23687836226816297
601,7.989068579080447,-0.3547824662671081,-0.06769914158749572,-0.2561693053625618
602,8.002361538446637,-0.334039551543454,-0.07007623255801643,-0.27679819783564125
603,8.015654497812827,-0.31543916686718254,-0.07371557303881496,-0.29854376737433747
604,8.028947457179019,-0.2988355125182004,-0.07851825901340098,-0.3211545545948464
605,8.042240416545209,-0.28375279953070087,-0.0841838863920696,-0.344341549586003
606,8.055533375911399,-0.2695186804671732,-0.0902529634361413,-0.3677817585340851
607,8.06882633527759,-0.25543799307181186,-0.09619129116700782,-0.3911344578431887
608,8.08211929464378,-0.24095688897374498,-0.10149412602865585,-0.414066213108925
609,8.09541225400997,-0.22577119924343045,-0.10578110330447767,-0.4362781463917825
610,8.10870521337616,-0.20985218905057063,-0.10885627055683436,-0.4575298582901908
611,8.121998172742352,-0.1933911788785775,-0.11071956176043993,-0.4776570348498878
612,8.135291132108541,-0.1766914016391679,-0.11153165176468367,-0.4965820677918593
613,8.148584091474731,-0.1600511549939828,-0.11154757610642704,-0.5143185002220786
614,8.161877050840923,-0.1436818697738856,-0.11104161389328748,-0.5309713701471592
615,8.175170010207113,-0.12768954770654495,-0.11024533320706886,-0.5467361984581391
616,8.188462969573303,-0.11212450886725286,-0.10931366180932797,-0.5618973994684259
617,8.201755928939495,-0.09708091285298123,-0.10832337212834595,-0.5768208833274505
618,8.215048888305684,-0.0828113253401417,-0.10729802399411952,-0.5919282552550593
619,8.228341847671874,-0.06981673246982399,-0.10624625705054942,-0.6076381400802403
620,8.241634807038064,-0.05887913708704827,-0.10519813712604802,-0.6242696665705698
621,8.254927766404256,-0.05101940779552365,-0.10422710132903418,-0.6419225962633818
622,8.268220725770446,-0.047382839732027615,-0.10345138718248327,-0.6603680320932721
623,8.281513685136636,-0.04907395164846085,-0.10301620725965704,-0.6789908226166531
624,8.294806644502827,-0.05697596017908361,-0.10306388771730662,-0.6968137215990997
625,8.308099603869017,-0.07159585019056328,-0.10370210225606567,-0.7126083879237433
626,8.321392563235207,-0.09297139274972281,-0.10497979441613979,-0.7250707136567877
627,8.334685522601397,-0.1206625221986468,-0.10687709015761052,-0.7330188573349131
628,8.347978481967589,-0.15382935595301347,-0.10931081416156002,-0.7355672718065409
629,8.361271441333779,-0.19137791065613893,-0.1121526163351102,-0.7322382964676867
630,8.374564400699969,-0.2321378182504062,-0.11525340394792599,-0.7229903413336556
631,8.38785736006616,-0.2750285135350019,-0.11846651215656939,-0.7081630746205511
632,8.40115031943235,-0.3191735242576691,-0.12166303502332265,-0.6883598989801772
633,8.41444327879854,-0.3639359415743106,-0.12473559888964837,-0.664301362002006
634,8.427736238164732,-0.4088687435263634,-0.12759068074625168,-0.6366869421983241
635,8.441029197530922,-0.4535965710127576,-0.13013316069407327,-0.60609706135045
636,8.454322156897112,-0.49766524559016995,-0.13224909844664526,-0.5729550117896636
637,8.467615116263302,-0.5404065200006902,-0.13379326037134398,-0.5375532042888853
638,8.480908075629493,-0.5808645761352976,-0.1345869104001025,-0.5001325755388052
639,8.494201034995683,-0.6178167571300278,-0.13442939970178042,-0.46099081838895195
640,8.507493994361873,-0.6498966735510816,-0.1331245764012531,-0.42058747504366595
641,8.520786953728065,-0.6757992245498372,-0.13052000652582565,-0.3796145342267953
642,8.534079913094255,-0.694522065883584,-0.1265533420383132,-0.339010137007539
643,8.547372872460445,-0.7055839323551517,-0.12129627722795736,-0.2999072506524941
644,8.560665831826634,-0.7091615547317879,-0.11498367940065864,-0.2635242538571191
645,8.573958791192826,-0.7061041929257982,-0.10801552541808557,-0.2310170417783171
646,8.587251750559016,-0.6978141188024352,-0.10092365968388749,-0.20332126808265083
647,8.600544709925206,-0.6860151230721281,-0.0943039733820971,-0.18101797975886613
648,8.613837669291398,-0.672459874031016,-0.08872514076028244,-0.16425437441205515
649,8.627130628657588,-0.6586423173257215,-0.08463376626428398,-0.15274152889599507
650,8.640423588023777,-0.6455788219514518,-0.08227900994434546,-0.14583291349461774
651,8.653716547389969,-0.6337025878779025,-0.08167569170299376,-0.14266592648919255
652,8.667009506756159,-0.6228860823903796,-0.0826146413265632,-0.14233130075331712
653,8.680302466122349,-0.6125747173424544,-0.08471620310364125,-0.1440289389524904
654,8.693595425488539,-0.6019900946914611,-0.08751171065322193,-0.14717582507825916
655,8.70688838485473,-0.5903488604613057,-0.09053186651498643,-0.15144872077569954
656,8.72018134422092,-0.5770455884258295,-0.09338162428038509,-0.1567641350606075
657,8.73347430358711,-0.561763145607317,-0.09578739345349184,-0.1632132057109422
658,8.746767262953302,-0.5444964823600911,-0.09761152776019352,-0.17097571828500377
659,8.760060222319492,-0.5254991329116859,-0.09883794137094543,-0.1802361100188008
660,8.773353181685682,-0.5051797643904102,-0.09953872738327944,-0.19111823436565545
661,8.786646141051872,-0.48398467053704336,-0.09983358610606971,-0.20364800102146058
662,8.799939100418063,-0.46229983412728015,-0.09985208955308993,-0.217745353662661
663,8.813232059784253,-0.4403948841347719,-0.09970496345984879,-0.23324015422142577
664,8.826525019150443,-0.41841530257796,-0.09946664540430701,-0.24990146391037324
665,8.839817978516635,-0.3964140193841078,-0.09916866859627699,-0.2674679729216366
666,8.853110937882825,-0.3744036785232363,-0.09880208476603393,-0.285669920757037
667,8.866403897249015,-0.35240862443325066,-0.09832660971227321,-0.30423902262761077
668,8.879696856615206,-0.3305004551407701,-0.0976839210418477,-0.32291008334106575
669,8.892989815981396,-0.30880999452604574,-0.09681247606017186,-0.34142297138949584
670,8.906282775347586,-0.28751796328236273,-0.09566154985172781,-0.35953425894884106
671,8.919575734713776,-0.2668331035728065,-0.09420300269133164,-0.37704360261831926
672,8.932868694079968,-0.24696822593747833,-0.0924403043500938,-0.39383196879497
673,8.946161653446158,-0.2281219505661466,-0.09041502901992506,-0.40989976316997
674,8.959454612812348,-0.21046903220485552,-0.08821088884961736,-0.4253867606651702
675,8.97274757217854,-0.19415798195584782,-0.08595433434465637,-0.44055650921919504
676,8.98604053154473,-0.1793131977447944,-0.08380941849260204,-0.455737577360253
677,8.999333490910919,-0.16603990389727255,-0.08196406992808083,-0.47123048894271763
678,9.012626450277107,-0.15443188268096775,-0.08060607896717902,-0.4872059504934454
679,9.0259194096433,-0.1445819076551675,-0.07989011662556487,-0.503628750190685
680,9.03921236900949,-0.13659227914172734,-0.0799011321007493,-0.5202368694928243
681,9.05250532837568,-0.13057977974105772,-0.08062298861258942,-0.5365875595247187
682,9.065798287741872,-0.12666895956108298,-0.0819226070648576,-0.5521585341062215
683,9.079091247108062,-0.12497205238941751,-0.08355809363977373,-0.5664730701910331
684,9.092384206474252,-0.12556193631883808,-0.08521416895448528,-0.5792105606676798
685,9.105677165840444,-0.12845201343199641,-0.08656074772402673,-0.5902710311908513
686,9.118970125206634,-0.1335983058307044,-0.08732296494905621,-0.5997792228447408
687,9.132263084572823,-0.1409315092331575,-0.08734608324224011,-0.6080333256352941
688,9.145556043939012,-0.15041221055998372,-0.08663869638770462,-0.615417833270039
689,9.158849003305203,-0.162087647677898,-0.0853828173893369,-0.6223052290899483
690,9.172141962671397,-0.17612141834860842,-0.08390801243779689,-0.6289677426853589
691,9.185434922037585,-0.19277349219545697,-0.0826356379014303,-0.6355118870081443
692,9.198727881403777,-0.212325557432696,-0.08200561452872689,-0.6418394515628533
693,9.212020840769966,-0.23496905912009694,-0.0824006022066928,-0.6476327575019076
694,9.225313800136156,-0.26069087128537455,-0.0840811433764133,-0.6523611815965764
695,9.238606759502346,-0.2891970653549205,-0.08714166187721464,-0.6553097069059781
696,9.251899718868538,-0.3199061094176574,-0.09149275648141338,-0.6556350530618182
697,9.265192678234728,-0.35202159157084023,-0.09687118215940875,-0.6524552244313415
698,9.278485637600918,-0.3846677187518406,-0.10287561183216644,-0.6449699699689404
699,9.29177859696711,-0.4170470905421745,-0.10902337592418544,-0.6325942111985159
700,9.3050715563333,-0.44856825825167557,-0.11482041050636085,-0.6150721201607158
701,9.31836451569949,-0.4788963597306377,-0.11983363453044338,-0.5925365616375955
702,9.33165747506568,-0.5079041934836404,-0.12375280255595021,-0.5654923849122047
703,9.34495043443187,-0.5355367518984516,-0.1264290648193244,-0.5347283487059813
704,9.35824339379806,-0.5616366836953557,-0.12788134995097644,-0.5011891772109628
705,9.37153635316425,-0.5857973051072404,-0.12826928144806288,-0.4658530301512344
706,9.384829312530442,-0.6073046769656224,-0.1278406188954523,-0.4296533062545528
707,9.398122271896632,-0.6252015566222168,-0.12686859487404717,-0.3934600017533375
708,9.411415231262822,-0.6384638959255307,-0.12559664526992015,-0.35810632488363714
709,9.424708190629014,-0.6462404671154858,-0.12420383890356189,-0.3244253645231223
710,9.438001149995204,-0.6480828363689147,-0.1227958129244614,-0.2932593371314408
711,9.451294109361394,-0.6440946131468229,-0.12141713181384012,-0.26542071039954074
712,9.464587068727583,-0.6349545676176914,-0.1200752805479907,-0.24161105285961046
713,9.477880028093775,-0.6218077722249017,-0.11876547982342063,-0.22232592827898903
714,9.491172987459963,-0.6060576668171213,-0.11748837859616836,-0.2077816059671535
715,9.504465946826157,-0.5891168190367884,-0.11625732310882045,-0.19788950322368776
716,9.517758906192348,-0.5721789556052163,-0.11509616650954824,-0.19228413095505292
717,9.531051865558537,-0.5560615135936281,-0.11403113610852021,-0.19039139599703336
718,9.544344824924726,-0.5411438483251871,-0.11308085663012675,-0.19151523075897067
719,9.557637784290918,-0.5273999210572626,-0.11224781092111724,-0.1949229737727416
720,9.570930743657108,-0.5145027369987283,-0.11151320196872526,-0.19991829133969086
721,9.584223703023298,-0.5019653793285058,-0.11083605995968046,-0.20589779892312582
722,9.597516662389488,-0.48928176009334895,-0.11015672078990472,-0.2123906201258703
723,9.61080962175568,-0.4760378413448729,-0.10940426319827955,-0.2190802556529651
724,9.62410258112187,-0.46197725154947317,-0.10850682352430938,-0.22580838095550265
725,9.63739554048806,-0.4470191037687833,-0.10740290773873411,-0.23256201290950942
726,9.650688499854253,-0.4312365079316146,-0.10605131783656689,-0.23944799025829788
727,9.66398145922044,-0.41481007885831184,-0.1044376692826605,-0.24666014881694795
728,9.67727441858663,-0.3979722060879501,-0.10257685758634084,-0.25444400636947523
729,9.69056737795282,-0.3809565532308673,-0.10051263339238276,-0.2630616943077771
730,9.703860337319012,-0.3639643722315007,-0.09831650831271505,-0.272757850737003
731,9.717153296685202,-0.347154855060848,-0.09608755849603162,-0.28372690137345624
732,9.730446256051392,-0.3306605448371054,-0.09395231640942935,-0.2960840716542662
733,9.743739215417584,-0.3146212451181792,-0.0920610847157796,-0.30984505060855283
734,9.757032174783774,-0.29922284207641137,-0.0905756146600673,-0.32491972759353915
735,9.770325134149964,-0.28472382705077226,-0.08964472055658143,-0.34112220486279327
736,9.783618093516155,-0.27145438739110056,-0.08936918951867774,-0.3581935845898808
737,9.796911052882344,-0.2597811625358623,-0.08976363825961206,-0.37582934661747636
738,9.810204012248535,-0.2500430693499147,-0.09072786595168826,-0.39370261424558517
739,9.823496971614723,-0.24247571347879288,-0.09204089378291197,-0.41147861530935426
740,9.836789930980917,-0.23714871388465097,-0.09338592045328517,-0.4288215944757958
741,9.850082890347108,-0.2339380593857391,-0.09440494845036428,-0.44539982353792723
742,9.863375849713297,-0.23254425585907623,-0.09477120555220335,-0.4608952571150565
743,9.876668809079488,-0.2325507030843525,-0.09425999076784401,-0.4750223090316038
744,9.889961768445678,-0.23350235672697942,-0.09279748750194422,-0.48755692451153987
745,9.903254727811868,-0.23497849355180483,-0.09047309294601218,-0.4983736413188455
746,9.916547687178058,-0.23663768958943387,-0.08751171439405567,-0.5074844289275782
747,9.92984064654425,-0.2382256135499914,-0.08421433114779539,-0.515068624994306
748,9.94313360591044,-0.23955160180866494,-0.08088400549137666,-0.5214799635842885
749,9.95642656527663,-0.24045261575671575,-0.077757989431785,-0.5272179044213798
750,9.96971952464282,-0.24076904717518935,-0.07496407861169464,-0.532858708423356
751,9.983012484009013,-0.2403538853148608,-0.07251199373883406,-0.5389556024673698
752,9.9963054433752,-0.23912498014822478,-0.0703204684142885,-0.5459312509040536
753,10.009598402741393,-0.23715213238941152,-0.0682706095903115,-0.5539923980861213
754,10.022891362107584,-0.23475221125179527,-0.0662687833128572,-0.5630915195737908
755,10.036184321473772,-0.23255406587644567,-0.06429999583304356,-0.5729447904528591
756,10.049477280839962,-0.23149697648477865,-0.06245632806581357,-0.5830961223326648
757,10.062770240206154,-0.23274325423118478,-0.0609333164593405,-0.5930020687949359
758,10.076063199572344,-0.23751243084233975,-0.059997334869430055,-0.6021085836195641
759,10.089356158938534,-0.24687155417101972,-0.05993536840083662,-0.6098990706304058
760,10.102649118304726,-0.2615328762372431,-0.061002243195123436,-0.6159090428834267
761,10.115942077670915,-0.28170993334541644,-0.06337856197724752,-0.6197178689427829
762,10.129235037037104,-0.3070657969848991,-0.06714668790069203,-0.6209355885910344
763,10.142527996403295,-0.3367600759229426,-0.07228491312388619,-0.6192004319314436
764,10.155820955769489,-0.36957462773794114,-0.07867434687616973,-0.6141934466690108
765,10.169113915135677,-0.4040812340797434,-0.08611095860977486,-0.6056661589127038
766,10.182406874501869,-0.4388118754016629,-0.09431694430626376,-0.5934704341888198
767,10.195699833868058,-0.47240150444285733,-0.10294995614632867,-0.5775789918779248
768,10.208992793234248,-0.5036878031518381,-0.11161356810196671,-0.5580898765925156
769,10.222285752600438,-0.5317653517985628,-0.1198752785633284,-0.5352161184605538
770,10.23557871196663,-0.5559991785674007,-0.12729767854926624,-0.5092692754655476
771,10.24887167133282,-0.5760054411131835,-0.1334838334506605,-0.4806489687232473
772,10.26216463069901,-0.5916083106120764,-0.13813091005651748,-0.44984761270203916
773,10.2754575900652,-0.602784561172357,-0.14107961968828003,-0.4174706718413714
774,10.288750549431391,-0.6096104235228164,-0.14234451513184726,-0.384261496050652
775,10.30204350879758,-0.6122258621447965,-0.14211359557431216,-0.3511117172178365
776,10.315336468163771,-0.6108266476134435,-0.14071431611658375,-0.31903822147444993
777,10.328629427529965,-0.6056842838011879,-0.1385535103380991,-0.28911700320018785
778,10.341922386896153,-0.5971813549839425,-0.1360464428541293,-0.2623791864135204
779,10.355215346262344,-0.5858406139065379,-0.13355217074187448,-0.23968895943580237
780,10.368508305628533,-0.5723251288327394,-0.13132852537983136,-0.22163177271458182
781,10.381801264994724,-0.5573959243516514,-0.1295128302891443,-0.20844146909333336
782,10.395094224360914,-0.5418299299399002,-0.12812723287775382,-0.19998712418509185
783,10.408387183727104,-0.526317805955037,-0.12710254403799295,-0.1958257421522927
784,10.421680143093296,-0.5113707019908381,-0.1263123905636092,-0.19530851998668047
785,10.434973102459486,-0.4972629219976774,-0.12560972654112923,-0.1977113862150838
786,10.448266061825676,-0.4840251702011585,-0.12485936213340484,-0.202351884909857
787,10.461559021191867,-0.4714865019725443,-0.12396232854072457,-0.2086597795702837
788,10.474851980558055,-0.45934941519789835,-0.12287004876367184,-0.21618799890267282
789,10.488144939924249,-0.44727634531716787,-0.1215880693052528,-0.22457622210726513
790,10.501437899290435,-0.43496771993263517,-0.12017032557427476,-0.23349923564159578
791,10.514730858656629,-0.422218899724026,-0.11870555793717501,-0.2426358951537708
792,10.52802381802282,-0.40895178627853457,-0.11729782192214405,-0.2516802713456569
793,10.541316777389008,-0.39522339267421186,-0.11604347379052331,-0.2603924221866778
794,10.5546097367552,-0.3812167730080223,-0.1150078458228812,-0.26866517891069774
795,10.56790269612139,-0.36721963435343835,-0.11420584737708243,-0.2765753384042956
796,10.58119565548758,-0.35359408361566136,-0.11359121079138566,-0.2843945838430156
797,10.59448861485377,-0.3407390719815089,-0.11305822205972456,-0.2925515905875865
798,10.60778157421996,-0.32904669749192506,-0.11245723387078718,-0.3015535008276527
799,10.621074533586151,-0.3188552210564371,-0.11162162667633019,-0.31188580558837925
800,10.63436749295234,-0.31040467256501203,-0.11040041974246748,-0.3239127832604917
801,10.647660452318531,-0.30380323861846,-0.10868877733797878,-0.3377979115088172
802,10.660953411684725,-0.299012120489154,-0.10644899953615164,-0.35345815171274003
803,10.674246371050913,-0.2958527548738774,-0.1037171495571527,-0.3705597090886425
804,10.687539330417104,-0.29403496049898603,-0.10059434073545591,-0.38855631094702775
805,10.700832289783294,-0.2932002350638999,-0.09722555107814565,-0.40676420285227616
806,10.714125249149484,-0.292972206695477,-0.0937715002246496,-0.4244614252946888
807,10.727418208515674,-0.2930054473631668,-0.09038011369361088,-0.44099374823130855
808,10.740711167881866,-0.2930236831270587,-0.08716355251297474,-0.45586748164803187
809,10.754004127248056,-0.29283953356730386,-0.08418508117749647,-0.46881143151299165
810,10.767297086614246,-0.2923516582911127,-0.08145752116902777,-0.47979662232186243
811,10.780590045980436,-0.29152155621993525,-0.07895211266313369,-0.4890117178208405
812,10.793883005346627,-0.29033892482464313,-0.0766140219408604,-0.49680187005462095
813,10.807175964712815,-0.28878827217128716,-0.07437942457896425,-0.5035862534014045
814,10.820468924079009,-0.28682862583525187,-0.07218968110658014,-0.509772755605232
815,10.8337618834452,-0.28439328250385454,-0.07000036430892592,-0.5156866892341389
816,10.847054842811389,-0.28140976073142515,-0.06778563930305999,-0.5215251753887508
817,10.86034780217758,-0.2778339206782013,-0.06554025766777861,-0.527342326617805
818,10.87364076154377,-0.27368847670123897,-0.06328132786631509,-0.5330645494982176
819,10.88693372090996,-0.269095697565469,-0.06105037329545106,-0.5385308272100251
820,10.90022668027615,-0.2642965480539103,-0.058914239455447076,-0.5435490235698368
821,10.913519639642342,-0.25965238631176285,-0.0569625093606044,-0.5479555418807154
822,10.926812599008532,-0.2556288967018459,-0.055299871823458135,-0.5516633087586251
823,10.940105558374722,-0.2527644031134357,-0.05403402048677586,-0.5546846335779086
824,10.953398517740911,-0.2516265075045498,-0.05326206294618123,-0.5571222635854476
825,10.966691477107103,-0.2527629134817824,-0.053059802397290565,-0.5591314527289512
826,10.979984436473291,-0.25665411222616397,-0.053477753684641284,-0.560863113300463
827,10.993277395839485,-0.2636758548803572,-0.05454540608063628,-0.5623999258016742
828,11.006570355205676,-0.27407662793360543,-0.05628200241547274,-0.5636952701525149
829,11.019863314571865,-0.2879700576436514,-0.05870934443786094,-0.5645237100986413
830,11.033156273938054,-0.3053366112822887,-0.06186097485724753,-0.5644542076091099
831,11.046449233304244,-0.3260259028264739,-0.06578295905369311,-0.5628606161930109
832,11.059742192670436,-0.34975186529849217,-0.0705240841260031,-0.5589821013857581
833,11.073035152036626,-0.37607769284363984,-0.07611672847917088,-0.5520347133040514
834,11.086328111402816,-0.4043940722066197,-0.08255277691200215,-0.5413567176933239
835,11.099621070769008,-0.433900486165249,-0.08976076246587293,-0.5265533153716515
836,11.112914030135196,-0.4636029929570982,-0.09759047799636326,-0.5076012475221476
837,11.126206989501387,-0.4923412419029933,-0.10580987463384678,-0.48488513374263403
838,11.13949994886758,-0.5188522217323357,-0.11411677393834954,-0.4591605115949537
839,11.152792908233767,-0.5418695936464694,-0.1221652793860564,-0.4314617998139446
840,11.16608586759996,-0.5602479714267773,-0.1296039933071863,-0.4029853786952407
841,11.179378826966149,-0.5730940242119857,-0.13612037157150012,-0.3749743950530931
842,11.19267178633234,-0.5798827216806167,-0.1414832326862121,-0.3486177544276315
843,11.20596474569853,-0.5805377475172071,-0.14557443955390714,-0.32496172409056406
844,11.21925770506472,-0.5754592594506761,-0.148401980833082,-0.30482809016493073
845,11.232550664430912,-0.5654890116295652,-0.15009037320299576,-0.28874008817486785
846,11.245843623797102,-0.5518123570385898,-0.15084972300183686,-0.2768698720510827
847,11.259136583163292,-0.5358087060588005,-0.1509302772448346,-0.2690283872360917
848,11.272429542529482,-0.5188746999194792,-0.15057301554750352,-0.26471275718146153
849,11.285722501895671,-0.502253320661545,-0.14996754998425144,-0.2632088132371875
850,11.299015461261863,-0.4869026402753526,-0.1492261675128875,-0.2637261429072758
851,11.312308420628051,-0.47342811912571814,-0.14837819890679874,-0.2655309209324169
852,11.325601379994245,-0.46208523396235984,-0.1473835726802363,-0.2680440302060963
853,11.338894339360436,-0.452840874321412,-0.14615994261170162,-0.27088679650874276
854,11.352187298726625,-0.4454683855035801,-0.144615211608506,-0.2738760677127603
855,11.365480258092816,-0.43964589749914035,-0.14267702910003052,-0.27698532926176106
856,11.378773217459006,-0.43503143259060517,-0.14031274678647812,-0.2802937887262656
857,11.392066176825196,-0.4312997525981692,-0.1375366920748967,-0.2839410076518926
858,11.405359136191386,-0.4281415056149456,-0.13440536191020977,-0.288094819806631
859,11.418652095557578,-0.4252397902388571,-0.13100405460486622,-0.2929304942326163
860,11.431945054923768,-0.42224728663878386,-0.1274297332457554,-0.29861391844883695
861,11.445238014289956,-0.4187852018824499,-0.1237744831609293,-0.3052825993131689
862,11.45853097365615,-0.41447415306260976,-0.12011241091777564,-0.3130235374968264
863,11.47182393302234,-0.4089916662329445,-0.11649113591871411,-0.3218524342100266
864,11.485116892388527,-0.4021379709496599,-0.11292785748348919,-0.3317008300733021
865,11.49840985175472,-0.39388646851319276,-0.10940959410730781,-0.34241593384282415
866,11.51170281112091,-0.38439912579661406,-0.10589739359192862,-0.3537738134689992
867,11.5249957704871,-0.37399794516517926,-0.10233463692418206,-0.3655027784644781
868,11.53828872985329,-0.36309756473390875,-0.0986594864723342,-0.3773118890149722
869,11.551581689219482,-0.35211667574347866,-0.09482071289622658,-0.38891994827590587
870,11.564874648585672,-0.34139348291835553,-0.09079462368485432,-0.40008212972273205
871,11.578167607951862,-0.33113008294324353,-0.08659918997092522,-0.4106127807551288
872,11.591460567318054,-0.3213817785263076,-0.08230070960725511,-0.4204024934936951
873,11.604753526684243,-0.312092576405476,-0.07800935728263335,-0.42942563723837324
874,11.618046486050432,-0.3031627669390708,-0.07386293985331169,-0.43773367198414614
875,11.631339445416623,-0.2945243383379546,-0.07000218244707952,-0.4454323790422961
876,11.644632404782817,-0.2861985388792121,-0.06654417692585009,-0.4526477891157543
877,11.657925364149005,-0.27831693180468503,-0.06356156282527738,-0.45949250559597166
878,11.671218323515197,-0.27109949920169074,-0.06107299694424826,-0.46604594651344533
879,11.684511282881386,-0.26479647894361336,-0.059046406886196334,-0.47235566410725294
880,11.697804242247576,-0.2596112564684242,-0.057412307345999995,-0.47845485718051617
881,11.711097201613766,-0.25562768351499,-0.05608188912205117,-0.4843810393448238
882,11.724390160979956,-0.25276538181616626,-0.0549644712995672,-0.49018022675792106
883,11.737683120346148,-0.25078029445775124,-0.05398080487932189,-0.49589165984082
884,11.750976079712338,-0.24931568097244325,-0.05307139702293165,-0.5015234894706553
885,11.764269039078528,-0.24799370461234913,-0.05220116157867971,-0.5070392973128972
886,11.77756199844472,-0.24652439721170377,-0.051362469523448806,-0.5123712962180668
887,11.79085495781091,-0.2448021240021652,-0.05057801323172903,-0.5174598781223969
888,11.8041479171771,-0.24296280386689156,-0.04990340589610108,-0.5223004298769914
889,11.81744087654329,-0.2413874037031352,-0.04942800340627172,-0.5269687921851586
890,11.83073383590948,-0.24065395635683334,-0.04927183914358195,-0.5316029656719612
891,11.84402679527567,-0.2414547992157358,-0.049577148979848676,-0.5363381424105773
892,11.85731975464186,-0.24450238318653428,-0.05049450790875271,-0.5412149386878885
893,11.870612714008052,-0.2504444011642514,-0.0521654177007247,-0.5460953321613008
894,11.883905673374242,-0.25980013363093485,-0.05470449413400344,-0.5506203898438563
895,11.897198632740432,-0.27292004213827065,-0.05818472004818043,-0.554229215798377
896,11.910491592106624,-0.2899640668306651,-0.06262854795643556,-0.5562367831260332
897,11.923784551472814,-0.31089222162630004,-0.06800628082349074,-0.5559486160935988
898,11.937077510839003,-0.3354626052511735,-0.07424151922321282,-0.5527795946594644
899,11.950370470205192,-0.3632343938460499,-0.08122182959155297,-0.5463451084304164
900,11.963663429571383,-0.393574912432543,-0.08881142655224764,-0.5365038839952884
901,11.976956388937577,-0.42567020777145365,-0.09686195455144088,-0.5233485232165944
902,11.990249348303765,-0.458538710198964,-0.10521788142978503,-0.5071560714449797
903,12.003542307669957,-0.4910489501442075,-0.11371488017782724,-0.4883212142241321
904,12.016835267036146,-0.521945436740154,-0.12217260631756795,-0.4672960114164704
905,12.030128226402336,-0.5498907415913012,-0.13038645287330322,-0.44455310053454244
906,12.043421185768528,-0.573534138754233,-0.13812468819936322,-0.42057761747670414
907,12.056714145134718,-0.5916148698117222,-0.14513662438799985,-0.39588128506272763
908,12.070007104500908,-0.6030993472685572,-0.1511739507342717,-0.371024104450085
909,12.083300063867098,-0.6073373367346294,-0.15602227706966487,-0.34662715791401616
910,12.09659302323329,-0.6042069501372457,-0.15953532914521243,-0.3233644803035498
911,12.10988598259948,-0.5942090821685188,-0.16166207287152012,-0.3019307724527362
912,12.12317894196567,-0.5784747806125832,-0.16245823262003115,-0.28299097322527317
913,12.13647190133186,-0.5586655440676505,-0.16207777114386676,-0.26712312542016386
914,12.14976486069805,-0.5367723122744701,-0.16074547461006583,-0.2547654348362897
915,12.16305782006424,-0.5148454746107548,-0.15871707281446584,-0.24617357338961965
916,12.17635077943043,-0.4947070806509718,-0.15623678623443765,-0.24138975285171632
917,12.189643738796622,-0.47770256267612815,-0.15350279240110554,-0.240225146401448
918,12.202936698162812,-0.46454185829603445,-0.15064850877173705,-0.24226190032198333
919,12.216229657529002,-0.4552609030972411,-0.14774244586452762,-0.24688522120615317
920,12.229522616895194,-0.44930778618940237,-0.144803422630956,-0.2533533598693561
921,12.242815576261384,-0.44572892981393347,-0.14182344933514174,-0.2609014414534776
922,12.256108535627574,-0.4434068897482484,-0.1387893436565736,-0.2688588320677194
923,12.269401494993764,-0.441290554546231,-0.13569643289765948,-0.2767485445877215
924,12.282694454359955,-0.4385653425247882,-0.13255214717977204,-0.284338883945368
925,12.295987413726143,-0.4347337519861117,-0.12937170178299823,-0.29163280290152904
926,12.309280373092337,-0.4296067801438034,-0.12617051359667814,-0.2988021833453169
927,12.322573332458528,-0.42323252465530836,-0.12295785294471406,-0.30609211936640834
928,12.335866291824717,-0.41580050261536544,-0.1197342296611153,-0.31372688634735374
929,12.349159251190908,-0.40755648050241833,-0.11649261191718352,-0.32184379566781246
930,12.362452210557098,-0.39874755897356023,-0.11322202739332689,-0.3304682118506729
931,12.375745169923288,-0.3895992385904936,-0.10991182418655689,-0.3395288720433424
932,12.389038129289478,-0.38031297806347925,-0.10655547909813354,-0.34890167480084383
933,12.402331088655668,-0.3710686257188959,-0.1031535803596186,-0.35846403647698377
934,12.41562404802186,-0.3620208100462399,-0.09971591107222387,-0.3681410035846348
935,12.42891700738805,-0.3532877405657918,-0.09626234390271168,-0.37792830002817884
936,12.44220996675424,-0.3449389262753217,-0.09282190196741588,-0.3878854202132179
937,12.455502926120433,-0.33699050669513214,-0.08942935994893628,-0.398101625864279
938,12.46879588548662,-0.3294127114167697,-0.08611944450478107,-0.40864633486078805
939,12.482088844852813,-0.32214707473554804,-0.082919890530474,-0.41952026618320304
940,12.495381804219004,-0.3151264266889934,-0.0798457453264841,-0.4306234399942139
941,12.508674763585192,-0.3082910845929322,-0.07689765692148476,-0.44175092558565887
942,12.521967722951382,-0.30159896099664457,-0.07406594548409866,-0.4526187065921045
943,12.535260682317572,-0.2950318796542089,-0.07134011684859043,-0.46291278158330834
944,12.548553641683764,-0.2886019187409391,-0.06872087467904259,-0.47234747362178947
945,12.561846601049954,-0.28235910629898553,-0.06622979006245179,-0.4807161414120228
946,12.575139560416144,-0.27639708077051106,-0.06391167510045724,-0.487920086656016
947,12.588432519782335,-0.2708498403166715,-0.06182679351785921,-0.4939688171449629
948,12.601725479148524,-0.2658734716827727,-0.06003374645045992,-0.4989546083918418
949,12.615018438514715,-0.2616124826682815,-0.0585677897522913,-0.5030129835253091
950,12.628311397880903,-0.2581587710457459,-0.05742185661053023,-0.5062849265930899
951,12.641604357247097,-0.25551809715369284,-0.056537589655283195,-0.508894663525311
952,12.654897316613289,-0.2536001703165701,-0.05581112687321604,-0.5109494663378791
953,12.668190275979477,-0.252242454255999,-0.0551140991726129,-0.512558093540162
954,12.681483235345668,-0.25126624884517734,-0.05432571490815025,-0.5138561418980142
955,12.694776194711858,-0.25055101581215766,-0.05336837468061653,-0.5150232255445795
956,12.708069154078048,-0.2501046710409466,-0.052237964622644815,-0.5162799291786443
957,12.72136211344424,-0.2501074686784416,-0.05102108559953013,-0.5178604166136769
958,12.73465507281043,-0.2509154703885212,-0.04989454149295801,-0.5199657676885674
959,12.74794803217662,-0.2530229347681232,-0.0491064946004602,-0.5227098105546181
960,12.76124099154281,-0.2569955442071787,-0.048942717617484054,-0.5260713805244716
961,12.774533950909,-0.26339303389208385,-0.049684421596122894,-0.5298646206262668
962,12.787826910275191,-0.2726984620538831,-0.051565663104496375,-0.5337335214811947
963,12.80111986964138,-0.28526402017659147,-0.0547381597595349,-0.5371704373983169
964,12.814412829007573,-0.3012744686525394,-0.05924962924538702,-0.539553319434991
965,12.827705788373764,-0.32072340447043546,-0.06503891424756102,-0.5401951233435083
966,12.840998747739953,-0.3433967098320483,-0.07194772071250968,-0.5384016112854111
967,12.854291707106142,-0.36886099584924226,-0.0797454394969424,-0.533537777459821
968,12.867584666472334,-0.3964601214871202,-0.0881609707940849,-0.5251038083980447
969,12.880877625838524,-0.4253269452931078,-0.09691440025979349,-0.5128161436287146
970,12.894170585204714,-0.4544180549670135,-0.10574215239761361,-0.49667988275258595
971,12.907463544570906,-0.482575589374398,-0.11441169680741302,-0.47703150654333104
972,12.920756503937096,-0.5086136661277136,-0.12272526912923673,-0.4545317789945279
973,12.934049463303284,-0.5314200474651707,-0.13051532422538248,-0.4301000959512582
974,12.947342422669475,-0.5500592138725984,-0.13763654064291805,-0.4048002031417945
975,12.960635382035669,-0.5638622026604677,-0.14395951304262364,-0.37970527766039514
976,12.973928341401855,-0.572490772466329,-0.14936978448227706,-0.35577876058163876
977,12.987221300768049,-0.5759670590167018,-0.1537731961334608,-0.3338005327954042
978,13.000514260134238,-0.5746636753485437,-0.1571057086433365,-0.31434809277280823
979,13.013807219500428,-0.5692531518592809,-0.15934394579528685,-0.29781898348882496
980,13.027100178866618,-0.5606205116066482,-0.16051236667211488,-0.284466041219834
981,13.04039313823281,-0.54974904526835,-0.1606841197493543,-0.2744184974605529
982,13.053686097599,-0.5375959254841965,-0.15997460359310292,-0.26767757656699753
983,13.06697905696519,-0.5249787842978254,-0.15852872867797024,-0.26409522357426746
984,13.08027201633138,-0.5124944085321447,-0.15650430415675706,-0.2633577983821881
985,13.093564975697571,-0.5004853168438566,-0.15405471810616186,-0.26499684949600044
986,13.10685793506376,-0.48905988201743805,-0.15131416493613709,-0.2684376928181241
987,13.120150894429951,-0.47815885654501283,-0.14838806505364416,-0.2730799679451654
988,13.133443853796145,-0.46764876135223366,-0.1453499871811063,-0.27839025347357965
989,13.146736813162333,-0.45741460900997566,-0.14224456724951742,-0.283980569958341
990,13.160029772528524,-0.44742449118585087,-0.13909426196041882,-0.28964979262184315
991,13.173322731894714,-0.43774780755073117,-0.13590704212422544,-0.29537577006927473
992,13.186615691260904,-0.4285246885989422,-0.1326826848745749,-0.30126049295502233
993,13.199908650627094,-0.41990086265460613,-0.1294168036622498,-0.3074449362164734
994,13.213201609993284,-0.41195377857988524,-0.12610325556018087,-0.3140206698527143
995,13.226494569359476,-0.40463815589841706,-0.12273624637082808,-0.3209687047311458
996,13.239787528725666,-0.3977715388728332,-0.11931310027645473,-0.32814949668783705
997,13.253080488091856,-0.3910656085680172,-0.1158377221267631,-0.3353511314945546
998,13.266373447458047,-0.3841924373336275,-0.11232390961713312,-0.34237979339319013
999,13.279666406824235,-0.3768630209685723,-0.10879726015868091,-0.3491568394432532
1000,13.292959366190429,-0.36889300437836225,-0.10529451688683146,-0.3557802729709972
1001,13.306252325556615,-0.36023793246219227,-0.10185973331888695,-0.3625202817073503
1002,13.319545284922809,-0.3509933063723707,-0.09853752714109877,-0.36974499027512353
1003,13.332838244289,-0.34136673897670666,-0.0953647604925238,-0.3778019300702697
1004,13.346131203655188,-0.3316358042069324,-0.09236281766264302,-0.386899113846127
1005,13.35942416302138,-0.3221049423721982,-0.0895327434754432,-0.3970285760150263
1006,13.37271712238757,-0.3130704092169294,-0.08685466825921831,-0.40795636567722965
1007,13.38601008175376,-0.30479686456986416,-0.08429161986341291,-0.4192765898624601
1008,13.399303041119952,-0.2975048032606067,-0.0817968099975974,-0.43050596507244293
1009,13.412596000486142,-0.29136535529365337,-0.07932318559298836,-0.4411873341960671
1010,13.425888959852331,-0.28649807961220364,-0.07683402707897337,-0.4509752356939763
1011,13.43918191921852,-0.28296803189790765,-0.07431290931743234,-0.4596873084485014
1012,13.452474878584711,-0.28078017521563997,-0.07177037616865907,-0.46731536869684176
1013,13.465767837950905,-0.27987158122426276,-0.06924422008954022,-0.47399706744957787
1014,13.479060797317093,-0.28010429434989537,-0.06679148984021306,-0.47995491688062025
1015,13.492353756683285,-0.2812635640542403,-0.06447338057632863,-0.48541625526641347
1016,13.505646716049474,-0.28306658210219693,-0.06233761556634699,-0.4905345209575947
1017,13.518939675415664,-0.28518524460507866,-0.06040479352742889,-0.49533524822135677
1018,13.532232634781854,-0.28728289462232964,-0.05866418024736602,-0.49970570045210855
1019,13.545525594148046,-0.2890605451869474,-0.05708090346547577,-0.503434455593464
1020,13.558818553514236,-0.29030427997642844,-0.05561218855910964,-0.5062904412140358
1021,13.572111512880426,-0.29092371863405303,-0.054227182176741176,-0.5081165544161267
1022,13.585404472246616,-0.2909723581127599,-0.05292422081382381,-0.508907039705099
1023,13.598697431612807,-0.2906443465779765,-0.05174092026945443,-0.5088425053990406
1024,13.611990390978995,-0.2902481640216666,-0.05075506018814584,-0.5082698149919624
1025,13.625283350345187,-0.2901641755444336,-0.050076734446947734,-0.5076312265965691
1026,13.63857630971138,-0.29079763888791876,-0.049834031665457634,-0.5073623888649836
1027,13.651869269077569,-0.2925391426678634,-0.0501555790705433,-0.5077873278365577
1028,13.66516222844376,-0.29573994426291134,-0.05115374600639131,-0.5090378105390847
1029,13.67845518780995,-0.3007021839412668,-0.052912048714205906,-0.5110151704998357
1030,13.69174814717614,-0.3076772139429046,-0.05547907681915239,-0.513398841291788
1031,13.70504110654233,-0.31686262376076385,-0.05886916150428679,-0.5156930358450764
1032,13.718334065908522,-0.32839078839401115,-0.06306774965451283,-0.5172955663058255
1033,13.731627025274712,-0.3423069430750056,-0.06803806802105297,-0.5175719220190471
1034,13.744919984640902,-0.35853985165600777,-0.07372575327555161,-0.5159217575020061
1035,13.758212944007091,-0.3768711932061874,-0.08005943366187068,-0.5118311534027588
1036,13.771505903373283,-0.3969109441483843,-0.08694700339941375,-0.5049101104606389
1037,13.784798862739471,-0.4180863498133721,-0.09426893044058393,-0.4949192008504273
1038,13.798091822105665,-0.43965195068442137,-0.10187123893492459,-0.48179102923505834
1039,13.811384781471856,-0.46072668003262324,-0.10956177093711078,-0.4656504391907209
1040,13.824677740838045,-0.4803600888361754,-0.11711356764927928,-0.44683254560848845
1041,13.837970700204234,-0.49762322035865836,-0.12427809003514391,-0.42589159848229463
1042,13.851263659570426,-0.5117121750829701,-0.13080831359396503,-0.4035896220193844
1043,13.864556618936616,-0.5220465682471083,-0.1364881997640462,-0.3808547964597157
1044,13.877849578302806,-0.5283432234695812,-0.14116208075764006,-0.35870657021986013
1045,13.891142537668996,-0.5306487513698809,-0.1447564122064362,-0.3381551569309286
1046,13.904435497035188,-0.5293227483759922,-0.14728768094686914,-0.3200927022244729
1047,13.917728456401376,-0.5249742243558648,-0.14885361165601702,-0.3051975727508198
1048,13.931021415767567,-0.5183643950554325,-0.14960917348585628,-0.2938702250850487
1049,13.94431437513376,-0.5102959565498075,-0.14973298211183764,-0.28621067850326615
1050,13.957607334499947,-0.5015103892293407,-0.14939234358300538,-0.2820375591962252
1051,13.97090029386614,-0.4926106798797653,-0.14871557347050543,-0.2809406170011035
1052,13.98419325323233,-0.4840189177663063,-0.14777810442245565,-0.2823542519891085
1053,13.99748621259852,-0.47596930706385443,-0.14660473336670335,-0.2856386771273262
1054,14.01077917196471,-0.4685298729189973,-0.14518536074440866,-0.2901568656987682
1055,14.0240721313309,-0.4616421353411851,-0.14349747418032777,-0.29533858059851215
1056,14.037365090697092,-0.45516756947434844,-0.14152707824655517,-0.3007268341804441
1057,14.050658050063282,-0.44893189086636437,-0.1392814629918776,-0.3060059318435386
1058,14.063951009429472,-0.44276161013745297,-0.13679132607227157,-0.31101252816902597
1059,14.077243968795663,-0.43651050990051404,-0.13410430888561986,-0.31573144847576895
1060,14.090536928161852,-0.43007593791512944,-0.131274852615238,-0.32027725573446253
1061,14.103829887528043,-0.42340590711410553,-0.12835536196928032,-0.32486205618328684
1062,14.117122846894231,-0.4164980793094705,-0.12539147005040283,-0.3297507228803318
1063,14.130415806260425,-0.40939119724520834,-0.12242128272713655,-0.33520669901619754
1064,14.143708765626616,-0.4021492621832267,-0.11947643051676554,-0.3414344892974872
1065,14.157001724992805,-0.39483973844163367,-0.11658235980674032,-0.34852813012860856
1066,14.170294684358996,-0.3875096172369039,-0.11375639737984096,-0.3564370259434616
1067,14.183587643725186,-0.3801662099838387,-0.11100398372394125,-0.36495987809193436
1068,14.196880603091376,-0.37277092778884213,-0.10831517667650661,-0.3737728762698919
1069,14.210173562457568,-0.36525218935915144,-0.10566423674165677,-0.3824901596198471
1070,14.223466521823758,-0.35753776662472525,-0.10301430653312502,-0.39074477028852983
1071,14.236759481189948,-0.3495990941970812,-0.10032704408325548,-0.398270148667496
1072,14.250052440556138,-0.3414933845908232,-0.09757451538538123,-0.4049591467383736
1073,14.26334539992233,-0.3333869647886322,-0.09474904698018163,-0.4108819275449026
1074,14.27663835928852,-0.32554708305337826,-0.0918670623898914,-0.41625577134857533
1075,14.289931318654707,-0.31829915186388674,-0.08896517977959119,-0.42137527516207307
1076,14.3032242780209,-0.31195872469393926,-0.0860900307286315,-0.42652497564806724
1077,14.31651723738709,-0.30675742471565676,-0.08328586535027988,-0.4319025154112579
1078,14.32981019675328,-0.3027853311534686,-0.0805847647072751,-0.43757645641403947
1079,14.34310315611947,-0.29996775455122215,-0.0780028102158882,-0.44349017208019903
1080,14.356396115485662,-0.2980838685258526,-0.07554264355513698,-0.44950668826108175
1081,14.369689074851852,-0.29682204988136274,-0.07320004694704764,-0.45547490881002434
1082,14.382982034218042,-0.29585595492916167,-0.07097089814965256,-0.46129046364627113
1083,14.396274993584234,-0.2949195501315535,-0.06885552263993683,-0.46692712954987087
1084,14.409567952950423,-0.2938603145178918,-0.06685933871186155,-0.4724267940923499
1085,14.422860912316612,-0.29265729455012324,-0.06499052261280899,-0.4778531922852892
1086,14.436153871682803,-0.2914020351142937,-0.06325634439604856,-0.48323045821897764
1087,14.449446831048997,-0.2902518027286641,-0.06165980381879142,-0.48849496768525347
1088,14.462739790415185,-0.2893724149239909,-0.060197793698876435,-0.49348418349524825
1089,14.476032749781377,-0.28889023907041467,-0.05886179963676499,-0.4979709517156737
1090,14.489325709147566,-0.2888691219509289,-0.0576421776190975,-0.50173263867427
1091,14.502618668513756,-0.2893194281493096,-0.05653683547529322,-0.5046299410258549
1092,14.515911627879946,-0.29023559083113865,-0.055564025023569504,-0.5066659168438409
1093,14.529204587246138,-0.2916488360440111,-0.05477678572952846,-0.508002718479597
1094,14.542497546612328,-0.29367604049749646,-0.0542741815929025,-0.5089281707832699
1095,14.555790505978518,-0.29654609231431156,-0.05420336581953368,-0.509780940345178
1096,14.569083465344708,-0.30059208944523447,-0.05474799961236766,-0.5108557801282092
1097,14.5823764247109,-0.3062093283968855,-0.05610273355263133,-0.5123150795765669
1098,14.59566938407709,-0.31379098505357095,-0.058438880247012055,-0.5141284634229547
1099,14.60896234344328,-0.3236604659843416,-0.06187065372807754,-0.5160508476320248
1100,14.62225530280947,-0.33601831438017427,-0.06643221141751443,-0.5176366434049172
1101,14.63554826217566,-0.3509130056285861,-0.07207235664627687,-0.5182797825545491
1102,14.64884122154185,-0.3682334580211481,-0.07866728086121456,-0.5172691363914371
1103,14.662134180908042,-0.38771250940963986,-0.0860449392440679,-0.5138548913352371
1104,14.675427140274232,-0.408929298171669,-0.0940106937645806,-0.5073276952874718
1105,14.688720099640422,-0.43130508366186115,-0.10236453960721667,-0.49711291914323297
1106,14.702013059006612,-0.45409805688397864,-0.11090510400184396,-0.48287513823805955
1107,14.715306018372804,-0.4764119923890397,-0.11942229687424089,-0.464616313014571
1108,14.728598977738994,-0.49723544183327356,-0.1276860026188302,-0.4427420560715804
1109,14.741891937105184,-0.5155204169006967,-0.13544029863864007,-0.4180703627278443
1110,14.755184896471375,-0.5302950206724716,-0.14241070755639212,-0.39176869878563
1111,14.768477855837563,-0.5407897530729747,-0.14832690396044462,-0.36522493896178737
1112,14.781770815203757,-0.5465488807775254,-0.15295717292613037,-0.33987724334873015
1113,14.795063774569943,-0.547499747233884,-0.1561460726911444,-0.317038932707624
1114,14.808356733936137,-0.5439631441313676,-0.15784485726205097,-0.29775251512953677
1115,14.821649693302328,-0.5366025652833017,-0.1581256969128062,-0.2826946908515974
1116,14.834942652668516,-0.5263242270586158,-0.15717478656277967,-0.27213869213403635
1117,14.848235612034708,-0.5141493312934617,-0.15526458942900492,-0.2659689640153437
1118,14.861528571400898,-0.5010834256383485,-0.15271034308837572,-0.2637388618640711
1119,14.874821530767088,-0.48800510048320744,-0.14981960830752153,-0.26476221866974453
1120,14.88811449013328,-0.47558926187997086,-0.14684543111561355,-0.26822917814832536
1121,14.90140744949947,-0.4642711733614355,-0.14395313040994223,-0.2733323816602785
1122,14.91470040886566,-0.4542488055216614,-0.14120766045445168,-0.2793829963581943
1123,14.92799336823185,-0.4455147849044772,-0.13858345531264413,-0.2858925194970066
1124,14.94128632759804,-0.4379064960556108,-0.1359929312072871,-0.29260098093317244
1125,14.954579286964233,-0.43116344981142624,-0.13332509750018112,-0.2994461441428697
1126,14.96787224633042,-0.4249834367659899,-0.13048349638543164,-0.30648696265754327
1127,14.981165205696612,-0.41907145405471596,-0.12741367032586967,-0.3138095598260646
1128,14.994458165062802,-0.413177037144741,-0.12411418264204577,-0.3214479766133139
1129,15.007751124428992,-0.407116871226521,-0.12063057096577677,-0.3293430479723203
1130,15.021044083795182,-0.4007813265797787,-0.11703673247924981,-0.33734599190277403
1131,15.034337043161374,-0.3941261660880555,-0.11341154120659272,-0.3452570873424272
1132,15.047630002527564,-0.3871535238547439,-0.10981902048979478,-0.3528808501670008
1133,15.060922961893754,-0.3798884685685403,-0.10629803821391329,-0.36007899909999685
1134,15.074215921259944,-0.37235841934305647,-0.10286314199045184,-0.36680827394825394
1135,15.087508880626135,-0.36458200463942175,-0.09951353967740242,-0.3731372205315775
1136,15.100801839992323,-0.3565713915449701,-0.09624431228452174,-0.37924110405601774
1137,15.114094799358517,-0.3483477980060483,-0.09305394095968661,-0.38537664031777147
1138,15.127387758724709,-0.33996486245473656,-0.08994495954028543,-0.3918399022830468
1139,15.140680718090897,-0.3315307135744091,-0.08691855629375407,-0.3989132370259217
1140,15.153973677457088,-0.3232189188712552,-0.08396729810504043,-0.4068100169936061
1141,15.167266636823278,-0.31526174189377215,-0.08107132111916356,-0.41562748413222234
1142,15.180559596189468,-0.30792521845776394,-0.07820186040831703,-0.4253162530971782
1143,15.193852555555658,-0.301472038628844,-0.07533260876748517,-0.43567096980412023
1144,15.20714551492185,-0.2961224493118806,-0.07245565295853579,-0.44634262020979254
1145,15.22043847428804,-0.2920236007875377,-0.0695962622307551,-0.45687093566111675
1146,15.23373143365423,-0.28923381438383516,-0.06682055992977932,-0.466735052698508
1147,15.24702439302042,-0.28772196838563774,-0.06423205374509078,-0.4754201538339975
1148,15.260317352386611,-0.28737679991667586,-0.061956285755001596,-0.4824951909643376
1149,15.2736103117528,-0.28801932395555296,-0.060116341454903174,-0.4876914553187418
1150,15.286903271118993,-0.28941441496784176,-0.05880465504305111,-0.4909657165500835
1151,15.300196230485184,-0.2912825638326782,-0.05805788549147589,-0.49252892378320284
1152,15.313489189851373,-0.2933161896170284,-0.05784137580801343,-0.49282569849904473
1153,15.326782149217562,-0.2952042865089936,-0.058047844868628656,-0.4924614870149431
1154,15.340075108583754,-0.2966653117090683,-0.05851178132499793,-0.4920895445668387
1155,15.353368067949944,-0.29748401174198874,-0.059037228639144984,-0.49228298215086347
1156,15.366661027316134,-0.29754602600940816,-0.05943336559541636,-0.49342309864971906
1157,15.379953986682324,-0.29686504175227174,-0.059550552090435006,-0.49563235730472155
1158,15.393246946048516,-0.29559928747447317,-0.05930977686894853,-0.49876967259217475
1159,15.406539905414704,-0.29405514764386276,-0.0587203242798191,-0.5024898142574634
1160,15.419832864780895,-0.2926750592542285,-0.057883073574752114,-0.5063512751394802
1161,15.433125824147089,-0.2920060342927977,-0.056979378245377015,-0.5099421908830523
1162,15.446418783513275,-0.29264649269520904,-0.05624766156144583,-0.5129864720867885
1163,15.459711742879469,-0.29517400337332844,-0.05595176063703978,-0.5153958615758726
1164,15.473004702245657,-0.30006415968822403,-0.05634659912081495,-0.5172489021146586
1165,15.486297661611848,-0.3076180597989216,-0.057647548433901234,-0.5187012385386143
1166,15.499590620978038,-0.31791868901562464,-0.060009228403052374,-0.5198557906933021
1167,15.512883580344228,-0.33083184052970427,-0.06351713549631281,-0.520637113065904
1168,15.52617653971042,-0.3460547081619121,-0.06819171439023604,-0.5207148752541597
1169,15.53946949907661,-0.3631982776881844,-0.07400048262063354,-0.5195056171088056
1170,15.5527624584428,-0.381874644285497,-0.08087120158380905,-0.5162554200036459
1171,15.566055417808991,-0.4017546774317857,-0.08869916562146388,-0.5101794096907365
1172,15.57934837717518,-0.4225695378749161,-0.09734472203380495,-0.5006175804215046
1173,15.592641336541371,-0.444050262858174,-0.10662211929505148,-0.4871658343983916
1174,15.60593429590756,-0.4658258247066074,-0.11628576838983426,-0.4697547544267974
1175,15.619227255273753,-0.4873213100771696,-0.12602292791381856,-0.4486692321842911
1176,15.632520214639944,-0.5077049236788549,-0.13546135093005646,-0.4245205000320716
1177,15.645813174006133,-0.5259212427787874,-0.14419648307383687,-0.39819115403476657
1178,15.659106133372324,-0.5408211405909624,-0.15183655171314764,-0.3707709749325696
1179,15.672399092738514,-0.5513646276562159,-0.1580573076933922,-0.3434901608755465
1180,15.685692052104704,-0.5568434817068417,-0.16265343626804513,-0.31764476696397187
1181,15.698985011470894,-0.5570573858795201,-0.16557252183812787,-0.2945047059461039
1182,15.712277970837086,-0.5523867333353033,-0.1669207797329608,-0.2752009005184747
1183,15.725570930203276,-0.5437351267606104,-0.16693698105186058,-0.26060150980623203
1184,15.738863889569464,-0.5323543387510697,-0.1659399639610338,-0.2511996734065648
1185,15.752156848935655,-0.5195995580949182,-0.16426276945639848,-0.24704001882087
1186,15.765449808301849,-0.5066810491169215,-0.16219002683563644,-0.24770616433667342
1187,15.778742767668035,-0.4944749907818794,-0.15991363821459606,-0.25237913200802675
1188,15.792035727034229,-0.483434341470162,-0.1575160073541759,-0.25996124944798016
1189,15.80532868640042,-0.4736088501050404,-0.15498228984735696,-0.26924549422161925
1190,15.818621645766608,-0.46475257458099184,-0.15223578993655731,-0.2790991931365138
1191,15.831914605132798,-0.456476675093676,-0.1491853523531506,-0.28862618311389177
1192,15.84520756449899,-0.4483996799556958,-0.14577122438038453,-0.2972751665703234
1193,15.85850052386518,-0.44025624607724034,-0.1419967092229663,-0.3048743267461416
1194,15.87179348323137,-0.43194359868025517,-0.13793698414245406,-0.3115903532227936
1195,15.885086442597562,-0.42350552428924765,-0.13372313523481624,-0.31782813305506363
1196,15.898379401963751,-0.41507110706888223,-0.12950719869610183,-0.3240993791193412
1197,15.91167236132994,-0.4067756425059304,-0.12542027756905,-0.3308908655578395
1198,15.924965320696131,-0.3986927641227122,-0.1215380480566963,-0.3385564802809475
1199,15.938258280062325,-0.39079997587561777,-0.11786495491721509,-0.34724648681479636
1200,15.951551239428513,-0.3829865974847038,-0.11434120369671164,-0.35687786646811964
1201,15.964844198794705,-0.37509778771005076,-0.11086837540642744,-0.36714485608749065
1202,15.978137158160894,-0.36699619141300927,-0.10734365741675844,-0.37756795512018226
1203,15.991430117527084,-0.35861825737732017,-0.10369141477092446,-0.38757838243635007
1204,16.004723076893274,-0.3500066069728904,-0.09988380136675985,-0.3966291130280689
1205,16.018016036259464,-0.34131040597491086,-0.09594710290754693,-0.40431348960113506
1206,16.031308995625654,-0.33275754814820235,-0.09195497244150777,-0.4104634259003096
1207,16.044601954991847,-0.32461083818822906,-0.08801229345572611,-0.4151983682684306
1208,16.057894914358037,-0.31712281986395696,-0.08423425175974114,-0.4189068215777551
1209,16.071187873724227,-0.31050090000801017,-0.08072522984813921,-0.42216157542334626
1210,16.084480833090417,-0.3048883927362072,-0.07756191139453446,-0.4255902971796124
1211,16.097773792456607,-0.3003608706294282,-0.07478423556281551,-0.4297365947257634
1212,16.111066751822797,-0.29693286224926246,-0.07239597886350879,-0.43494777147009395
1213,16.124359711188987,-0.2945684928094602,-0.07037375807418143,-0.4413144091288323
1214,16.13765267055518,-0.29319105500089615,-0.06868017235728902,-0.4486689200563676
1215,16.15094562992137,-0.2926896419919907,-0.06727522936934996,-0.45663323133246125
1216,16.16423858928756,-0.2929241284602707,-0.06612121990755018,-0.4646963528164292
1217,16.17753154865375,-0.29373130227504796,-0.06517959291433521,-0.4723025873619568
1218,16.19082450801994,-0.29493416066721134,-0.06440260719149501,-0.47893713125108306
1219,16.20411746738613,-0.2963540065898139,-0.06372553168023157,-0.4842018533966308
1220,16.21741042675232,-0.29782273942114607,-0.06306537871546934,-0.4878759295579517
1221,16.230703386118513,-0.29919232702197185,-0.062329362738373785,-0.4899538796836229
1222,16.243996345484703,-0.3003403743864742,-0.06143178685894115,-0.49065122618467827
1223,16.257289304850893,-0.30117380227990825,-0.060314092040621464,-0.49036993898088116
1224,16.270582264217083,-0.3016348247169854,-0.05896131360005343,-0.4896240750328733
1225,16.283875223583273,-0.3017130795624366,-0.05740979792634554,-0.488938552822785
1226,16.297168182949463,-0.30146478872635873,-0.055744736512982444,-0.48874543939629883
1227,16.310461142315653,-0.3010353903250156,-0.05408988872102817,-0.489306278619899
1228,16.323754101681846,-0.30067796443720823,-0.05259395689707225,-0.4906822990221115
1229,16.337047061048036,-0.3007577125944812,-0.05141773628464052,-0.49275832953162224
1230,16.350340020414226,-0.30173408660685785,-0.05072405943809933,-0.49530725328223496
1231,16.363632979780416,-0.30411729912923635,-0.05067017410909319,-0.4980678702422449
1232,16.376925939146606,-0.3084037328669326,-0.05140084029848018,-0.5008057771530275
1233,16.390218898512796,-0.3150024512050742,-0.05304053219976449,-0.5033351512480488
1234,16.40351185787899,-0.3241693347118898,-0.05568422921677909,-0.5054954562246291
1235,16.41680481724518,-0.3359642183522552,-0.05938755075194163,-0.5070949324872991
1236,16.43009777661137,-0.3502399338789027,-0.0641577711062523,-0.507846015340086
1237,16.44339073597756,-0.36666263285278616,-0.06994730811739162,-0.5073220948989782
1238,16.45668369534375,-0.38475355131763633,-0.07665077596248963,-0.5049591839483545
1239,16.46997665470994,-0.4039368488791745,-0.08410601069261649,-0.500112767948575
1240,16.48326961407613,-0.42357868836227563,-0.09209900706328628,-0.49216435179732926
1241,16.496562573442322,-0.44300967425967475,-0.10037267094761262,-0.4806585259518039
1242,16.509855532808512,-0.4615337032280083,-0.10863962202025183,-0.46544202622081604
1243,16.523148492174702,-0.4784363198646129,-0.11659957949835681,-0.4467718594183444
1244,16.53644145154089,-0.4930095033949532,-0.1239615724327101,-0.4253609471507938
1245,16.54973441090708,-0.5046045633295083,-0.13046998632165613,-0.4023386590501425
1246,16.56302737027327,-0.5127119790834646,-0.13593151015908844,-0.37912101417258603
1247,16.57632032963946,-0.5170519731056827,-0.14023821411727358,-0.3572087324742274
1248,16.589613289005655,-0.5176490615193652,-0.14338130019487513,-0.3379539766088213
1249,16.602906248371845,-0.5148626878106034,-0.1454511324677671,-0.3223498583915423
1250,16.616199207738035,-0.5093555049486679,-0.14662176798408427,-0.3108941337266143
1251,16.629492167104225,-0.5019981746413252,-0.14712150874462135,-0.3035592167690747
1252,16.642785126470415,-0.4937289587979328,-0.14719397452296198,-0.2998705851611017
1253,16.656078085836604,-0.48540091283590864,-0.14705620070463798,-0.29906526428034674
1254,16.669371045202794,-0.47765348427781323,-0.1468611357765504,-0.30028216168919347
1255,16.682664004568988,-0.47083714961878986,-0.146671754933758,-0.3027331679962717
1256,16.695956963935178,-0.4650030557103017,-0.14645280971141666,-0.30581774382446963
1257,16.709249923301368,-0.4599517077609036,-0.1460837131012992,-0.30916713200463014
1258,16.722542882667558,-0.45532229117043893,-0.14539195814315775,-0.31262716759755776
1259,16.735835842033747,-0.4506997675146103,-0.1442011653194279,-0.31620247805897034
1260,16.749128801399937,-0.4457183051032752,-0.14238275186994248,-0.31998681082444225
1261,16.762421760766127,-0.4401430015376623,-0.1398974288348669,-0.3240975574939895
1262,16.77571472013232,-0.43391524768567824,-0.13681408884863105,-0.3286237205155552
1263,16.78900767949851,-0.42715161408582586,-0.13329953439301925,-0.3335908166766841
1264,16.8023006388647,-0.42009415135164613,-0.1295812719878268,-0.33894465161387416
1265,16.81559359823089,-0.4130219955086149,-0.12589409035917853,-0.3445560420790548
1266,16.82888655759708,-0.4061472774497973,-0.12242607016129485,-0.35024721973150297
1267,16.84217951696327,-0.3995271858037688,-0.11927922157409308,-0.35583652499037205
1268,16.855472476329464,-0.39302343450552196,-0.11645456307326725,-0.3611921779039895
1269,16.868765435695654,-0.3863282656275729,-0.11386349580239141,-0.3662807868619068
1270,16.882058395061843,-0.3790552151890483,-0.11135983238573435,-0.37119438063472454
1271,16.895351354428033,-0.37087022299515704,-0.10878215221761492,-0.37614311606615264
1272,16.908644313794223,-0.3616229241816348,-0.10599510506753203,-0.3814099286362314
1273,16.921937273160413,-0.35143565423579914,-0.10292026062819756,-0.38727610026362436
1274,16.935230232526603,-0.3407202133134538,-0.09955081400060585,-0.39393807895836874
1275,16.948523191892797,-0.3301151751936645,-0.09594872245876668,-0.40144034474401047
1276,16.961816151258986,-0.3203609137994801,-0.09222686763237788,-0.4096440605102306
1277,16.975109110625176,-0.3121469420845365,-0.08852201485299516,-0.41823906482282525
1278,16.988402069991366,-0.3059716897231005,-0.08496609592092512,-0.4267933970607036
1279,17.001695029357556,-0.30204860842734504,-0.08166318111223747,-0.43482562236866384
1280,17.014987988723746,-0.30027823019251004,-0.07867729423832746,-0.4418829733466854
1281,17.028280948089936,-0.30028832113819703,-0.07603243990323326,-0.44761131552904077
1282,17.04157390745613,-0.30152778001735947,-0.07372205210196175,-0.451808021056252
1283,17.05486686682232,-0.3033877982662704,-0.07172218362164738,-0.454453306129674
1284,17.06815982618851,-0.3053187130945859,-0.07000244858770105,-0.4557183272104232
1285,17.0814527855547,-0.3069144439116208,-0.06853106994088717,-0.4559496821311584
1286,17.09474574492089,-0.3079477308986899,-0.06727397207320136,-0.4556309677612165
1287,17.10803870428708,-0.30835529330872125,-0.06619072880929106,-0.4553236178101369
1288,17.12133166365327,-0.30818735238791545,-0.06523111019120648,-0.45559170201110816
1289,17.134624623019462,-0.3075455397153122,-0.06433510686547239,-0.45691851478557094
1290,17.147917582385652,-0.30653380927468765,-0.06343765112893801,-0.45962628631715696
1291,17.161210541751842,-0.305238661397982,-0.06247773104320592,-0.46381375942588865
1292,17.174503501118032,-0.3037412975970066,-0.061410553675069056,-0.4693284066656457
1293,17.187796460484222,-0.30215096849471984,-0.060220744262208865,-0.4757880318441478
1294,17.201089419850412,-0.3006411616185997,-0.05893410046440622,-0.4826574307730962
1295,17.2143823792166,-0.299470908855442,-0.057625172767183534,-0.489369306997148
1296,17.227675338582795,-0.2989809146314081,-0.056418113378433894,-0.4954594694012117
1297,17.240968297948985,-0.2995642756661396,-0.05547906812635809,-0.5006735077842148
1298,17.254261257315175,-0.3016200566398198,-0.054999979228740135,-0.5050043864451281
1299,17.267554216681365,-0.3055024782813466,-0.05517580197829393,-0.5086404789087206
1300,17.280847176047555,-0.31147852081944355,-0.05617921215357606,-0.5118354581849183
1301,17.294140135413745,-0.3197030638510051,-0.058138080662859914,-0.514742404407072
1302,17.307433094779938,-0.33021451699194604,-0.06112067227175078,-0.5172708731904441
1303,17.320726054146128,-0.34294692499841634,-0.06513156297268737,-0.5190195309144705
1304,17.334019013512318,-0.35774888542913297,-0.07011817656655793,-0.5193101171227335
1305,17.347311972878508,-0.37439747231480314,-0.07598460084876116,-0.517312159262577
1306,17.360604932244698,-0.3925980473265513,-0.08260711150876773,-0.5122176244882989
1307,17.373897891610888,-0.411967906974064,-0.0898455712347975,-0.5034128148833938
1308,17.387190850977078,-0.43201065524259863,-0.09754695275668838,-0.4906040512838959
1309,17.40048381034327,-0.45209532565727056,-0.10554108770075041,-0.47387649675624444
1310,17.41377676970946,-0.4714564640121396,-0.11363285502825156,-0.4536891804225894
1311,17.42706972907565,-0.4892275378103719,-0.12159749246451,-0.4308236743865032
1312,17.44036268844184,-0.5045114412218565,-0.12918518641299792,-0.4063060474141589
1313,17.45365564780803,-0.5164811978040014,-0.13613755629145757,-0.381315721358287
1314,17.46694860717422,-0.5244940761504561,-0.1422135922860373,-0.35708750174798903
1315,17.48024156654041,-0.5281957254673123,-0.14721839058488512,-0.33480941229203826
1316,17.493534525906604,-0.5275897794363268,-0.15102666512641436,-0.31552025296799596
1317,17.506827485272794,-0.5230540276039303,-0.1535950200977076,-0.3000150379784525
1318,17.520120444638984,-0.5152960240054139,-0.15496108988710866,-0.2887704910782904
1319,17.533413404005174,-0.5052554419901212,-0.15523169485501173,-0.2819040076403233
1320,17.546706363371364,-0.4939725893863181,-0.15456433514856446,-0.27917666723959134
1321,17.559999322737553,-0.48244838240073934,-0.1531461986339266,-0.28004400407383184
1322,17.573292282103743,-0.47151995298213295,-0.15117326573492204,-0.2837485422474369
1323,17.586585241469937,-0.46176998759301163,-0.14883052584929207,-0.289438126358289
1324,17.599878200836127,-0.453479864410152,-0.14627392339294076,-0.2962873146174335
1325,17.613171160202317,-0.4466289061223302,-0.14361556565778857,-0.30359856997279133
1326,17.626464119568507,-0.4409356121388324,-0.14091499194733265,-0.31086635964860715
1327,17.639757078934696,-0.43593182909022404,-0.13817951465620154,-0.31779808806253895
1328,17.653050038300886,-0.43105751440231527,-0.1353749745686351,-0.32429666682905106
1329,17.666342997667076,-0.42576216312057186,-0.13244515157231396,-0.33041665648723684
1330,17.67963595703327,-0.41959920659733574,-0.1293350455290614,-0.33630789978571407
1331,17.69292891639946,-0.4123015155470349,-0.12601189713896394,-0.34215852418050174
1332,17.70622187576565,-0.4038287937999032,-0.12247884370601647,-0.34814545122895224
1333,17.71951483513184,-0.39438032119867805,-0.11877888816361122,-0.3543970525409453
1334,17.73280779449803,-0.38436921459494744,-0.11498995033282534,-0.36097004293140655
1335,17.74610075386422,-0.3743582334713563,-0.11121378794446794,-0.36784092435360566
1336,17.759393713230413,-0.3649633349926579,-0.1075619389892559,-0.37491112874628385
1337,17.772686672596603,-0.3567393989450262,-0.10414091702629331,-0.3820245492415163
1338,17.785979631962793,-0.350070425125303,-0.10103765877012137,-0.3889960542421289
1339,17.799272591328982,-0.34509038135430414,-0.09830567896057583,-0.395648653922881
1340,17.812565550695172,-0.3416574761994899,-0.09595302699054549,-0.40185415888679876
1341,17.825858510061362,-0.3393929174389329,-0.09393463909621745,-0.4075680898217645
1342,17.839151469427552,-0.33777762076867324,-0.09215295045145731,-0.4128469698544994
1343,17.852444428793746,-0.3362824982089263,-0.09047033328972219,-0.4178380105176904
1344,17.865737388159936,-0.33449670144231713,-0.08873430392488457,-0.42273866485412603
1345,17.879030347526125,-0.3322183915830279,-0.08681201216774596,-0.42773457975773815
1346,17.892323306892315,-0.3294846317340202,-0.08462606640858265,-0.43293468761001963
1347,17.905616266258505,-0.3265363129861811,-0.08218141004629835,-0.4383263722131807
1348,17.918909225624695,-0.3237332264437755,-0.0795740910243261,-0.4437684182525125
1349,17.932202184990885,-0.3214467104472334,-0.07697720758811992,-0.4490256448661513
1350,17.94549514435708,-0.31995962185509447,-0.07460563052553087,-0.4538325263060321
1351,17.95878810372327,-0.31939710783361586,-0.07266730601490509,-0.4579618958812263
1352,17.97208106308946,-0.319701011711066,-0.07131322293724246,-0.4612747912079566
1353,17.985374022455648,-0.32064990125389786,-0.0705992818175193,-0.4637383082614376
1354,17.998666981821838,-0.3219177994975617,-0.0704709038598963,-0.4654136662055945
1355,18.011959941188028,-0.32315784723166147,-0.07077567343767671,-0.46642807983809376
1356,18.025252900554214,-0.3240919551996079,-0.07130186300863019,-0.4669460006991382
1357,18.03854585992041,-0.324584743062152,-0.07183328994491696,-0.4671484233624389
1358,18.0518388192866,-0.3246817837106858,-0.07220578739062285,-0.46721908932621625
1359,18.06513177865279,-0.3246001755447555,-0.07234938631880547,-0.4673304300358835
1360,18.07842473801898,-0.3246729851254869,-0.07230381419795179,-0.46762340652186013
1361,18.09171769738517,-0.3252639429143199,-0.0722024605423409,-0.46818234605709524
1362,18.10501065675136,-0.32667897026662374,-0.07222949567576424,-0.4690134495889595
1363,18.11830361611755,-0.3291020658474194,-0.07256332406140466,-0.47003879379310753
1364,18.131596575483744,-0.3325740355254971,-0.0733239753670007,-0.4711137346828327
1365,18.14488953484993,-0.33701705385537406,-0.07454068257697026,-0.4720655490464664
1366,18.158182494216124,-0.34229229235827335,-0.076149286172142,-0.47273948471813515
1367,18.171475453582318,-0.348267894232379,-0.07801973001878343,-0.4730317786544688
1368,18.184768412948504,-0.35487371954889935,-0.08000498799790028,-0.4728927410709682
1369,18.19806137231469,-0.36212684095404174,-0.08199683241952388,-0.47229638448334127
1370,18.211354331680887,-0.3701236363348281,-0.08397213500306297,-0.47118982903777873
1371,18.22464729104708,-0.3790050124558122,-0.08601584823774747,-0.4694468311002104
1372,18.237940250413267,-0.38890657924126615,-0.08831262574837073,-0.46684922558903835
1373,18.251233209779457,-0.3999046764445991,-0.09110691547619616,-0.46310823129800605
1374,18.264526169145647,-0.4119649851688178,-0.09463962656527207,-0.45792059828286624
1375,18.27781912851184,-0.42489765364816684,-0.09907615539644839,-0.4510406645866375
1376,18.291112087878027,-0.4383243428825387,-0.10444377076001143,-0.44234454799846396
1377,18.30440504724422,-0.4516672791686501,-0.11059497140765667,-0.43186821314819057
1378,18.31769800661041,-0.4641737262440304,-0.11720760858058878,-0.419813433133552
1379,18.3309909659766,-0.47498620311913775,-0.12382380855701287,-0.40652820817560964
1380,18.34428392534279,-0.4832573214988628,-0.1299203693371701,-0.3924748651345948
1381,18.35757688470898,-0.4882914481706619,-0.13499577824450038,-0.37819723032542485
1382,18.37086984407517,-0.48968076509310265,-0.13865515994464866,-0.3642902958138424
1383,18.38416280344136,-0.4873983185226545,-0.14067512871385449,-0.3513676171606841
1384,18.397455762807557,-0.48181896211857783,-0.14103531074506892,-0.3400191439427257
1385,18.410748722173743,-0.4736582734128292,-0.13991088486425715,-0.33075730511048274
1386,18.424041681539933,-0.46384247466615236,-0.1376290405337072,-0.32395873673777514
1387,18.437334640906123,-0.4533410772579128,-0.1345999546734463,-0.3198166812597634
1388,18.450627600272316,-0.44300278985885694,-0.1312382315558178,-0.3183194978674028
1389,18.463920559638503,-0.43343246992643664,-0.1278926019008375,-0.3192631312464752
1390,18.47721351900469,-0.4249343631867909,-0.12479935027903938,-0.3222938771798952
1391,18.49050647837089,-0.4175286774105619,-0.12206849583329574,-0.3269684362278743
1392,18.50379943773708,-0.41102970355858803,-0.11970250205368012,-0.3328153182316988
1393,18.517092397103266,-0.40515893704177264,-0.11763793979489393,-0.339385394817898
1394,18.530385356469456,-0.39965948618322045,-0.11579436601300579,-0.3462864814092382
1395,18.54367831583565,-0.39438029455754925,-0.11411403147212387,-0.353202819629336
1396,18.556971275201835,-0.3893099075803038,-0.11258097293052774,-0.3599024881357152
1397,18.57026423456803,-0.38455645492347007,-0.11121638141025585,-0.3662346300726512
1398,18.58355719393422,-0.3802875321293797,-0.11005557111512716,-0.3721169429078133
1399,18.59685015330041,-0.3766546545851954,-0.10911752086371528,-0.3775148530072505
1400,18.6101431126666,-0.37372835974382473,-0.10837933783579395,-0.3824171785865031
1401,18.62343607203279,-0.3714626068070214,-0.10776519411695178,-0.3868161113198443
1402,18.63672903139898,-0.36969513178146246,-0.10715360718758102,-0.3906989439303953
1403,18.65002199076517,-0.36817894521957323,-0.10640035799321067,-0.3940543859221358
1404,18.66331495013136,-0.36663267603640365,-0.10536903403455217,-0.3968897759191372
1405,18.67660790949755,-0.3647950118131135,-0.10395894615947249,-0.3992506684824214
1406,18.68990086886374,-0.3624702758676382,-0.10212176035459604,-0.4012338057426232
1407,18.70319382822993,-0.3595565868943237,-0.09986288335492964,-0.40298839433901334
1408,18.71648678759612,-0.35605339363871596,-0.09722942385241261,-0.4047062799219666
1409,18.72977974696231,-0.3520502047797639,-0.09429104538425695,-0.40660552525928356
1410,18.7430727063285,-0.34770225824506246,-0.09112163886952315,-0.40891206811706793
1411,18.75636566569469,-0.3432010967289129,-0.08778824452255377,-0.41184142139384217
1412,18.769658625060885,-0.33874793985737717,-0.08434997724052445,-0.4155794634916361
1413,18.782951584427074,-0.3345351366698901,-0.08086535252195978,-0.42026039457292746
1414,18.796244543793264,-0.3307366198305175,-0.07740291568586556,-0.42594120641534794
1415,18.80953750315945,-0.32750403058165556,-0.07404867282916854,-0.43257472807988445
1416,18.822830462525644,-0.32496312030814256,-0.07090505033588072,-0.43998673249669323
1417,18.836123421891838,-0.3232061660588879,-0.06807953490449038,-0.4478658638464866
1418,18.849416381258028,-0.322279712363962,-0.06566543964712808,-0.4557763769737921
1419,18.862709340624217,-0.3221709527838567,-0.06372074741229418,-0.46320043038000525
1420,18.876002299990407,-0.3227984511562691,-0.06225241817533074,-0.4696082784022656
1421,18.8892952593566,-0.3240126297530192,-0.06121241230603027,-0.4745440783331298
1422,18.902588218722787,-0.3256087491800206,-0.06050828342478833,-0.4777075498903346
1423,18.915881178088977,-0.3273512360318861,-0.060026517010153185,-0.47901166041359167
1424,18.929174137455167,-0.32900494130790936,-0.059662322963160964,-0.4786038596286694
1425,18.94246709682136,-0.3303676007474871,-0.05934699145541941,-0.4768488751147634
1426,18.95576005618755,-0.3312984767175886,-0.05906441371387999,-0.4742793165172951
