,time,Red,Green,Blue
0,0.0,-14.178152428744772,-0.048709307854715826,-0.9917477316649184
1,0.0132989018776948,-14.038359942090288,-0.05222469483177371,-1.02401345416457
2,0.0265978037553896,-13.928078035169422,-0.055568563823921946,-1.057231198450785
3,0.0398967056330844,-13.878224269576325,-0.05861323747585131,-1.0928188657590656
4,0.0531956075107792,-13.914595885179233,-0.06127181028262526,-1.1322393721652162
5,0.066494509388474,-14.056190132971114,-0.06351695296925775,-1.17688900004341
6,0.0797934112661688,-14.313957633503655,-0.06539177391329845,-1.2278654349642992
7,0.0930923131438636,-14.689684838049914,-0.06700517381914281,-1.285633625865941
8,0.1063912150215584,-15.174896808790752,-0.06850732261012775,-1.3496639994330746
9,0.1196901168992532,-15.7501023451957,-0.07004820356270784,-1.4181665150690745
10,0.132989018776948,-16.385106526300927,-0.07173047634107686,-1.4880559760574994
11,0.1462879206546428,-17.04117158876698,-0.07357269139825692,-1.5552373978681517
12,0.1595868225323377,-17.675365366779186,-0.07549698164245833,-1.615201881978319
13,0.1728857244100325,-18.246647079587497,-0.0773470808136209,-1.6638118889063704
14,0.1861846262877273,-18.72247999968385,-0.07893157410600354,-1.6980803289955677
15,0.1994835281654221,-19.08440639792095,-0.08007854654362775,-1.7167431922579188
16,0.2127824300431169,-19.33122950741799,-0.0806846226304201,-1.720488360258433
17,0.2260813319208117,-19.479086871033008,-0.08074424169429127,-1.711801642943926
18,0.2393802337985065,-19.558450785141797,-0.08035184284013319,-1.6944833553712544
19,0.2526791356762013,-19.608648739914084,-0.07967742638721785,-1.672945485847608
20,0.2659780375538961,-19.67073029265598,-0.07892224643109236,-1.6514145342640865
21,0.279276939431591,-19.779502508548713,-0.07826499397268248,-1.6331522361345774
22,0.2925758413092857,-19.95552409151289,-0.07780978284509037,-1.6197866889337804
23,0.3058747431869806,-20.19797182898492,-0.07754629872081649,-1.610835073317743
24,0.3191736450646754,-20.479602813299685,-0.07733053116243496,-1.6034989533676605
25,0.3324725469423702,-20.74536297755383,-0.07689214624792276,-1.592814411636106
26,0.345771448820065,-20.916214997841806,-0.07587160215609798,-1.5722238290874273
27,0.3590703506977598,-20.89914411654291,-0.0738857433096693,-1.5345843255213611
28,0.3723692525754546,-20.602913588357893,-0.0706141689398875,-1.473530626517932
29,0.3856681544531494,-19.957227129559154,-0.06589081889122154,-1.3849823111309636
30,0.3989670563308442,-18.931163839012363,-0.05977855297731556,-1.2684706374684833
31,0.412265958208539,-17.54591936793549,-0.05260287214556751,-1.1279176410047296
32,0.4255648600862338,-15.87764334231154,-0.044927475787937994,-0.9715758537238404
33,0.4388637619639287,-14.048545702831541,-0.03746917340655077,-0.8110332997237073
34,0.4521626638416234,-12.20776867960343,-0.030968630060050333,-0.6594516154286251
35,0.4654615657193183,-10.506601329626402,-0.026049244831222583,-0.5294409261458177
36,0.4787604675970131,-9.074267959404866,-0.023102106121087835,-0.4310893916185373
37,0.4920593694747079,-8.000109552418191,-0.022227491698540717,-0.3706101796583774
38,0.5053582713524027,-7.325700639003238,-0.02324562201205061,-0.34986662890318476
39,0.5186571732300975,-7.047261915240518,-0.025768281009090958,-0.3667676775138502
40,0.5319560751077923,-7.125876775104153,-0.029306008419288456,-0.41628821917277653
41,0.5452549769854872,-7.501395367784679,-0.03337804396539222,-0.4917391286338705
42,0.558553878863182,-8.105794752186258,-0.03759563888214596,-0.5859207419927538
43,0.5718527807408768,-8.872945854134093,-0.04170158572572885,-0.6919217318373984
44,0.5851516826185715,-9.743661548840818,-0.04556494891818876,-0.8035104169951327
45,0.5984505844962664,-10.666793219228877,-0.04914415201899835,-0.915227804712353
46,0.6117494863739612,-11.598299426636736,-0.05243903758867834,-1.0223677701372058
47,0.625048388251656,-12.500307291008717,-0.05545138188864095,-1.121001842987175
48,0.6383472901293508,-13.341399644016652,-0.05816535397828983,-1.2081078716825164
49,0.6516461920070457,-14.098215198031635,-0.06054893233521523,-1.2817561108985944
50,0.6649450938847404,-14.757524219265985,-0.0625690414317819,-1.3412477708477586
51,0.6782439957624352,-15.317597660634007,-0.06420992832884971,-1.3871097521592763
52,0.69154289764013,-15.787950178209906,-0.06548601615899959,-1.4209076657456663
53,0.7048417995178249,-16.187169958303347,-0.06644499280404352,-1.4449095387808943
54,0.7181407013955197,-16.539220062720215,-0.06716153117264943,-1.461680024744853
55,0.7314396032732144,-16.869045177325788,-0.06772492459188129,-1.4736937811452302
56,0.7447385051509092,-17.198434548072612,-0.06822455390998337,-1.483033093613053
57,0.7580374070286041,-17.542914538289352,-0.06873612136959102,-1.4911978685705511
58,0.7713363089062989,-17.910102053744243,-0.06931015004678971,-1.4990250847501057
59,0.7846352107839937,-18.299594760268665,-0.06996336841567109,-1.50670033647264
60,0.7979341126616885,-18.704217113236876,-0.07067365890434214,-1.5138456101158548
61,0.8112330145393833,-19.112310307123536,-0.07137986027844474,-1.5196752643587998
62,0.8245319164170781,-19.5106892975229,-0.07198800017852017,-1.523213187929355
63,0.8378308182947729,-19.88779650658104,-0.072384718664861,-1.5235493850457078
64,0.8511297201724677,-20.236417723229263,-0.0724566195283746,-1.5200860485589995
65,0.8644286220501626,-20.555158869659895,-0.07211178784480354,-1.5126961377404675
66,0.8777275239278574,-20.84786591271413,-0.07129791663024906,-1.501711595551382
67,0.8910264258055521,-21.12045151281372,-0.07001129926768487,-1.4876876509021346
68,0.9043253276832468,-21.375221817443066,-0.06829254901970126,-1.4709539134679173
69,0.9176242295609418,-21.603689211010014,-0.0662079478391186,-1.45104696181042
70,0.9309231314386366,-21.779791749955955,-0.0638194350154447,-1.426197469444174
71,0.9442220333163314,-21.856085962350907,-0.06115107686344944,-1.3930879644526155
72,0.957520935194026,-21.765456473423754,-0.0581643404187212,-1.3470775952376635
73,0.970819837071721,-21.429908053823148,-0.05475619549039147,-1.2829923655480764
74,0.9841187389494158,-20.776084482664157,-0.05079001103910339,-1.1964127724446607
75,0.9974176408271106,-19.754743867977734,-0.0461582405041368,-1.085198184895445
76,1.0107165427048057,-18.359344235628477,-0.040860918059545934,-0.9508372769585454
77,1.0240154445825005,-16.638080993089265,-0.035071851922071844,-0.79917681694187
78,1.037314346460195,-14.694768243134419,-0.029162553814689934,-0.6401967123925526
79,1.0506132483378898,-12.676793438463662,-0.023665656131708082,-0.4867510069272632
80,1.0639121502155846,-10.752162982176337,-0.019181020556936105,-0.3525068479806478
81,1.0772110520932794,-9.081066837267784,-0.016249550285243233,-0.2495760223500708
82,1.0905099539709744,-7.789147681989147,-0.015232183216704097,-0.18644638690143225
83,1.1038088558486692,-6.949104018304458,-0.016229882977968516,-0.16673730757746705
84,1.117107757726364,-6.574621484905182,-0.01906649947276137,-0.18905191761281537
85,1.1304066596040587,-6.6269063580908645,-0.023336455625385225,-0.24786871002344898
86,1.1437055614817535,-7.030601233370892,-0.028500533404575295,-0.33512047233341946
87,1.1570044633594485,-7.693715108554471,-0.034001045423445654,-0.4419487832005512
88,1.170303365237143,-8.525950154357028,-0.039365079320772274,-0.5601452721807553
89,1.1836022671148378,-9.451297116315452,-0.044271126912900166,-0.6829749405089584
90,1.1969011689925328,-10.413258299235721,-0.04856757268861202,-0.8053384389744721
91,1.2102000708702276,-11.373559335389304,-0.052246759016435856,-0.9234606237150846
92,1.2234989727479224,-12.306913169404597,-0.05539073587811005,-1.034408241141075
93,1.2367978746256172,-13.194925001783997,-0.05811055667776133,-1.1357164061018221
94,1.250096776503312,-14.021669593574021,-0.060498825575604875,-1.225278803427852
95,1.2633956783810067,-14.772244868130675,-0.06260682949319632,-1.3015003359217308
96,1.2766945802587015,-15.434229880034163,-0.06444687557838051,-1.363589983805049
97,1.2899934821363963,-16.00090657384537,-0.0660117021107258,-1.4118241481547429
98,1.3032923840140913,-16.474614379855975,-0.06729888491343676,-1.4476390569228452
99,1.316591285891786,-16.868726487809354,-0.06832941279809403,-1.4734883503057683
100,1.3298901877694809,-17.20728673278505,-0.06915428692346794,-1.4924884636776607
101,1.3431890896471756,-17.522042875808847,-0.06984840181965504,-1.5079335958712252
102,1.3564879915248704,-17.847208991187017,-0.0704948055880666,-1.522776007886699
103,1.3697868934025652,-18.21267785851654,-0.07116377651598617,-1.5391428363907371
104,1.38308579528026,-18.63662546780478,-0.07189060613638522,-1.5579239484711063
105,1.3963846971579548,-19.11862078394722,-0.07265511663864231,-1.578447656788867
106,1.4096835990356498,-19.634547822692078,-0.0733661489164164,-1.5982785668105655
107,1.4229825009133446,-20.134801865076255,-0.07385567840762812,-1.6132131157888372
108,1.436281402791039,-20.54713940878227,-0.0738885023407547,-1.6175787722320056
109,1.449580304668734,-20.785012918389018,-0.07319256201668893,-1.6049246399914023
110,1.462879206546429,-20.761105551082693,-0.0715105748847279,-1.5691072736358187
111,1.4761781084241237,-20.40425345015999,-0.06866619852857235,-1.505641869184368
112,1.4894770103018184,-19.67644041665153,-0.06462986286498547,-1.4130505909965465
113,1.5027759121795132,-18.58567812346255,-0.05956431501791028,-1.2938544740323015
114,1.5160748140572082,-17.190888332362455,-0.05383117288540506,-1.1548726835446597
115,1.529373715934903,-15.596577113624619,-0.04794874045419979,-1.0066324233999893
116,1.5426726178125978,-13.93777682392853,-0.04250608537832056,-0.86192736911543
117,1.5559715196902926,-12.358552564281927,-0.03805376044652366,-0.7338181073965362
118,1.5692704215679874,-10.98926242208291,-0.03500108731250052,-0.6335480287124926
119,1.582569323445682,-9.927967823228819,-0.03354895545721919,-0.5688762376358113
120,1.595868225323377,-9.229840037188485,-0.033675360595608175,-0.5431891606232873
121,1.609167127201072,-8.905757817357788,-0.035172962752224216,-0.5555006466438338
122,1.6224660290787667,-8.928609247850035,-0.037721125160594914,-0.6011901257448741
123,1.6357649309564617,-9.244082861225595,-0.04096593848363056,-0.6731613033524418
124,1.6490638328341565,-9.782431978243514,-0.04458366988667013,-0.7630800866968638
125,1.662362734711851,-10.468634069401128,-0.04831394657943232,-0.8624480036303668
126,1.6756616365895458,-11.229876911588454,-0.05196307932061721,-0.9634124242878872
127,1.6889605384672406,-12.000625031284082,-0.05538885280314367,-1.0593292124116627
128,1.7022594403449354,-12.72615984614054,-0.05848188955811837,-1.145136894497044
129,1.7155583422226304,-13.36537625930086,-0.06115526016097755,-1.21758331928016
130,1.7288572441003252,-13.893041445209265,-0.0633464412793404,-1.2753048272122947
131,1.74215614597802,-14.301109686105114,-0.06502813137495131,-1.3187323187180298
132,1.7554550478557147,-14.598401484462727,-0.06621995373988694,-1.3498064714839808
133,1.7687539497334095,-14.80814169387751,-0.06699287260140115,-1.3715210217899427
134,1.7820528516111045,-14.96340855339309,-0.06746152296115124,-1.387358995720133
135,1.795351753488799,-15.101202696860843,-0.06776475286092055,-1.4007195229069427
136,1.8086506553664936,-15.256305571325095,-0.06803933332871977,-1.414437363561786
137,1.8219495572441888,-15.456171631592833,-0.06839430243627279,-1.4304715899952976
138,1.835248459121884,-15.717775700354034,-0.06889307201467496,-1.449794110528516
139,1.8485473609995784,-16.046763424954786,-0.06954767534774897,-1.4724593978818667
140,1.8618462628772727,-16.43865505647811,-0.0703256169550241,-1.4977998684396736
141,1.875145164754968,-16.881430382755667,-0.0711661283436821,-1.524676484258263
142,1.8884440666326627,-17.358669119346718,-0.07200028791082248,-1.5517213746997198
143,1.9017429685103573,-17.852510530654996,-0.0727688972604688,-1.577530530217591
144,1.9150418703880523,-18.345933633221723,-0.073433207290512,-1.6007896116438516
145,1.9283407722657475,-18.82414632965328,-0.07397618928182378,-1.6203377558205272
146,1.941639674143442,-19.275134799796543,-0.0743953030994015,-1.6351898693657834
147,1.9549385760211369,-19.689607818145372,-0.07469050495418605,-1.6445446046116174
148,1.968237477898832,-20.060634390933032,-0.0748524292641824,-1.6477999863095953
149,1.9815363797765264,-20.38321669217335,-0.0748548180147957,-1.6445826451602124
150,1.9948352816542207,-20.6539194559028,-0.0746530172225445,-1.6347786442980856
151,2.008134183531916,-20.87057358356961,-0.0741881331422408,-1.6185458449778725
152,2.021433085409611,-21.032034029200616,-0.07339541504239304,-1.5962945220051867
153,2.034731987287305,-21.137988139148504,-0.07221568115517467,-1.568637964266517
154,2.0480308891650005,-21.188842461749815,-0.070609115818762,-1.5363270364208501
155,2.061329791042695,-21.185746806933754,-0.06857033715531526,-1.5001870084184863
156,2.07462869292039,-21.130848086559904,-0.06614199331788266,-1.4610742242083372
157,2.087927594798085,-21.02788595061985,-0.06342239806017028,-1.4198677802041288
158,2.10122649667578,-20.88319076236027,-0.06056267580404428,-1.3775048756900414
159,2.1145253985534747,-20.70696935266108,-0.0577516380324388,-1.3350526081546956
160,2.127824300431169,-20.514480808315813,-0.05519132999983284,-1.2937841804448145
161,2.141123202308864,-20.326414623380593,-0.05307018625756166,-1.2552035454844734
162,2.1544221041865588,-20.167631781191037,-0.05154104277437611,-1.2209530629708398
163,2.1677210060642538,-20.063547133291305,-0.05070688438400846,-1.192553136285947
164,2.1810199079419488,-20.03389960302503,-0.05061053921330418,-1.1709630253665262
165,2.194318809819644,-20.084473705357908,-0.051220429954940715,-1.1560140088717847
166,2.2076177116973383,-20.198369532245003,-0.05240720806671562,-1.1458392209722377
167,2.220916613575033,-20.329370159048832,-0.05391584381489712,-1.1364884333500789
168,2.234215515452728,-20.400401309257738,-0.055349504505046346,-1.1219410887511665
169,2.2475144173304225,-20.309613969883955,-0.05618744526839371,-1.0946880746331575
170,2.260813319208117,-19.945063520991944,-0.055853159777393475,-1.0469301251236527
171,2.274112221085812,-19.206511527950884,-0.053831163661466924,-0.9722560882433355
172,2.287411122963507,-18.030173806928893,-0.04980776605280749,-0.8674668087233365
173,2.300710024841202,-16.41022788656195,-0.04379362802149814,-0.7340703345873058
174,2.314008926718897,-14.410531863984229,-0.03618322006834156,-0.5789611729599726
175,2.327307828596592,-12.161835695035498,-0.027721942801710198,-0.41394912443833687
176,2.340606730474286,-9.843530713892386,-0.019380881102036705,-0.25410128161262
177,2.353905632351981,-7.653551817475719,-0.012170412353031346,-0.11521659316478207
178,2.367204534229676,-5.773780098482186,-0.0069441890242872535,-0.011038679319785897
179,2.3805034361073707,-4.339750864824076,-0.004246369199913079,0.04908340419881955
180,2.3938023379850657,-3.4220785372406954,-0.00423820606104099,0.06150102738549943
181,2.4071012398627603,-3.0233120868746908,-0.006713642841466547,0.02826406842836289
182,2.4204001417404557,-3.0893251016629875,-0.011188270180941122,-0.04407591982629634
183,2.43369904361815,-3.5304440209594565,-0.017029892943698485,-0.1464155221733255
184,2.446997945495845,-4.2455271308417295,-0.02359462406272112,-0.2691961802436514
185,2.46029684737354,-5.142501195027886,-0.03033783735430198,-0.4040824884227871
186,2.4735957492512344,-6.15097660537288,-0.03688036475783686,-0.5448650758297918
187,2.486894651128929,-7.225524064424564,-0.04302325288924349,-0.687516209245813
188,2.500193553006624,-8.340995985257582,-0.04871674828907945,-0.8295872833502388
189,2.513492454884319,-9.483199987415519,-0.053999293296027935,-0.9693004485865548
190,2.526791356762013,-10.638949363070695,-0.05892837864894826,-1.104719681137776
191,2.5400902586397085,-11.789015515295937,-0.06352521531089259,-1.2332967553567158
192,2.553389160517403,-12.90604086307179,-0.06774866783706299,-1.3519141411342208
193,2.566688062395098,-13.957526442324683,-0.07150259304092837,-1.4573523516389641
194,2.5799869642727926,-14.912230849292394,-0.07466886198037202,-1.5469622384787667
195,2.593285866150488,-15.74730167356842,-0.07715050047323976,-1.6192722927770025
196,2.6065847680281826,-16.453505358306884,-0.07890815864301266,-1.6743158973044765
197,2.619883669905877,-17.03689463544733,-0.07997801867548698,-1.7135894050647154
198,2.633182571783572,-17.516669583263692,-0.08046738620615497,-1.7396897287602227
199,2.6464814736612667,-17.920254353365266,-0.08053201440932461,-1.7557743734659423
200,2.6597803755389617,-18.277290546753008,-0.08034401350852992,-1.7650097871810615
201,2.6730792774166563,-18.61421861595405,-0.08006005671387353,-1.7701334873744228
202,2.6863781792943517,-18.950561208703597,-0.07979725007901711,-1.7731850679278955
203,2.6996770811720463,-19.297277762732932,-0.07962024598684453,-1.775398916538454
204,2.712975983049741,-19.656950895379147,-0.07953975787149795,-1.7772207991300701
205,2.726274884927436,-20.025269490432976,-0.07952062698573589,-1.7784125455990147
206,2.7395737868051304,-20.393281995250018,-0.0794969781074805,-1.7782273702688518
207,2.7528726886828254,-20.750052450686624,-0.07939196408003169,-1.7756506716350573
208,2.76617159056052,-21.08545975565801,-0.07913920590169891,-1.7696922227116716
209,2.779470492438215,-21.392805757163696,-0.0787019474463546,-1.7596855517002297
210,2.792769394315909,-21.67066200179502,-0.07808476093280917,-1.7455151732772702
211,2.8060682961936045,-21.923163523846817,-0.07733260151347823,-1.727676174611148
212,2.8193671980712995,-22.157983940621246,-0.07651416587167335,-1.7070917432833765
213,2.832666099948994,-22.381656111146402,-0.07569087674643048,-1.6846746604665672
214,2.845965001826689,-22.59272383013162,-0.07487814517969676,-1.6607040787282983
215,2.859263903704384,-22.77422642307486,-0.07400990927996039,-1.6341751979913346
216,2.8725628055820787,-22.8878962685169,-0.07291909705582814,-1.6023402349166942
217,2.885861707459773,-22.872794170278542,-0.0713447577512328,-1.5606677715457715
218,2.899160609337468,-22.650575646849983,-0.06897121844462663,-1.5033818487248072
219,2.912459511215163,-22.138046737668226,-0.06549652603273563,-1.4245967488945528
220,2.925758413092858,-21.26539106209332,-0.060718088368615995,-1.3198660770603605
221,2.939057314970553,-19.996119574880122,-0.054615183174948026,-1.1877794102080501
222,2.952356216848248,-18.34333761416309,-0.04740401711786416,-1.031145497089795
223,2.9656551187259423,-16.377112357304746,-0.039544254007621564,-0.8573545634931348
224,2.978954020603637,-14.219765890614628,-0.031687307602644446,-0.6777159767814496
225,2.992252922481332,-12.02926734492886,-0.024573525949577325,-0.5058608079235856
226,3.0055518243590265,-9.97441025694223,-0.018901720478085634,-0.35557952192595127
227,3.018850726236721,-8.207869012070784,-0.015203769453837352,-0.23863098873182373
228,3.0321496281144165,-6.843681866748191,-0.013755607457343567,-0.1630515174338066
229,3.045448529992111,-5.944125829942379,-0.014544815753420655,-0.1323203578452443
230,3.058747431869806,-5.517993783121194,-0.01729883729890462,-0.14546996122169142
231,3.0720463337475006,-5.529029273332794,-0.021562020843919637,-0.19796211636268451
232,3.085345235625196,-5.910767517989233,-0.026798468984944746,-0.28297163574966694
233,3.09864413750289,-6.582960260418104,-0.03249336744675526,-0.3926765746258547
234,3.111943039380585,-7.465289410699378,-0.03822874961079748,-0.5192469599943195
235,3.12524194125828,-8.485831733638996,-0.04371942836526239,-0.6554037518637461
236,3.1385408431359747,-9.583975082613764,-0.048808129861121444,-0.7946075545828596
237,3.1518397450136697,-10.70936204847889,-0.05343127663152657,-0.9310567270728924
238,3.1651386468913643,-11.819340567616647,-0.057574075466567606,-1.059688632627106
239,3.1784375487690597,-12.877176838336318,-0.061233278726153924,-1.1763001896060128
240,3.191736450646754,-13.852231335889945,-0.06439904186972313,-1.2777879106027368
241,3.205035352524449,-14.721975524718005,-0.06705720719988999,-1.3624131139176845
242,3.218334254402144,-15.474700478988547,-0.0692045681465018,-1.4299626410312445
243,3.2316331562798384,-16.111394720090363,-0.07086558052397451,-1.4817039253142081
244,3.2449320581575334,-16.64559297495048,-0.07210050159913488,-1.5201036103026089
245,3.258230960035228,-17.10078660847406,-0.07300040864461844,-1.5483568231731017
246,3.271529861912923,-17.505862960424384,-0.07367088467223398,-1.569828501402751
247,3.284828763790617,-17.88965959188557,-0.07421051374984135,-1.5875226931882045
248,3.2981276656683125,-18.275901365106773,-0.07469140628475388,-1.6036737941136257
249,3.311426567546007,-18.679559010143517,-0.07514726533092106,-1.6195128145751132
250,3.324725469423702,-19.10520161435698,-0.07557150328643064,-1.635222143137875
251,3.338024371301397,-19.547425319339354,-0.07592503278659918,-1.6500654701346233
252,3.351323273179092,-19.99307213667919,-0.07615125105805132,-1.6626642751560232
253,3.364622175056786,-20.424733825266614,-0.07619439707627584,-1.671378871332454
254,3.377921076934481,-20.82490379459937,-0.07601671098273363,-1.6747326536072513
255,3.391219978812176,-21.180024650555364,-0.07560977404654379,-1.6717959577379307
256,3.4045188806898707,-21.483574315926553,-0.07499639629100542,-1.6624344576810655
257,3.4178177825675657,-21.73730821318176,-0.07422155626682396,-1.6473402381024347
258,3.4311166844452607,-21.9499257904739,-0.07333370121786116,-1.6278043516105805
259,3.4444155863229557,-22.13282937253365,-0.07236030910926915,-1.6052479777315118
260,3.4577144882006503,-22.29331058454091,-0.07128333380325472,-1.5805916540747698
261,3.471013390078345,-22.426372858313584,-0.07002093012785345,-1.5535988532805403
262,3.48431229195604,-22.5072930490888,-0.06842188723416666,-1.5223732612399163
263,3.4976111938337344,-22.48761253572526,-0.06627826702781002,-1.48320365208792
264,3.510910095711429,-22.29713263596918,-0.06335905151884212,-1.4309145820136568
265,3.524208997589124,-21.853396970309692,-0.059462591498139525,-1.3597801399304925
266,3.537507899466819,-21.078133432448446,-0.05447909227387011,-1.2649008942670161
267,3.550806801344514,-19.9176886449914,-0.04844854552174591,-1.1437713365753022
268,3.5641057032222085,-18.362439745917865,-0.041597124190561476,-0.9976375479789162
269,3.5774046050999035,-16.459396616748716,-0.034337779625110816,-0.8322216239923095
270,3.590703506977598,-14.313295681107677,-0.0272284743989428,-0.6575030561116266
271,3.604002408855293,-12.074384925996462,-0.020892292905794425,-0.48648437789715765
272,3.617301310732988,-9.914996365266399,-0.01591462460365504,-0.333163920435055
273,3.630600212610682,-8.000537584488551,-0.012740401156537011,-0.21019212170872678
274,3.6438991144883777,-6.462348383765935,-0.011596261921926941,-0.12680200996192936
275,3.657198016366072,-5.379226538546576,-0.012457363469892771,-0.08752867292640865
276,3.6704969182437672,-4.77157376741521,-0.01506736720034266,-0.0919889939957385
277,3.683795820121462,-4.6081620779380765,-0.019006002421758653,-0.1356699957191386
278,3.697094721999157,-4.821943975797502,-0.023785710447822083,-0.21138982741886042
279,3.7103936238768513,-5.32932747409629,-0.028951242886758488,-0.3109480946160853
280,3.7236925257545455,-6.04738150686508,-0.034156219715923586,-0.42651015405111453
281,3.736991427632241,-6.9051866313129135,-0.039198628364298604,-0.5514400125987546
282,3.750290329509936,-7.848113728980446,-0.04401057475692607,-0.6805266673535163
283,3.763589231387631,-8.83621373794132,-0.048611957553374406,-0.8097501697107117
284,3.7768881332653255,-9.839415552260109,-0.05304832940296154,-0.935845735393435
285,3.790187035143021,-10.832561735432158,-0.05733638289630843,-1.0559279666218713
286,3.803485937020715,-11.792568803736732,-0.061435220221049684,-1.167350262425382
287,3.81678483889841,-12.698588799736775,-0.0652501015161242,-1.2678383832031181
288,3.8300837407761046,-13.534548307932413,-0.06866252867851681,-1.3558045239744985
289,3.8433826426538,-14.29241411737403,-0.07157151064488945,-1.43066790832799
290,3.856681544531495,-14.974327007011475,-0.07392881540946569,-1.49300776671734
291,3.869980446409189,-15.592345716867912,-0.07575573727873822,-1.544449123762804
292,3.883279348286884,-16.165606651046776,-0.0771373861236629,-1.5872935909217754
293,3.8965782501645783,-16.715732141226173,-0.07819877195645789,-1.6240049400086414
294,3.9098771520422737,-17.26189766829008,-0.07907204179551384,-1.6567030843447696
295,3.923176053919968,-17.81693845271672,-0.07986519049761413,-1.6868004391895237
296,3.9364749557976633,-18.38536042824856,-0.08064029506217954,-1.7148511086382
297,3.9497738576753583,-18.963410681418775,-0.08140546250406928,-1.7406092324226314
298,3.963072759553053,-19.540752989015793,-0.08212063162143667,-1.7632365551984868
299,3.976371661430748,-20.10296422327941,-0.08271393314192067,-1.7815745549389141
300,3.9896705633084415,-20.63405238731219,-0.0831029816015472,-1.7944027556946702
301,4.002969465186137,-21.118427725449806,-0.08321471284861996,-1.8006326043099972
302,4.016268367063832,-21.542113069795477,-0.08299848628741807,-1.7994217608308267
303,4.029567268941527,-21.8933226225594,-0.0824298645909335,-1.7902230383346658
304,4.042866170819222,-22.162755831382007,-0.08150583385081359,-1.7727966222621823
305,4.056165072696917,-22.34399104789796,-0.08023508120239532,-1.7472134386262181
306,4.069463974574611,-22.434242853328925,-0.0786284998836991,-1.7138685875449242
307,4.082762876452306,-22.435530608304504,-0.07669507150489009,-1.6735133716250923
308,4.096061778330001,-22.356049415685195,-0.0744466740792632,-1.6273029215034274
309,4.109360680207696,-22.21127221771909,-0.07191216404628721,-1.5768394579354483
310,4.12265958208539,-22.024091808517724,-0.06915648407630369,-1.5241685586214089
311,4.135958483963085,-21.82322967346814,-0.06629567655235563,-1.4716673284372275
312,4.14925738584078,-21.63930961799748,-0.06349594425281001,-1.4217656585951792
313,4.162556287718475,-21.49847897237678,-0.06094714392072132,-1.3764770292222408
314,4.17585518959617,-21.414212891360844,-0.058809630892690194,-1.3367820737430047
315,4.189154091473864,-21.37880823657847,-0.05714617572575923,-1.3019897943067709
316,4.202452993351559,-21.35683706669208,-0.05586238977760818,-1.2692713060599605
317,4.215751895229254,-21.28320085105108,-0.0546832594442697,-1.2335891576738969
318,4.229050797106949,-21.06809366166111,-0.05318589440374846,-1.1882046260445231
319,4.242349698984643,-20.609920863776004,-0.050890500757525825,-1.1258224070883114
320,4.255648600862338,-19.815083682321845,-0.047389432479396136,-1.0402410289565522
321,4.268947502740033,-18.62101955691754,-0.04247725820821498,-0.9281691699502365
322,4.282246404617728,-17.01686915131161,-0.03624073544964833,-0.7907222296723172
323,4.295545306495423,-15.055599444707624,-0.029078649142673742,-0.6341075476359044
324,4.3088442083731175,-12.852943648052985,-0.021643451777894288,-0.46917652560044537
325,4.3221431102508125,-10.571934380116945,-0.014720905087161631,-0.3098337578278145
326,4.335442012128508,-8.396057035663873,-0.009081337522572397,-0.17064579373985697
327,4.3487409140062026,-6.4975930636961765,-0.005341097770716324,-0.06425402711257527
328,4.3620398158838976,-5.009201201714468,-0.003865389558157718,0.0007360741161387008
329,4.375338717761592,-4.0056549861888815,-0.004728806810037184,0.02087098375977953
330,4.388637619639287,-3.499404444820127,-0.007733972396632377,-0.0022329120295838363
331,4.401936521516982,-3.4494950356527885,-0.012476337734867428,-0.06301381257010961
332,4.415235423394677,-3.779779799500363,-0.018436011620485353,-0.15369678517980334
333,4.428534325272371,-4.400378922176721,-0.025075046776046585,-0.2660836805331136
334,4.441833227150066,-5.2263967857332405,-0.03192016163883456,-0.39291881299372794
335,4.455132129027761,-6.189714185268393,-0.038615954911686984,-0.5285568647027536
336,4.468431030905456,-7.242419358694345,-0.04494165171523242,-0.6689215693200814
337,4.481729932783151,-8.353133160454414,-0.05079385157946553,-0.8109661189521932
338,4.495028834660845,-9.499320616578824,-0.05614633219593954,-0.9519632276760676
339,4.50832773653854,-10.659279596072041,-0.06100318986632131,-1.088945115685156
340,4.521626638416235,-11.806901250591249,-0.06536166117540257,-1.2185050938380775
341,4.53492554029393,-12.910854502307314,-0.06919562472101934,-1.3370123176761792
342,4.548224442171624,-13.938074033528947,-0.07246181748461547,-1.4411356781164224
343,4.561523344049319,-14.859894562221287,-0.0751216846708018,-1.5284695836016977
344,4.574822245927014,-15.65835402600082,-0.07716627224743042,-1.598031864773547
345,4.588121147804709,-16.330316508035516,-0.07863187717039485,-1.6504626940540585
346,4.601420049682404,-16.888019119217887,-0.07959976397425611,-1.6878651927679253
347,4.614718951560098,-17.35599004025229,-0.08018112628304959,-1.7133475409830559
348,4.628017853437793,-17.76546643047841,-0.08049471074611914,-1.7304091670648396
349,4.641316755315488,-18.14804369546271,-0.08064636867285935,-1.742336588360122
350,4.654615657193183,-18.53019487113465,-0.08071700161022403,-1.7517414532385427
351,4.667914559070877,-18.929697926909313,-0.0807600813291745,-1.7603081029037777
352,4.681213460948572,-19.354249757084993,-0.08080529771821202,-1.7687499834514375
353,4.694512362826267,-19.801950799545263,-0.08086322467644091,-1.7769261205840123
354,4.707811264703962,-20.263075127237663,-0.08092754630177376,-1.7840507671765535
355,4.721110166581657,-20.722574498225317,-0.08097485909401578,-1.7889389524614419
356,4.734409068459351,-21.162954647785728,-0.08096505113102952,-1.7902558147037768
357,4.747707970337046,-21.56732564132033,-0.08084590735696738,-1.7867604134275943
358,4.761006872214741,-21.92242544585113,-0.08056343009064264,-1.7775388196365298
359,4.774305774092436,-22.22121233501899,-0.08007551251785545,-1.7622013601640034
360,4.787604675970131,-22.464322725280912,-0.07936319112126478,-1.7409871227690248
361,4.8009035778478255,-22.659514802109516,-0.07843276658708342,-1.7147009601156789
362,4.8142024797255205,-22.818391420787368,-0.07730449213726542,-1.6844283659499435
363,4.827501381603216,-22.950319798676997,-0.07598857575634689,-1.651037147794347
364,4.840800283480911,-23.054440461018608,-0.07445507830603112,-1.614562687537335
365,4.854099185358605,-23.111705109350353,-0.07260876488650152,-1.573651766146853
366,4.8673980872363,-23.079631556696217,-0.07028127052889792,-1.525275971538348
367,4.880696989113995,-22.892544164547573,-0.06724992901987577,-1.4649000536702765
368,4.89399589099169,-22.469210733376233,-0.06328525060684964,-1.3871994803783403
369,4.907294792869385,-21.727956365909005,-0.05821901917235599,-1.2872770308181334
370,4.920593694747079,-20.606876532565533,-0.052015799309179926,-1.1621607847996325
371,4.933892596624774,-19.08444695950619,-0.044826321197986956,-1.012224209477027
372,4.947191498502469,-17.194614239985583,-0.037004184539084224,-0.842110967012293
373,4.960490400380164,-15.031113919341205,-0.029076946964116078,-0.6608162698145364
374,4.973789302257858,-12.738403149088652,-0.021675459634883702,-0.4807758406258392
375,4.987088204135553,-10.490455118431655,-0.01543673275275882,-0.3160908088916138
376,5.000387106013248,-8.462368389401366,-0.010902098391612316,-0.18027859646113556
377,5.013686007890943,-6.801905841817664,-0.008432681296032002,-0.08408958575597264
378,5.026984909768638,-5.607926071161608,-0.008159140322401675,-0.033912278210349193
379,5.040283811646332,-4.920368273721813,-0.00997447361222556,-0.03111553792829306
380,5.053582713524027,-4.72293442391965,-0.013569470556930035,-0.07240928841438544
381,5.066881615401722,-4.956113000116815,-0.018501540784201118,-0.15103121248977552
382,5.080180517279417,-5.535761902644209,-0.024280353242386372,-0.2583660440100084
383,5.093479419157112,-6.371708335879132,-0.03044971979997634,-0.38553074578026003
384,5.106778321034806,-7.381773803484266,-0.036646466811026006,-0.524532174817115
385,5.120077222912501,-8.498824246301865,-0.04262442150254062,-0.6687971087935072
386,5.133376124790196,-9.671051182369162,-0.04824321576555032,-0.8131162108034307
387,5.146675026667891,-10.857802525632586,-0.053433086884571414,-0.9532403761276977
388,5.159973928545585,-12.024246625436344,-0.05815355799229079,-1.0854460902815388
389,5.17327283042328,-13.137795228158234,-0.06236319799537083,-1.2063267257868273
390,5.186571732300975,-14.167848875866875,-0.06601032594254189,-1.312910611884418
391,5.19987063417867,-15.08869232551838,-0.06904411858756349,-1.4030312279746757
392,5.213169536056365,-15.883938779142614,-0.0714367230060584,-1.4757542088726765
393,5.226468437934059,-16.550294041715066,-0.07320323740243406,-1.5316413495603665
394,5.239767339811754,-17.098740215671704,-0.07440887282442736,-1.5727010521620042
395,5.253066241689449,-17.55230825875618,-0.07515953869873454,-1.6019994896700729
396,5.266365143567144,-17.94094019425615,-0.07557995359169042,-1.6230332098415594
397,5.279664045444839,-18.294998490829112,-0.07578850674656543,-1.6390447361519553
398,5.2929629473225335,-18.639387745963017,-0.07587845237003203,-1.6524736551939563
399,5.3062618492002285,-18.989930722774318,-0.07591105710062615,-1.6646806685495843
400,5.319560751077924,-19.352789385844492,-0.07592048424461453,-1.6759879093035919
401,5.3328596529556185,-19.726700625245996,-0.0759254317516088,-1.685981935068093
402,5.346158554833313,-20.10695066146281,-0.07594074445025233,-1.6939566438634999
403,5.359457456711008,-20.48954978363796,-0.07598351500800943,-1.69934563812749
404,5.372756358588703,-20.874039345405585,-0.07607124852620183,-1.7020046185054127
405,5.386055260466398,-21.263716048707934,-0.07621273509180562,-1.7022444968300439
406,5.399354162344093,-21.66271449374304,-0.0763941707453629,-1.7005770381652934
407,5.412653064221787,-22.070254504750185,-0.0765636569951998,-1.6972110178207038
408,5.425951966099482,-22.47329900681851,-0.07661720746984435,-1.6914181998430653
409,5.439250867977177,-22.839682245528227,-0.07638971476119882,-1.6809570563144882
410,5.452549769854872,-23.11421929634779,-0.07565536132664974,-1.6617754140875503
411,5.465848671732566,-23.22017363971007,-0.07414302583814182,-1.6281912037050263
412,5.479147573610261,-23.067589524209268,-0.07157166832196045,-1.5736626548910757
413,5.492446475487956,-22.568381842778123,-0.06770668202042986,-1.4921100080155347
414,5.505745377365651,-21.6559550806274,-0.06243037773509788,-1.3795661227613838
415,5.519044279243346,-20.30505701467183,-0.0558103138957789,-1.235765531266687
416,5.53234318112104,-18.54637957922595,-0.04814264640485304,-1.0652006907593348
417,5.545642082998735,-16.47086163235643,-0.03994886565234672,-0.8772405883856612
418,5.55894098487643,-14.220984670972376,-0.03191532447490372,-0.6851326969060465
419,5.572239886754125,-11.970024423665244,-0.024783145098705203,-0.5040356995068694
420,5.585538788631819,-9.89395121863719,-0.019214367161220193,-0.34854073785772366
421,5.598837690509514,-8.143004098517256,-0.015670414003167068,-0.2303090713862295
422,5.612136592387209,-6.8199673865962955,-0.0143362565051115,-0.156413536960615
423,5.625435494264904,-5.969898108613823,-0.015109131828357832,-0.12873837607861663
424,5.638734396142599,-5.582441884955071,-0.01765049708544899,-0.14446181985386378
425,5.652033298020293,-5.604295591506579,-0.02148178821336108,-0.1973412741966137
426,5.665332199897988,-5.956994153168452,-0.02609423206929966,-0.27933991392000834
427,5.678631101775683,-6.554600513450847,-0.031042567479117083,-0.3821183560652167
428,5.691930003653378,-7.316991731637607,-0.03600100983499783,-0.49804990743681565
429,5.705228905531072,-8.176679668819396,-0.04077389496953784,-0.6206419373312722
430,5.718527807408767,-9.079621525887925,-0.04526853655223506,-0.7444741340357168
431,5.731826709286462,-9.98238901088359,-0.04944888834418715,-0.8649141338373195
432,5.745125611164157,-10.848768201588582,-0.053291810211377265,-0.9778929951633182
433,5.758424513041852,-11.648237737597839,-0.056762345016358906,-1.0799229742254937
434,5.771723414919546,-12.357233421118494,-0.05981338072471959,-1.1683752012758974
435,5.785022316797241,-12.962401210003014,-0.062403698759935934,-1.2418838529687426
436,5.798321218674936,-13.463909486639672,-0.06452161345907445,-1.3006683822584266
437,5.811620120552631,-13.876752825459402,-0.06620133536843834,-1.3465875777384484
438,5.824919022430326,-14.22878482440775,-0.06752456956868721,-1.382838047913513
439,5.838217924308021,-14.555531367778412,-0.068607224876426,-1.4133388556307012
440,5.851516826185716,-14.893070147140476,-0.06957689569022782,-1.4419531054779242
441,5.864815728063411,-15.270940555447547,-0.0705489763437313,-1.4717497088452693
442,5.878114629941106,-15.706975258330205,-0.07160792729965972,-1.504491255253885
443,5.8914135318188,-16.205233029658473,-0.07279687701559193,-1.540458517907936
444,5.904712433696495,-16.757186757047545,-0.07411539102676779,-1.5786185980699559
445,5.91801133557419,-17.34537018377089,-0.07552331656582086,-1.6170488340041556
446,5.931310237451885,-17.948121660461926,-0.07694849791868134,-1.6534723636944038
447,5.94460913932958,-18.544013208271302,-0.07829717588340014,-1.685756206097348
448,5.957908041207274,-19.114944109797758,-0.07946680721159105,-1.7122612978445884
449,5.971206943084969,-19.647491894197955,-0.08036090991468478,-1.7319949748625991
450,5.984505844962664,-20.13270367537426,-0.08090433357206259,-1.7445770834858154
451,5.997804746840359,-20.56490427958596,-0.08105597379322863,-1.7500757248048675
452,6.011103648718053,-20.940229310303724,-0.08081550579981554,-1.748790815455564
453,6.024402550595748,-21.255481508849698,-0.0802216830563892,-1.741061712357187
454,6.037701452473443,-21.507633092420313,-0.0793417460711299,-1.727151453512727
455,6.051000354351138,-21.693971802787324,-0.07825371212298109,-1.7072234263012989
456,6.064299256228833,-21.812647133943724,-0.07702514234621348,-1.6813919002098352
457,6.077598158106527,-21.86330730271727,-0.0756931664797847,-1.6498106465840159
458,6.090897059984222,-21.84762058043228,-0.07425104112497889,-1.6127677368612718
459,6.104195961861917,-21.769646996835736,-0.07264619096042184,-1.5707700626495797
460,6.117494863739612,-21.63614953260605,-0.07079318213601955,-1.524613776844704
461,6.130793765617307,-21.45694636219249,-0.06860196355570333,-1.4754386480691852
462,6.144092667495001,-21.245313812286216,-0.06601691753035512,-1.4247567904517922
463,6.157391569372696,-21.018283341425935,-0.06305674392225141,-1.3744351244306825
464,6.170690471250391,-20.796462317261117,-0.05984122524987476,-1.32660082797772
465,6.183989373128086,-20.602802880637764,-0.056591287923155764,-1.2834344588081616
466,6.19728827500578,-20.459668845474898,-0.05359505994841817,-1.246824152960052
467,6.210587176883475,-20.383772392342184,-0.05114353805142047,-1.2178847726331534
468,6.22388607876117,-20.379174925741296,-0.04945084924282903,-1.1963987003209882
469,6.237184980638865,-20.429505116531818,-0.0485809501582434,-1.1802976584628477
470,6.25048388251656,-20.491568939191474,-0.04840209915925509,-1.1653555521588417
471,6.263782784394254,-20.49318523529308,-0.04858342885018311,-1.1452776626884826
472,6.277081686271949,-20.337925402747185,-0.04863798917938372,-1.1123325062689664
473,6.290380588149644,-19.91817231094569,-0.04800713558173909,-1.0585681588896325
474,6.303679490027339,-19.13560162693734,-0.04617324940950421,-0.9774899769894064
475,6.3169783919050335,-17.925380902960608,-0.04278086087160498,-0.8658853525795268
476,6.3302772937827285,-16.278070866529607,-0.0377404345309683,-0.7253300227972809
477,6.343576195660424,-14.252507661821825,-0.031287153125641,-0.5628799431104928
478,6.356875097538119,-11.974542282126773,-0.023973102938724258,-0.39059662809025225
479,6.3701739994158135,-9.620228550873463,-0.016586811999473247,-0.22385836487405036
480,6.383472901293508,-7.386710322698959,-0.010015021147369909,-0.07878129970343911
481,6.396771803171203,-5.457927503021163,-0.0050794709872423955,0.0306272388600767
482,6.410070705048898,-3.9738381978095867,-0.0023886675331372836,0.09485741476242254
483,6.423369606926593,-3.010592104502672,-0.0022387378529664975,0.11023599628665005
484,6.436668508804288,-2.575599383517957,-0.0045823322806666025,0.07894158765581494
485,6.449967410681982,-2.617096743326644,-0.009066550648176986,0.007803050963003628
486,6.463266312559677,-3.044077926790541,-0.01512539993291828,-0.09369212709498795
487,6.476565214437372,-3.750332171804774,-0.022101976317899744,-0.21558279410693246
488,6.489864116315067,-4.636178423763333,-0.029371264689153142,-0.34922942141618
489,6.503163018192761,-5.623073967730985,-0.036436532311054974,-0.48831633902464844
490,6.516461920070456,-6.658967663956098,-0.042980682123602176,-0.6289403191061678
491,6.529760821948151,-7.715175036926649,-0.04886709212926543,-0.7689570876448458
492,6.543059723825846,-8.77780124497978,-0.054098817992928025,-0.906962692050019
493,6.556358625703541,-9.837742489992772,-0.05875583145823588,-1.0413437151620355
494,6.569657527581235,-10.882931446039901,-0.06293339311870376,-1.1697365734236949
495,6.58295642945893,-11.895072296819148,-0.06669982484212296,-1.2890432960206017
496,6.596255331336625,-12.851218848224663,-0.07008146939540924,-1.395937143120525
497,6.60955423321432,-13.728826459404848,-0.07307132541797756,-1.487628155640559
498,6.622853135092014,-14.511875841652294,-0.07565031110551312,-1.5625911844231106
499,6.636152036969709,-15.195585473334164,-0.07780858044540924,-1.62099719276315
500,6.649450938847404,-15.788023769452385,-0.07955807897391458,-1.6647092948095126
501,6.662749840725099,-16.308220224868172,-0.080933827124826,-1.6968601259104545
502,6.676048742602794,-16.781625679102397,-0.08198702776006224,-1.7211603843383136
503,6.689347644480488,-17.234529573279126,-0.08277569483034382,-1.7411552478685803
504,6.702646546358183,-17.689105307588722,-0.08335752471075603,-1.759629832304177
505,6.715945448235878,-18.160227668390952,-0.08378644483147407,-1.7782842584977847
506,6.729244350113573,-18.65440665758436,-0.08411099334817221,-1.7976939672908587
507,6.742543251991267,-19.170467839318032,-0.08437142394828827,-1.8174855107512728
508,6.755842153868962,-19.70121890281548,-0.08459375970926539,-1.836619145609246
509,6.769141055746657,-20.235326031673356,-0.08478187956549249,-1.8536785566031606
510,6.782439957624352,-20.75887989050959,-0.08491125027428872,-1.8671067369712586
511,6.795738859502047,-21.256493026057214,-0.08492859848244066,-1.8753717930420888
512,6.8090377613797415,-21.712083448431848,-0.08476017718351511,-1.8770795980160533
513,6.8223366632574365,-22.109660074271282,-0.08432794709411506,-1.8710637564357535
514,6.835635565135132,-22.434400991271435,-0.08356939200846232,-1.8564776160762686
515,6.8489344670128265,-22.674146605229417,-0.08245454940577011,-1.8328953784324251
516,6.8622333688905215,-22.821211297105265,-0.08099444661954754,-1.8004111908141949
517,6.875532270768216,-22.874239588505933,-0.07923845679968906,-1.759715547270897
518,6.888831172645911,-22.83972541814812,-0.0772624712656272,-1.7121275386175498
519,6.902130074523606,-22.732744955113414,-0.07515279254540028,-1.6595619055140554
520,6.915428976401301,-22.57639727048606,-0.07299072395124293,-1.6044058956960374
521,6.928727878278995,-22.39944388661348,-0.0708404353580787,-1.5492774050410183
522,6.94202678015669,-22.231791005206365,-0.06873990974627271,-1.4966453002618896
523,6.955325682034385,-22.097860249780847,-0.0666936214651107,-1.4483241636419997
524,6.96862458391208,-22.008551577520123,-0.06466646188217412,-1.4049061162588328
525,6.981923485789775,-21.953302910822828,-0.06258011287471565,-1.365248336787765
526,6.995222387667469,-21.894467180838227,-0.06031415233665559,-1.3261780616763221
527,7.008521289545164,-21.766539626368434,-0.057714259469566695,-1.2825873127080487
528,7.021820191422859,-21.482334755653287,-0.054609474652089776,-1.2280473508669605
529,7.035119093300554,-20.946823196985267,-0.05083980805232485,-1.1559650275192384
530,7.048417995178248,-20.077120589041083,-0.046293860247021736,-1.061138906126437
531,7.061716897055943,-18.824661008919012,-0.04095253757292563,-0.941395372314027
532,7.075015798933638,-17.193827514115362,-0.03492975239627774,-0.7988649978008123
533,7.088314700811333,-15.251180766616873,-0.028496657865041835,-0.6404672173353396
534,7.101613602689028,-13.121357871231917,-0.022075954187435794,-0.47733689171203847
535,7.114912504566722,-10.969312319793053,-0.01619906878242522,-0.32321369193416155
536,7.128211406444417,-8.972649905435796,-0.011430029655230222,-0.19212897942717977
537,7.141510308322112,-7.290882155738182,-0.008271127129546066,-0.09594929024870674
538,7.154809210199807,-6.039322135056483,-0.0070722784433596975,-0.04238725988755191
539,7.168108112077502,-5.273807335630618,-0.007966077068801826,-0.033954258864845197
540,7.181407013955196,-4.989099500472371,-0.010844429838485319,-0.06805637543736195
541,7.194705915832891,-5.129896031832612,-0.015382625007300525,-0.13811814011557297
542,7.208004817710586,-5.6101519608795805,-0.021105106947664678,-0.2353524833795556
543,7.221303719588281,-6.334747991105341,-0.027476767501669323,-0.3506554185838958
544,7.234602621465975,-7.217764976377476,-0.03399702953174433,-0.476125571245286
545,7.24790152334367,-8.19345160880908,-0.040273725048370984,-0.6058773503881244
546,7.261200425221365,-9.218651693744356,-0.04606032026756521,-0.7360691044430738
547,7.27449932709906,-10.268069969139722,-0.05125154508454776,-0.8643148692749935
548,7.287798228976755,-11.325545100924304,-0.05584519642379519,-0.9888111082072436
549,7.3010971308544494,-12.375094444031877,-0.059887528216009366,-1.1075476986867654
550,7.314396032732144,-13.394932283208293,-0.06342291393088452,-1.2178908626302178
551,7.327694934609839,-14.35626607575854,-0.06646431363083367,-1.3166652058381725
552,7.3409938364875345,-15.226923779457165,-0.06899131594453398,-1.4006801959537745
553,7.354292738365229,-15.97828544589018,-0.07097128348296373,-1.4675006138319175
554,7.367591640242924,-16.59303327581773,-0.07239099871429078,-1.5161914634736509
555,7.380890542120619,-17.071126545534042,-0.07328403346604011,-1.5477876058031772
556,7.394189443998314,-17.432073390998276,-0.07374273424590727,-1.5653287943109309
557,7.407488345876009,-17.712673614229928,-0.0739106169857417,-1.5734239727515391
558,7.420787247753703,-17.96052966739875,-0.07395769834041756,-1.5774244762593501
559,7.434086149631398,-18.224473588024452,-0.07404547513363371,-1.582366930780013
560,7.447385051509093,-18.543563166876154,-0.07428943564695215,-1.5918854140403391
561,7.460683953386788,-18.93655339170488,-0.07472625439452424,-1.6072963284609307
562,7.473982855264483,-19.393854314465404,-0.07529170080029446,-1.6270397221999353
563,7.487281757142177,-19.87393023522851,-0.07581456116069332,-1.646621955722929
564,7.500580659019872,-20.305730278976412,-0.07603114130861546,-1.6591423984334663
565,7.513879560897567,-20.597896840192735,-0.0756230340962152,-1.65639563663935
566,7.527178462775262,-20.654140971904713,-0.0742767887124589,-1.630423550373443
567,7.540477364652956,-20.392509527405917,-0.07175789453852971,-1.5752663534653955
568,7.553776266530651,-19.764744921359352,-0.06798451553712585,-1.4885607370602798
569,7.567075168408346,-18.771128375654783,-0.06308138782871886,-1.3725976064867145
570,7.580374070286041,-17.46659881275003,-0.05739438371534363,-1.23451763356076
571,7.593672972163736,-15.955727943771427,-0.05145358883968657,-1.0855010089631087
572,7.60697187404143,-14.376969941843058,-0.04588675332065707,-0.9390659556335853
573,7.620270775919125,-12.879639586918968,-0.041301510051370234,-0.8088507714072445
574,7.63356967779682,-11.599215329130624,-0.038167196814807916,-0.7064173888510082
575,7.646868579674515,-10.636956498021682,-0.036729452458649434,-0.6396058881810459
576,7.660167481552209,-10.04827337376892,-0.036980900442091354,-0.6117811939768769
577,7.673466383429904,-9.841398082886544,-0.03869259821984911,-0.6220170867614174
578,7.686765285307599,-9.984814777961898,-0.04149108684422082,-0.6659805607000472
579,7.700064187185294,-10.419775558752232,-0.04495294311878016,-0.7371245380863806
580,7.713363089062989,-11.073708306212154,-0.04868745348264862,-0.8278168983652858
581,7.726661990940683,-11.871321841008804,-0.0523876322558855,-0.9301903805646056
582,7.739960892818378,-12.742029839357526,-0.05584485000366764,-1.0366935524497591
583,7.753259794696073,-13.62404158683811,-0.058935788515285276,-1.1404580618766091
584,7.766558696573768,-14.46642969132655,-0.06159716366014709,-1.2356215121880545
585,7.779857598451462,-15.230484606405025,-0.06380244821254732,-1.3176740980603083
586,7.793156500329157,-15.890970838088826,-0.06554821654544483,-1.3837909000843271
587,7.806455402206852,-16.437036427015094,-0.0668500689369825,-1.4330367288539523
588,7.819754304084547,-16.872002889704625,-0.06774310394597635,-1.4663261243335044
589,7.833053205962242,-17.2113367339098,-0.06828108732891922,-1.4860866656789347
590,7.846352107839936,-17.478699100903782,-0.06853096489760094,-1.4956744679446912
591,7.859651009717631,-17.700753775516002,-0.06856307943236158,-1.4986786025235241
592,7.8729499115953265,-17.901988896223134,-0.06844036660254113,-1.4982883744720583
593,7.886248813473021,-18.100908316632466,-0.06821081200796192,-1.4968719129119543
594,7.8995477153507165,-18.30854037649565,-0.06790643965792058,-1.49584145043089
595,7.912846617228411,-18.52947015139715,-0.06754965513300275,-1.4957911243224935
596,7.926145519106106,-18.764802748451903,-0.06716481112559183,-1.4968185102872853
597,7.939444420983801,-19.01586058967639,-0.06679039591213111,-1.4989003056506263
598,7.952743322861496,-19.287150386670266,-0.06648610257750472,-1.5021880010868567
599,7.96604222473919,-19.587238972910328,-0.06632968361011837,-1.5071128222971264
600,7.979341126616885,-19.926625856515642,-0.06640089924919185,-1.5142326739797611
601,7.99264002849458,-20.312451170379187,-0.06675352829518345,-1.5238153469336444
602,8.005938930372274,-20.740852649884317,-0.06738052614847287,-1.5352311416690894
603,8.019237832249969,-21.18881461668471,-0.06818106674555696,-1.5463139366181589
604,8.032536734127664,-21.608147532959915,-0.06894044618779001,-1.552917104055701
605,8.045835636005359,-21.924448234937447,-0.06933372550601116,-1.5489058454514089
606,8.059134537883054,-22.043234193222858,-0.06896076242598344,-1.5267640233233006
607,8.072433439760749,-21.86384723165349,-0.0674136016580949,-1.4788472046826333
608,8.085732341638444,-21.299432002602256,-0.06436769738385349,-1.3991107658424002
609,8.099031243516139,-20.298915164829403,-0.05967824701837453,-1.2849390603336157
610,8.112330145393834,-18.8652980261836,-0.05345567044418375,-1.1385742127703573
611,8.125629047271527,-17.064554857018038,-0.04609411907968737,-0.9676605160524334
612,8.138927949149222,-15.02138989412625,-0.038236303015256226,-0.7846117954793694
613,8.152226851026917,-12.901665658438999,-0.030675452026775688,-0.6048356131517393
614,8.165525752904612,-10.885317821038605,-0.02421515062992392,-0.44420362881426706
615,8.178824654782307,-9.136519917958797,-0.01952233923314899,-0.3164064255079614
616,8.192123556660002,-7.778596418514912,-0.017011903576789136,-0.2308700575427197
617,8.205422458537697,-6.879440826498589,-0.01679158349445604,-0.19172024671442697
618,8.218721360415392,-6.449719484459526,-0.018677146227887357,-0.19793413306987806
619,8.232020262293087,-6.452302283397357,-0.022266845365863375,-0.24445546255339215
620,8.24531916417078,-6.818518939075815,-0.027048319281340195,-0.32380170522596546
621,8.258618066048475,-7.465798733920533,-0.03250508695448024,-0.42763623650493726
622,8.27191696792617,-8.312056256016021,-0.03819478398573009,-0.5479083444388164
623,8.285215869803865,-9.284260597930349,-0.04378472454263389,-0.6774046712524835
624,8.29851477168156,-10.321093589778028,-0.04904712320613316,-0.8098051021604223
625,8.311813673559255,-11.371597348443805,-0.05383014080549263,-0.9395018512520155
626,8.32511257543695,-12.392619373188397,-0.05802660950589057,-1.0614703629813846
627,8.338411477314645,-13.347497430566294,-0.061557892435340815,-1.1713784471607376
628,8.35171037919234,-14.207090697623752,-0.06437846339133861,-1.2659432204452763
629,8.365009281070034,-14.952636951045585,-0.06649368201681774,-1.3433805438449729
630,8.378308182947729,-15.578751452041105,-0.0679755144702391,-1.4037147319270897
631,8.391607084825424,-16.094659784894517,-0.06896203528388133,-1.4487570447121767
632,8.404905986703119,-16.52247251900742,-0.06963504474601889,-1.481691902280009
633,8.418204888580814,-16.892534788703735,-0.07018108124986248,-1.5063633927988622
634,8.431503790458509,-17.237021819166532,-0.0707489916605051,-1.5264628924928825
635,8.444802692336204,-17.583540329649928,-0.07141877922592856,-1.5448425632417533
636,8.458101594213899,-17.950389969907082,-0.07219177785945569,-1.5631214673526141
637,8.471400496091594,-18.34450194050605,-0.07300405969910839,-1.5816451583212237
638,8.484699397969287,-18.76223073649437,-0.07375703195458853,-1.5997513559130758
639,8.497998299846982,-19.192444325007624,-0.07435428859472808,-1.6162208100408288
640,8.511297201724677,-19.620923488391565,-0.07473313163015141,-1.6297704248745248
641,8.524596103602372,-20.034968446985918,-0.07488226099422819,-1.6394691031881194
642,8.537895005480067,-20.427224372536923,-0.07484231561217426,-1.6450031419996027
643,8.551193907357762,-20.797936305626344,-0.07469119180561744,-1.6467611434246845
644,8.564492809235457,-21.155032108834416,-0.0745196501373761,-1.6457322354391566
645,8.577791711113152,-21.511621285134964,-0.0744038347126258,-1.6432182556897952
646,8.591090612990847,-21.880799472468443,-0.07438026919105141,-1.6403681566363872
647,8.60438951486854,-22.268183019540807,-0.07442675558851708,-1.6375710343401833
648,8.617688416746235,-22.663371637730485,-0.07445063855086989,-1.6337994014698942
649,8.63098731862393,-23.03237676571211,-0.07428499680772004,-1.6260625315626644
650,8.644286220501625,-23.31364000787243,-0.07369378096606805,-1.6091806382577618
651,8.65758512237932,-23.420239415603188,-0.07238832282967508,-1.5760897935635196
652,8.670884024257015,-23.24996618271481,-0.07005876620260548,-1.5188088738166472
653,8.68418292613471,-22.703094577983354,-0.06642298048126691,-1.4300378727785794
654,8.697481828012405,-21.705164669355746,-0.06129094764171178,-1.3051380110253539
655,8.7107807298901,-20.229677766106054,-0.05463481345940136,-1.1440328845926648
656,8.724079631767795,-18.314283960798267,-0.04664676543132308,-0.9524580400905382
657,8.737378533645488,-16.064710469889782,-0.037763334000546475,-0.742055504515143
658,8.750677435523183,-13.64356727862408,-0.028639322569048706,-0.5290818161075647
659,8.763976337400878,-11.245517695316192,-0.020067377660761655,-0.3319037915232716
660,8.777275239278573,-9.064563509797877,-0.012855898815202691,-0.1678510443415776
661,8.790574141156268,-7.261698584272498,-0.0076920106632640175,-0.050220994127483244
662,8.803873043033963,-5.940953643382101,-0.005022294031506063,0.013802624861039819
663,8.817171944911658,-5.139059263620432,-0.0049800406514468,0.023838195713370407
664,8.830470846789353,-4.829761406709102,-0.007375744168582796,-0.01446038483864244
665,8.843769748667048,-4.939784275439755,-0.011751318110944407,-0.09128370692551348
666,8.857068650544742,-5.370803822474037,-0.01748261514364667,-0.19505537824905803
667,8.870367552422437,-6.021144589175017,-0.023903268438223213,-0.31466580362891045
668,8.883666454300132,-6.802115784952503,-0.030418823838671966,-0.4410296409701619
669,8.896965356177827,-7.646334604026553,-0.036585058505498494,-0.5677247931974401
670,8.910264258055522,-8.508170534790898,-0.04213706934955009,-0.6907874322584088
671,8.923563159933217,-9.35870110179627,-0.04697187888734412,-0.8079818596423455
672,8.936862061810912,-10.178656914177555,-0.05110091340144386,-0.917956576195184
673,8.950160963688607,-10.95256333281544,-0.054594710176215235,-1.0196239252260608
674,8.963459865566302,-11.665972532842044,-0.05753906511860431,-1.1119161848988548
675,8.976758767443995,-12.305978267134662,-0.060012153917544914,-1.1938721947418802
676,8.99005766932169,-12.863810463531049,-0.062081129954870536,-1.2648814212307806
677,9.003356571199385,-13.337673778349401,-0.06380928080952566,-1.3248938089526645
678,9.01665547307708,-13.734208370189114,-0.06526339833078877,-1.374474672545654
679,9.029954374954777,-14.06776362081674,-0.06651468660300511,-1.4146900388432395
680,9.04325327683247,-14.357660130103003,-0.06763221360368891,-1.4468922699312634
681,9.056552178710165,-14.62436368528818,-0.06867236968860607,-1.4725050294935733
682,9.06985108058786,-14.88576980651784,-0.06966931910539077,-1.4928809422982574
683,9.083149982465557,-15.15459020522728,-0.07063028121652176,-1.509251130359527
684,9.096448884343248,-15.437318897952528,-0.0715371234820108,-1.5227371900319047
685,9.109747786220945,-15.734689744884218,-0.07235364705019628,-1.5343757901039916
686,9.123046688098638,-16.0431365795867,-0.07303675646583982,-1.54511635035457
687,9.136345589976331,-16.356635113339724,-0.07354928617449492,-1.5557793162260836
688,9.149644491854028,-16.66841363846062,-0.07387218025496194,-1.5669880231430415
689,9.162943393731725,-16.97225054875958,-0.07401375283132368,-1.5790994240460299
690,9.176242295609418,-17.263302616009366,-0.0740139709579148,-1.5921575086499618
691,9.189541197487111,-17.538548658509114,-0.07394229628107557,-1.6058850524585675
692,9.202840099364808,-17.79696899131283,-0.07388865897906305,-1.6197210387469065
693,9.2161390012425,-18.03953240051089,-0.07394844226765558,-1.632903545549719
694,9.229437903120196,-18.268973945411037,-0.07420363335932692,-1.6445880713922394
695,9.242736804997891,-18.48928318743953,-0.07470333880791089,-1.6539792024350748
696,9.256035706875586,-18.704848116638935,-0.07544759051826552,-1.660445444162869
697,9.26933460875328,-18.919332000742223,-0.0763786339951971,-1.6635901810326754
698,9.282633510630976,-19.13453237185254,-0.0773832949678916,-1.6632662930020101
699,9.295932412508671,-19.349565126353124,-0.07830812169530378,-1.6595398892046802
700,9.309231314386366,-19.560651893971603,-0.07898584322050284,-1.652620738275228
701,9.32253021626406,-19.76159190690304,-0.07926813614340363,-1.6427804494379248
702,9.335829118141756,-19.94478190629068,-0.07905712986383609,-1.630277756672621
703,9.34912802001945,-20.102513719081927,-0.07832760661132827,-1.6153069790493546
704,9.362426921897145,-20.228256608975283,-0.0771337152113081,-1.5979804069876529
705,9.37572582377484,-20.317681678692008,-0.07559763573720238,-1.5783459355528755
706,9.389024725652536,-20.369262856444987,-0.07388201404112635,-1.5564292369312795
707,9.40232362753023,-20.384375163174052,-0.07215206529474394,-1.5322809068624408
708,9.415622529407925,-20.36690093288982,-0.07053603937584269,-1.5060083587933595
709,9.42892143128562,-20.32243464322349,-0.06909353658847914,-1.4777794138299958
710,9.442220333163316,-20.257232813571,-0.06779977101314398,-1.4477951410112695
711,9.45551923504101,-20.1770928252676,-0.06655064433144635,-1.4162402816565371
712,9.468818136918705,-20.086381712358534,-0.06518898801933157,-1.3832303223859133
713,9.482117038796398,-19.98747006032233,-0.06354718125918958,-1.3487838696357675
714,9.495415940674093,-19.880818377335604,-0.061496524778665795,-1.312851655263404
715,9.508714842551788,-19.76586841816266,-0.05899087026509051,-1.2754217696808603
716,9.522013744429485,-19.64270062582724,-0.05609282430501495,-1.2366931175822118
717,9.535312646307178,-19.514165841788387,-0.052975835803055774,-1.1972741882890934
718,9.548611548184873,-19.387936054085134,-0.04990273380273121,-1.158336147961187
719,9.561910450062568,-19.277694739987833,-0.04718717450299448,-1.1216393115954215
720,9.575209351940265,-19.202568253503998,-0.045146022275020015,-1.0893643197363057
721,9.588508253817956,-19.18399194919136,-0.04404805408968378,-1.063712590197743
722,9.601807155695653,-19.239630622201403,-0.04406098609274993,-1.046292221270671
723,9.615106057573346,-19.374788547100426,-0.045198920561609866,-1.0373719646489374
724,9.62840495945104,-19.57284950901238,-0.04727743592646052,-1.0351587138754923
725,9.641703861328736,-19.78738746665427,-0.04989081734167054,-1.0353152117309015
726,9.655002763206433,-19.93923953297775,-0.05242962938551113,-1.0309567994327622
727,9.668301665084126,-19.92156384866415,-0.05415208484012531,-1.013318966726463
728,9.68160056696182,-19.614410195997735,-0.05430861236305209,-0.9731528487995295
729,9.694899468839516,-18.907694568132882,-0.052299693353779896,-0.9026943930292387
730,9.70819837071721,-17.72831863543996,-0.04782980859244673,-0.797816531116033
731,9.721497272594904,-16.064624740642156,-0.041013096182682875,-0.659799965514176
732,9.7347961744726,-13.980659461658279,-0.032394191431719205,-0.4961406413322475
733,9.748095076350294,-11.614594360372825,-0.0228702221163899,-0.3200026367121071
734,9.76139397822799,-9.159878192681713,-0.013529985673169294,-0.1482931795130324
735,9.774692880105684,-6.832913772419001,-0.0054524286751796965,0.0012378029218817511
736,9.78799178198338,-4.835293752113999,0.00048202553390024944,0.11315144774430431
737,9.801290683861074,-3.320226923696812,0.0037213084129209366,0.17692099051498192
738,9.81458958573877,-2.3711965093452445,0.0040888973147145714,0.18835622989348838
739,9.827888487616462,-1.9968996135626729,0.0017511714756652586,0.14959521430415756
740,9.841187389494158,-2.141739263666967,-0.0028716011383679296,0.06781690101754803
741,9.854486291371853,-2.707209010369149,-0.00921816827127101,-0.0468537330263292
742,9.867785193249548,-3.577455042058786,-0.01669310253695117,-0.18362964126644912
743,9.881084095127244,-4.642372582085101,-0.024747475054080353,-0.33295453493306615
744,9.894382997004938,-5.8134048365541195,-0.03292563273240394,-0.48761348069487637
745,9.907681898882633,-7.029983028034835,-0.04088071491449266,-0.6429424644218981
746,9.920980800760328,-8.257355922389308,-0.048367665536020045,-0.7962883705439531
747,9.934279702638024,-9.478620427196857,-0.05522405345650034,-0.9460588510349542
748,9.947578604515716,-10.684659074316619,-0.06134747767859289,-1.0907598607387148
749,9.96087750639341,-11.865428885636023,-0.06667577803548205,-1.2283482975483537
750,9.974176408271106,-13.00495369313027,-0.07117394382789657,-1.3560706996153247
751,9.9874753101488,-14.080880350252095,-0.07482942366300549,-1.4707769140374731
752,10.000774212026496,-15.067975542729878,-0.07765492782731807,-1.5695458424716973
753,10.01407311390419,-15.943813717406908,-0.07969499546012698,-1.6503768190783665
754,10.027372015781886,-16.694409031135503,-0.08103080179670785,-1.712700562999852
755,10.04067091765958,-17.317793636018322,-0.08177814639379796,-1.7575403881350473
756,10.053969819537276,-17.824425941071546,-0.08207638109553844,-1.787278829575634
757,10.06726872141497,-18.234484998371574,-0.08206993254254517,-1.8051149782237337
758,10.080567623292664,-18.573134451690116,-0.08188723933619453,-1.8143910698852994
759,10.09386652517036,-18.86537531603024,-0.08162310066066147,-1.8179947292321346
760,10.107165427048054,-19.132030353372887,-0.08132944823409742,-1.8180010691285768
761,10.120464328925747,-19.387835032774145,-0.08101709270793853,-1.8156264308551322
762,10.133763230803444,-19.641819769638598,-0.08066800523982844,-1.8114581757594435
763,10.14706213268114,-19.89943501908985,-0.08025493655206495,-1.8058389417054894
764,10.160361034558834,-20.16538502507692,-0.0797631466950643,-1.799243938765302
765,10.173659936436527,-20.44597176391115,-0.07920806302220283,-1.7925033157567767
766,10.186958838314224,-20.749894204136474,-0.07864303323949796,-1.7867785231695306
767,10.200257740191915,-21.08683704345527,-0.07815303642819273,-1.7832801518279962
768,10.213556642069612,-21.463732743425165,-0.07783306208118344,-1.7827893839069813
769,10.226855543947307,-21.879201472098572,-0.0777535123544168,-1.785096566042681
770,10.240154445825002,-22.31728382839991,-0.07791899819442406,-1.7884927486293043
771,10.253453347702695,-22.74209918655913,-0.07823066708570676,-1.7894501992206067
772,10.266752249580392,-23.095371072084482,-0.07846464575032115,-1.7826149401870781
773,10.280051151458087,-23.29868191545656,-0.0782787758188276,-1.7612076592955406
774,10.293350053335782,-23.26165870055015,-0.07725521052873643,-1.7178767068130039
775,10.306648955213475,-22.895971468607794,-0.07497752502647526,-1.64595635742275
776,10.31994785709117,-22.13323714279739,-0.07112968831098034,-1.540960289334353
777,10.333246758968864,-20.943162743403366,-0.06559421843770259,-1.4020153630011731
778,10.34654566084656,-19.347222093288586,-0.05852217231432527,-1.2328644421603134
779,10.359844562724255,-17.423442911689424,-0.05035105778461185,-1.0420890714422977
780,10.37314346460195,-15.29970475920464,-0.04175843009945757,-0.842348294893857
781,10.386442366479644,-13.135947164745119,-0.0335560147909786,-0.6486782446237677
782,10.39974126835734,-11.098945370558173,-0.026546601908216092,-0.47617728498055867
783,10.413040170235035,-9.335668411308147,-0.021377973453222704,-0.3376122695276301
784,10.42633907211273,-7.9517663093508855,-0.0184304624531284,-0.24153403120912956
785,10.439637973990424,-7.000174554669344,-0.01776615773350911,-0.19135175461565615
786,10.45293687586812,-6.4817093999681035,-0.019150608486142237,-0.18552892505460755
787,10.466235777745814,-6.355977411070844,-0.022137368363346736,-0.21873034256895205
788,10.479534679623509,-6.558184611495814,-0.02618832990699912,-0.2834902076463418
789,10.492833581501204,-7.016384559350465,-0.03079419798497277,-0.37187444042025164
790,10.5061324833789,-7.664540891743057,-0.03556245947800879,-0.47669859213976445
791,10.519431385256594,-8.448977823099549,-0.040253584507748554,-0.5920853462845066
792,10.532730287134289,-9.328399348313605,-0.04476490333549833,-0.7134052856842199
793,10.546029189011984,-10.269716535554068,-0.04907867685496341,-0.8368423994541552
794,10.559328090889675,-11.242826585322346,-0.05320018703666095,-0.9589011792735728
795,10.572626992767372,-12.217130583257301,-0.05711040815278586,-1.0761192392603216
796,10.585925894645069,-13.16129025054075,-0.060747603104862255,-1.185108592137038
797,10.599224796522762,-14.046097625560632,-0.0640182163077278,-1.2828846172248274
798,10.612523698400455,-14.848996858635076,-0.06682593910925498,-1.3673183270516043
799,10.625822600278152,-15.558213967797816,-0.06910313389878392,-1.4375065345587872
800,10.639121502155849,-16.174749511747244,-0.07083157122175253,-1.493901691252843
801,10.652420404033542,-16.711439873673193,-0.07204690040115351,-1.5381479278137988
802,10.665719305911235,-17.18942588750598,-0.07282915168583436,-1.5726808919100252
803,10.67901820778893,-17.63320193852596,-0.07328630714491742,-1.6002195714422704
804,10.692317109666623,-18.065676472935852,-0.07353823745636201,-1.623287598715336
805,10.70561601154432,-18.504375877543556,-0.07370510776936069,-1.6438605491974496
806,10.718914913422015,-18.959322911212773,-0.0739001178508576,-1.663175413354523
807,10.73221381529971,-19.432538824746768,-0.07422350171678403,-1.6816890120229022
808,10.745512717177403,-19.918772673535738,-0.07475425326390786,-1.699148053808826
809,10.7588116190551,-20.406995506973058,-0.07553788182114618,-1.714732120028167
810,10.772110520932795,-20.88232220961775,-0.07657160355253419,-1.72724160812688
811,10.78540942281049,-21.32820730549356,-0.07779149116974513,-1.7353159368357498
812,10.798708324688183,-21.728885586045788,-0.07906803990016519,-1.7376758228125246
813,10.812007226565878,-22.072008088073655,-0.08021627705117323,-1.7333802764634216
814,10.825306128443572,-22.35122258726069,-0.08102326265878097,-1.7220698911078474
815,10.838605030321268,-22.568119158742974,-0.08128994040388018,-1.7041382320280603
816,10.851903932198963,-22.73266714046153,-0.0808775902188548,-1.680750042125833
817,10.865202834076658,-22.86122417857179,-0.07974442810544728,-1.6536299080594152
818,10.878501735954352,-22.971558437321047,-0.07795779511972646,-1.6245892113623661
819,10.891800637832048,-23.07510659288396,-0.07567293230445692,-1.5948360615555697
820,10.905099539709743,-23.167749307519486,-0.07307948049229045,-1.5642021893248088
821,10.918398441587438,-23.221446899842732,-0.07032866799237186,-1.5304971968191756
822,10.931697343465132,-23.17976534093128,-0.06746368641785376,-1.489237989849358
823,10.944996245342828,-22.96022292499595,-0.064379004216899,-1.4339735623931418
824,10.958295147220522,-22.465198143028335,-0.06082871167301033,-1.357313906153751
825,10.971594049098217,-21.600887060794996,-0.056489782781442024,-1.2525821121985024
826,10.984892950975912,-20.301000674354658,-0.051067467934378316,-1.1157840794245453
827,10.998191852853608,-18.54949529690699,-0.04441365384756321,-0.9474069930970933
828,11.011490754731302,-16.39568263503101,-0.036621587863494544,-0.7534982889176473
829,11.024789656608997,-13.956255218737414,-0.028065319151342014,-0.5455928024702124
830,11.038088558486692,-11.402011067626422,-0.019368135259209465,-0.3393385803444775
831,11.051387460364383,-8.931432702315838,-0.011305430267296022,-0.15204442589335226
832,11.06468636224208,-6.7372738815866375,-0.0046663279499490565,0.00028940340405491857
833,11.077985264119777,-4.97448196759266,-0.00010898115249083134,0.10571604682679935
834,11.09128416599747,-3.737349441822528,0.0019555621952802053,0.1581710118303722
835,11.104583067875163,-3.050938157046478,0.0014252840741317404,0.1579603900498419
836,11.11788196975286,-2.8775953268258765,-0.001495886435276929,0.11087545951360843
837,11.131180871630557,-3.135217658800661,-0.006360711789192774,0.026286260715942075
838,11.14447977350825,-3.7211207977963903,-0.01258161672327424,-0.08517877754504788
839,11.157778675385943,-4.534681094456806,-0.019546613248276983,-0.21371113755896548
840,11.171077577263638,-5.493320907914468,-0.02672006704917342,-0.35165942892276947
841,11.184376479141331,-6.5392016078173,-0.033706783911777505,-0.4939183064668701
842,11.197675381019028,-7.637101267325576,-0.04026981609858246,-0.6374770972856704
843,11.210974282896723,-8.766390385742744,-0.04630628207420103,-0.7804699278481179
844,11.224273184774418,-9.911178974987063,-0.05179734239835145,-0.9211604871583932
845,11.237572086652111,-11.052477030180246,-0.05675444743074299,-1.057238146930318
846,11.250870988529808,-12.164865804649454,-0.06118174984780481,-1.185637476656762
847,11.264169890407503,-13.218248785253119,-0.06506488843145761,-1.3028845455486069
848,11.277468792285198,-14.1833838312124,-0.06838342351607939,-1.405789961431713
849,11.290767694162891,-15.038690275004393,-0.07113403158632024,-1.49220586830376
850,11.304066596040586,-15.775633130443628,-0.07334870035177632,-1.5615678815607825
851,11.31736549791828,-16.400778868483307,-0.0750972075935365,-1.6150410852105692
852,11.330664399795976,-16.933986551123105,-0.07647269360680486,-1.6552374978790545
853,11.343963301673671,-17.403554860499177,-0.07756793150928004,-1.6856132577369063
854,11.357262203551366,-17.8399885801373,-0.07845385044457732,-1.7097395183395678
855,11.37056110542906,-18.27016736885304,-0.07916981371639076,-1.730650701680813
856,11.383860007306756,-18.713214281091876,-0.07972892334380657,-1.750416985188416
857,11.397158909184451,-19.178598491311664,-0.08013460926035038,-1.769996569824181
858,11.410457811062145,-19.666312101124632,-0.08040010016510726,-1.7893357415036437
859,11.42375671293984,-20.16855264755989,-0.08056169841837846,-1.807630183088875
860,11.437055614817536,-20.67226285267935,-0.08067992774392634,-1.8236501294681622
861,11.45035451669523,-21.162027459144245,-0.08082798647251908,-1.8360562533498799
862,11.463653418572925,-21.62303064925715,-0.08107215694980353,-1.8436708914949254
863,11.47695232045062,-22.043866215687206,-0.0814516694178021,-1.8456957898048179
864,11.490251222328316,-22.418877876715754,-0.0819648990003574,-1.841867754790965
865,11.50355012420601,-22.749443353785047,-0.08256529914592932,-1.8325208295366306
866,11.516849026083705,-23.043396849567774,-0.08316610985578667,-1.818499343541506
867,11.5301479279614,-23.31185250318848,-0.08364975053328733,-1.8008676118866065
868,11.543446829839093,-23.563201899560113,-0.08387703093094737,-1.7804049614545343
869,11.556745731716788,-23.794983902488298,-0.08369272438956901,-1.7569535104512477
870,11.570044633594485,-23.9854399222819,-0.0829268283609583,-1.728776387070855
871,11.583343535472178,-24.087500235921894,-0.0813941745707177,-1.6921526894706327
872,11.596642437349873,-24.02825862870617,-0.07889809446318483,-1.6414490550724858
873,11.609941339227568,-23.71629865652553,-0.07524527678347735,-1.5698394317169007
874,11.623240241105265,-23.057390823488078,-0.07027714557243028,-1.470685946177385
875,11.636539142982958,-21.97638650565676,-0.06391724669106513,-1.3393706549632147
876,11.649838044860653,-20.44040769102222,-0.05622560267923623,-1.175148758116875
877,11.663136946738346,-18.476792062956008,-0.04744338385703149,-0.9824723162992206
878,11.67643584861604,-16.179646279293934,-0.03800884283051627,-0.771287280519692
879,11.689734750493736,-13.701532122405464,-0.028530783378317198,-0.5560518795141906
880,11.703033652371431,-11.231045621110663,-0.019717812960814058,-0.35359469999743576
881,11.716332554249126,-8.96137816860345,-0.012275786114153087,-0.18029677297798025
882,11.72963145612682,-7.057762492434576,-0.00679654799670069,-0.04930558286695293
883,11.742930358004516,-5.631976170552913,-0.0036644132606412777,0.031514553146609066
884,11.756229259882211,-4.729781579643099,-0.0030021390740813184,0.060416883222789375
885,11.769528161759906,-4.333243171453125,-0.004667666939328262,0.04127381364490287
886,11.7828270636376,-4.375674316123048,-0.008300058275826442,-0.01800007945769732
887,11.796125965515294,-4.763836608378597,-0.013401253235541298,-0.1075817219867103
888,11.80942486739299,-5.400769530625376,-0.019432387791685008,-0.2178153758715013
889,11.822723769270684,-6.2034322280144885,-0.02590133276890787,-0.34071157595130536
890,11.83602267114838,-7.111716922509364,-0.03242234679804633,-0.4705889213356059
891,11.849321573026074,-8.088427982047223,-0.03873794601520032,-0.6038728738392708
892,11.86262047490377,-9.11249232119844,-0.04470448423512205,-0.7383158646123182
893,11.875919376781464,-10.169216425364656,-0.05025311489441965,-0.8720342308219394
894,11.88921827865916,-11.241552101637533,-0.05534377463113845,-1.0027448289294223
895,11.902517180536853,-12.305269107255453,-0.059929790275391547,-1.127452829147837
896,11.915816082414548,-13.329162003700251,-0.06394470678206672,-1.2426498018958978
897,11.929114984292244,-14.279563785478288,-0.06731315545106764,-1.3448953569052486
898,11.942413886169938,-15.12707524389703,-0.06997785067027067,-1.431534695181556
899,11.955712788047633,-15.852925772623731,-0.07192901091550555,-1.5012821086445929
900,11.969011689925328,-16.45282297541194,-0.07322272295794185,-1.5544748491826437
901,11.982310591803024,-16.937251512852587,-0.07398028131814334,-1.5929357355110898
902,11.995609493680718,-17.328455300353937,-0.07436839181192569,-1.6195192576859496
903,12.008908395558413,-17.655296118689932,-0.07456686233603185,-1.6375031001110836
904,12.022207297436106,-17.94755209332287,-0.07473371254443438,-1.6500011667058332
905,12.0355061993138,-18.231018884575384,-0.07497712554060447,-1.6595267572987802
906,12.048805101191496,-18.524240795480374,-0.075340499636721,-1.6677606994919536
907,12.06210400306919,-18.83712060398625,-0.07580276013458535,-1.6755156167450052
908,12.075402904946886,-19.171237144119647,-0.07629243669457962,-1.6828531755911287
909,12.08870180682458,-19.521492517434936,-0.07671146366047092,-1.689303319936381
910,12.102000708702276,-19.878659681834996,-0.07696331868997058,-1.6941388624953346
911,12.11529961057997,-20.23241157165808,-0.07697982956428177,-1.6966632195516083
912,12.128598512457666,-20.574404532689773,-0.07674152645443946,-1.6964692909637011
913,12.14189741433536,-20.900917426156255,-0.07628753128183381,-1.693624315475252
914,12.155196316213054,-21.21442195956508,-0.07571239755768364,-1.688731597967102
915,12.168495218090747,-21.523360917042904,-0.07514892156320228,-1.6828208882238425
916,12.181794119968444,-21.839484386975414,-0.07473784489813623,-1.6770346276194947
917,12.19509302184614,-22.17248389199572,-0.07458776920971193,-1.6721164488028328
918,12.208391923723834,-22.522413188536778,-0.07473149313334967,-1.667771043580209
919,12.221690825601527,-22.871363461302483,-0.07508783805558122,-1.6620365951081664
920,12.234989727479224,-23.176774859235422,-0.07543983540337629,-1.6508680260729838
921,12.24828862935692,-23.369229305513098,-0.0754397062265091,-1.6281451540986074
922,12.261587531234614,-23.35721562420637,-0.07464744564058418,-1.586273210975862
923,12.274886433112307,-23.039983827922576,-0.07260284271303837,-1.5174234598297922
924,12.288185334990002,-22.327331607399827,-0.0689214303622493,-1.4152784852002964
925,12.301484236867696,-21.162551248625427,-0.06339559938420278,-1.276941495815845
926,12.314783138745392,-19.5427421265077,-0.05607633391529399,-1.1045147603527088
927,12.328082040623087,-17.53024756975231,-0.047311811706243205,-0.905830364979991
928,12.341380942500782,-15.250654665871396,-0.03772752460175803,-0.6939743577723969
929,12.354679844378476,-12.87632444141449,-0.028146654464591185,-0.485560215218051
930,12.367978746256172,-10.598673497278787,-0.019464770318092604,-0.2980812654829198
931,12.381277648133867,-8.595865544609804,-0.01250461269219756,-0.14696690638191398
932,12.39457655001156,-7.003918873081609,-0.00788161402082118,-0.0430695489660567
933,12.407875451889256,-5.898054016686409,-0.0059082685887301345,0.008819844980080663
934,12.42117435376695,-5.287931090253043,-0.006556825956327346,0.01013670484752614
935,12.434473255644646,-5.126451188815148,-0.009487079157983117,-0.032531762418047845
936,12.44777215752234,-5.328325401207393,-0.01413153982523325,-0.1093671810063694
937,12.461071059400036,-5.792603887506346,-0.019816910004821837,-0.20952167549249326
938,12.47436996127773,-6.42319571702711,-0.025892072699832274,-0.32303793639225187
939,12.487668863155426,-7.142916707523629,-0.031832118445034405,-0.44208223290236803
940,12.50096776503312,-7.8991422262142255,-0.037296273578352156,-0.5613387125393969
941,12.514266666910814,-8.661831220057614,-0.04213255783494031,-0.6776796686441423
942,12.527565568788509,-9.416680983539026,-0.04633825138244842,-0.7894189606763771
943,12.540864470666204,-10.156949853090948,-0.04999694905824672,-0.8955170422269242
944,12.5541633725439,-10.877007126171634,-0.053216363132463695,-0.9950315131144158
945,12.567462274421594,-11.569319715454533,-0.05608582335795444,-1.0869444666290795
946,12.580761176299289,-12.224963095670384,-0.058661540219817634,-1.1703216569180444
947,12.594060078176984,-12.836430266157546,-0.06097581398155964,-1.244635762991738
948,12.60735898005468,-13.40089114131763,-0.06305799367852909,-1.3100517470842343
949,12.620657881932374,-13.922222845050667,-0.06495279310741767,-1.3675223962753809
950,12.633956783810069,-14.410897482210409,-0.06672554233052877,-1.41864219195699
951,12.647255685687762,-14.881793904031992,-0.06845163842840418,-1.4653107060867376
952,12.660554587565455,-15.350783425242291,-0.07019519076240273,-1.5093226643593471
953,12.673853489443152,-15.831258455079407,-0.0719864144601791,-1.5520118250115271
954,12.687152391320849,-16.331593533083854,-0.0738072774830273,-1.594036877529958
955,12.700451293198542,-16.85402708158709,-0.07559100410641197,-1.6353356910935237
956,12.713750195076235,-17.39490260177841,-0.07723554334949344,-1.6752199536583894
957,12.727049096953932,-17.945840028885307,-0.07862649223721595,-1.7125553902150368
958,12.740347998831629,-18.495314226658458,-0.07966273727395094,-1.7459746728999457
959,12.75364690070932,-19.030245570918368,-0.0802783976620961,-1.7740874309380237
960,12.766945802587015,-19.537424261972156,-0.08045668530325202,-1.7956683857733646
961,12.78024470446471,-20.00476586153569,-0.08023391175882685,-1.809812633904187
962,12.793543606342404,-20.422456569884794,-0.07969416265879493,-1.8160482172403882
963,12.8068425082201,-20.783985221764762,-0.07895660822708299,-1.8143957811287919
964,12.820141410097795,-21.086926192111857,-0.07815791277531774,-1.805366968685925
965,12.83344031197549,-21.33323146156578,-0.07743204585563015,-1.7898987301162903
966,12.846739213853184,-21.528820712250706,-0.07688958764851542,-1.7692308962557848
967,12.86003811573088,-21.682475933584517,-0.07659890129538878,-1.7447487013731064
968,12.873337017608575,-21.804374504129665,-0.07657230896948318,-1.7178258290779775
969,12.886635919486269,-21.90483412290463,-0.07676093840932344,-1.6897081895018653
970,12.899934821363964,-21.993786101133065,-0.07706119993785343,-1.661465743982987
971,12.91323372324166,-22.081072774846913,-0.07733339160783578,-1.6340082072830886
972,12.926532625119354,-22.17703133361716,-0.0774291744126854,-1.6081199349559083
973,12.939831526997049,-22.292292413188708,-0.077220901982235,-1.5844373094080175
974,12.953130428874744,-22.435607630712855,-0.07662355754651674,-1.5632872620228375
975,12.96642933075244,-22.60900662106304,-0.07560058127761789,-1.5443411874163877
976,12.979728232630134,-22.800636905826305,-0.0741488264963432,-1.5261157709054298
977,12.993027134507829,-22.97699881355477,-0.07226501933718858,-1.5054555172702868
978,13.006326036385522,-23.07749262074409,-0.06990470861591096,-1.4772253685009478
979,13.019624938263217,-23.01467323323198,-0.0669514177717303,-1.4344759268302347
980,13.032923840140912,-22.68286828234656,-0.06321455727219884,-1.3692744308747262
981,13.046222742018609,-21.975724056888225,-0.058467233958899086,-1.2742118733766474
982,13.059521643896302,-20.810231586809493,-0.0525206862058884,-1.1443442320600161
983,13.072820545773997,-19.151826529934755,-0.045315902222368525,-0.9790945328148579
984,13.086119447651692,-17.033457454908792,-0.03700213929898353,-0.7835355823246407
985,13.099418349529389,-14.562020907172274,-0.027972108688348436,-0.5685592228418695
986,13.112717251407082,-11.908475717256717,-0.018835596984567826,-0.3497142929752592
987,13.126016153284777,-9.282521380271998,-0.010333039274777392,-0.14488052836827703
988,13.13931505516247,-6.897431874011925,-0.003210376357395318,0.028694051769625882
989,13.152613957040163,-4.9337651206747895,0.001911181224116776,0.1572608019813937
990,13.16591285891786,-3.5110503407787705,0.0046363629467790065,0.23263801835340994
991,13.179211760795557,-2.674064953971416,0.004844632827722077,0.2530165918933631
992,13.19251066267325,-2.39588733680466,0.002680366918291767,0.22241251972622042
993,13.205809564550943,-2.5951281863357223,-0.0015048830421907197,0.14904683950638078
994,13.21910846642864,-3.161185781335873,-0.007236527542884454,0.043190499920241904
995,13.232407368306337,-3.9800582173137276,-0.014003784889633879,-0.08491562172606747
996,13.245706270184028,-4.954314356616339,-0.021330599229002472,-0.2265702719322597
997,13.259005172061723,-6.013575362469832,-0.02882046352138675,-0.3752989340871264
998,13.272304073939418,-7.115142788290102,-0.036173171386958955,-0.526743793723023
999,13.285602975817111,-8.237146761938742,-0.04317772618220786,-0.6780035715287371
1000,13.298901877694808,-9.368126173868731,-0.049689931273410815,-0.8267814742128823
1001,13.312200779572503,-10.497134677014675,-0.05560579561140026,-0.970687532887799
1002,13.325499681450198,-11.60749727948416,-0.06084200405630558,-1.1069275357580703
1003,13.338798583327891,-12.675641959904228,-0.06533113605701923,-1.232439090063576
1004,13.352097485205588,-13.674543384333452,-0.06903231949274345,-1.344364450967167
1005,13.36539638708328,-14.579817934911713,-0.07195020089440492,-1.440637174250599
1006,13.378695288960976,-15.375850871673507,-0.07415033602111931,-1.5204410064036857
1007,13.391994190838671,-16.059665245547553,-0.07575999743625093,-1.5843722712941437
1008,13.405293092716366,-16.64133156726815,-0.07694967337387747,-1.6342625081940656
1009,13.41859199459406,-17.141068828582508,-0.07789913740931033,-1.6727410967336216
1010,13.431890896471756,-17.584261864174163,-0.0787588117922126,-1.7026923279484585
1011,13.445189798349451,-17.996069743991548,-0.079619221672605,-1.726768538456198
1012,13.458488700227146,-18.397086654504722,-0.08049805511598314,-1.74707020660474
1013,13.47178760210484,-18.80087146686927,-0.08134757091238298,-1.7650251828623003
1014,13.485086503982536,-19.213433016391246,-0.08207805142202586,-1.78142813611947
1015,13.49838540586023,-19.634239299298894,-0.08258864470449888,-1.7965646274769054
1016,13.511684307737925,-20.05813992239306,-0.0827966377538333,-1.8103500806658241
1017,13.52498320961562,-20.477695786900284,-0.08265921173845896,-1.8224502282206434
1018,13.538282111493317,-20.88561143094472,-0.08218578731620577,-1.8323908141637582
1019,13.55158101337101,-21.27705326540618,-0.08144173513078223,-1.8396833919136097
1020,13.564879915248705,-21.651499948390054,-0.0805443111717544,-1.8439760256492093
1021,13.5781788171264,-22.01348166899788,-0.07964991686222088,-1.8451897090016272
1022,13.591477719004097,-22.371363242036413,-0.07893032974032307,-1.8435523214726333
1023,13.60477662088179,-22.73349024171516,-0.07853649962736341,-1.8394291030492678
1024,13.618075522759485,-23.101690655804468,-0.0785524530939655,-1.832896249381988
1025,13.631374424637178,-23.463202768253225,-0.0789474760713653,-1.8231082156725216
1026,13.644673326514871,-23.783245351565007,-0.07953961922693119,-1.8076360617976857
1027,13.657972228392568,-24.00119608196878,-0.07998537074058655,-1.7820522391888178
1028,13.671271130270265,-24.033254492283753,-0.07980760297119739,-1.740054465516666
1029,13.684570032147958,-23.783265526693665,-0.07846624929263174,-1.6743233882878696
1030,13.697868934025651,-23.16113557855149,-0.07546458880357816,-1.578097904271535
1031,13.711167835903348,-22.105514206840166,-0.07047127482803725,-1.4471804386151628
1032,13.724466737781045,-20.60509114679477,-0.06342873196302609,-1.2818486232620518
1033,13.737765639658736,-18.712032589400515,-0.05461682337211659,-1.0880575024232242
1034,13.751064541536431,-16.542429040080638,-0.0446490825041284,-0.8774362503360771
1035,13.764363443414126,-14.262002120328988,-0.03439562294954281,-0.6659026206695108
1036,13.77766234529182,-12.059666680383561,-0.024846656407158062,-0.4711359488862184
1037,13.790961247169516,-10.115297011091762,-0.016946582369645347,-0.30951390531078826
1038,13.804260149047211,-8.569803842363651,-0.011435805751484184,-0.19329294546950945
1039,13.817559050924906,-7.5047909615339385,-0.008734374886866798,-0.12873628876317814
1040,13.8308579528026,-6.936041233033394,-0.008890296544102333,-0.11560260531538619
1041,13.844156854680296,-6.821042375545993,-0.01159986558593145,-0.1480132365881781
1042,13.85745575655799,-7.077062960616356,-0.016291423091467395,-0.21634771981134446
1043,13.870754658435684,-7.60398400717999,-0.02225071547539627,-0.3095826624100914
1044,13.88405356031338,-8.30566595298108,-0.028757932771885823,-0.4174411118581794
1045,13.897352462191074,-9.104966762050088,-0.03520547078080798,-0.5318536440236721
1046,13.91065136406877,-9.950020796737263,-0.041172153433036415,-0.6474925731734514
1047,13.923950265946464,-10.812168867539782,-0.046442562847928595,-0.7614379428438545
1048,13.93724916782416,-11.678149618132581,-0.050975555082006456,-0.8722743718697944
1049,13.950548069701854,-12.540269516960873,-0.054839320077713215,-0.9790340585814366
1050,13.96384697157955,-13.388140439879331,-0.05813756152857045,-1.0803735251218114
1051,13.977145873457244,-14.204462139908907,-0.06095064715207183,-1.174229096519576
1052,13.990444775334938,-14.965695429627855,-0.06330756572412284,-1.2580002243331514
1053,14.003743677212633,-15.646834090026799,-0.0651922147472835,-1.32912995490614
1054,14.017042579090328,-16.228282566077784,-0.06657534310770799,-1.3858413449358316
1055,14.030341480968024,-16.70235858402856,-0.06745559700640588,-1.4277684497335865
1056,14.043640382845718,-17.077205178367485,-0.06789184110659448,-1.4562771040184774
1057,14.056939284723413,-17.37672576980802,-0.06801376167442867,-1.4743688354980244
1058,14.070238186601108,-17.636233020374572,-0.06800605237503726,-1.486164719607682
1059,14.083537088478804,-17.894531610415964,-0.06806996266634832,-1.4960535392657135
1060,14.096835990356496,-18.183960077115042,-0.06837221006787932,-1.5076560993206316
1061,14.110134892234193,-18.52043885475757,-0.06899424424942485,-1.5228079864491713
1062,14.123433794111886,-18.895794059699373,-0.06989484513891503,-1.5407937655425301
1063,14.13673269598958,-19.274496009410626,-0.07089676605233318,-1.5580618215981987
1064,14.150031597867276,-19.596368015562298,-0.07170412866922055,-1.5685893357703657
1065,14.163330499744973,-19.78571970903894,-0.0719516815217805,-1.564938745130253
1066,14.176629401622666,-19.76583505794254,-0.07127999294619075,-1.5398647943093782
1067,14.18992830350036,-19.476127764508743,-0.06942299163338493,-1.488143365213249
1068,14.203227205378056,-18.88807848079452,-0.06628791984982856,-1.4081696882534651
1069,14.216526107255753,-18.015807002418104,-0.06200545945435589,-1.302876142044364
1070,14.229825009133444,-16.918099866333034,-0.056931986186246834,-1.1796701917899457
1071,14.24312391101114,-15.690793806307447,-0.051597233324211914,-1.049355668787238
1072,14.256422812888834,-14.451043979370226,-0.04660664379140745,-0.9242914976055255
1073,14.26972171476653,-13.31731975754563,-0.04252290167223227,-0.8162593302492935
1074,14.283020616644224,-12.390128922474137,-0.039759145157317606,-0.7345768828369291
1075,14.29631951852192,-11.738022762029317,-0.038513040917411076,-0.6848855492240854
1076,14.309618420399614,-11.391549099252606,-0.03875688608751813,-0.6688043543688723
1077,14.32291732227731,-11.345236972988884,-0.04027970111087347,-0.6843702570332881
1078,14.336216224155004,-11.565408356180566,-0.042760799523475834,-0.7269782150304656
1079,14.349515126032696,-12.000435933944994,-0.045847200077011256,-0.7904613119534251
1080,14.362814027910392,-12.590300540274827,-0.04921171404217326,-0.8680202337825418
1081,14.376112929788087,-13.273626510404613,-0.05258143974310059,-0.9528707698991679
1082,14.389411831665782,-13.9920344926056,-0.05574091174000359,-1.0386424446880311
1083,14.402710733543476,-14.692851700704308,-0.05852341822998891,-1.1196553014568296
1084,14.416009635421172,-15.331505323414543,-0.060804582478653314,-1.1911964922103353
1085,14.429308537298867,-15.874362254742929,-0.06250557066985428,-1.249840230236414
1086,14.442607439176562,-16.301838500215993,-0.0636040552315908,-1.2937623017816247
1087,14.455906341054256,-16.6108511110192,-0.06414457770375452,-1.3229467685777758
1088,14.46920524293195,-16.815482786671065,-0.06423911692000911,-1.3391884177550486
1089,14.482504144809646,-16.945089007979988,-0.06405295052654605,-1.3458447482170506
1090,14.49580304668734,-17.039742137435695,-0.06377727537142942,-1.3473517455304207
1091,14.509101948565036,-17.143544848439678,-0.06359506001119222,-1.3485595283010503
1092,14.52240085044273,-17.296741112579603,-0.0636481855617035,-1.353959552338166
1093,14.535699752320426,-17.527685101970675,-0.06401214774600418,-1.3668774868243918
1094,14.54899865419812,-17.845716616897644,-0.06468111285066863,-1.3887146507093755
1095,14.562297556075816,-18.235976336959595,-0.06556309807073891,-1.4183457163674393
1096,14.57559645795351,-18.657226153857714,-0.066484006862762,-1.451812697473621
1097,14.588895359831204,-19.04373109521522,-0.06720036732714915,-1.4824702609900728
1098,14.6021942617089,-19.31201049356134,-0.06742262242367296,-1.5017044795371455
1099,14.615493163586594,-19.372571386027822,-0.06685160979291734,-1.500245777337282
1100,14.628792065464287,-19.145544146737137,-0.06522869363415368,-1.4699341396012815
1101,14.642090967341984,-18.577688185652367,-0.06239462457680854,-1.405614881556486
1102,14.65538986921968,-17.65705916944443,-0.058345413475550244,-1.3067183090247483
1103,14.668688771097374,-16.421361988811412,-0.053268724634729266,-1.1780755920022108
1104,14.681987672975067,-14.957052150556002,-0.0475450535744621,-1.0296746615156593
1105,14.695286574852764,-13.388466614186164,-0.04170581258278572,-0.875329104013345
1106,14.708585476730455,-11.858974395338942,-0.036353401338322454,-0.7305299959128709
1107,14.721884378608152,-10.508354128078384,-0.03206112766904865,-0.6099683487044709
1108,14.735183280485847,-9.451506585990703,-0.029277571863344263,-0.5252788094300815
1109,14.748482182363542,-8.762921774397844,-0.028257624828732005,-0.48345314326762656
1110,14.761781084241235,-8.469425046187801,-0.02903265465976572,-0.48615974648289806
1111,14.775079986118932,-8.551432322414385,-0.03142025971309326,-0.5299708503008124
1112,14.788378887996627,-8.951071203268139,-0.035065223111336696,-0.607318955662282
1113,14.801677789874322,-9.584554301182482,-0.03950007984614579,-0.7079142217941468
1114,14.814976691752015,-10.3561433312066,-0.04421490879188458,-0.8203469040027674
1115,14.82827559362971,-11.171586613827536,-0.04872826275086524,-0.9336395260972677
1116,14.841574495507404,-11.9496051655088,-0.05265188971473424,-1.038566655290819
1117,14.8548733973851,-12.630520533966758,-0.05574090213389238,-1.128606373405403
1118,14.868172299262795,-13.181388848091055,-0.05792043345417455,-1.2004285276941395
1119,14.88147120114049,-13.597186726892318,-0.059282078804997744,-1.2538755971504871
1120,14.894770103018184,-13.897916321020922,-0.06004931175396166,-1.2914642696022511
1121,14.90806900489588,-14.122072848570612,-0.06051888371967179,-1.3175231555840756
1122,14.921367906773575,-14.317642855951666,-0.060991798375281396,-1.3371576970113794
1123,14.93466680865127,-14.53239832712968,-0.06171011288462159,-1.355264122808358
1124,14.947965710528964,-14.805433683463225,-0.06281363631417608,-1.3757818624944038
1125,14.96126461240666,-15.161530053911278,-0.06432458228701994,-1.401287730178078
1126,14.974563514284354,-15.609128861090312,-0.06616059327019654,-1.4329292187730036
1127,14.987862416162049,-16.141742855839034,-0.06816970263039702,-1.47060867751346
1128,15.001161318039744,-16.741853491462653,-0.07017650372067273,-1.5132917577132023
1129,15.01446021991744,-17.385952556047027,-0.07202769155840394,-1.559325119195532
1130,15.027759121795134,-18.049415467303806,-0.07362683633097962,-1.606692781776293
1131,15.041058023672829,-18.710232450603655,-0.07495182871292641,-1.6531936436603094
1132,15.054356925550524,-19.351108480185076,-0.07605293187535535,-1.6965653431572454
1133,15.06765582742822,-19.95992571132821,-0.07703382903717512,-1.7346006600337032
1134,15.080954729305912,-20.52893215155733,-0.07802148371218241,-1.7652970073693441
1135,15.094253631183609,-21.05320896220176,-0.07913222679486483,-1.7870488169666605
1136,15.107552533061302,-21.528968323593038,-0.08044104036735436,-1.7988490641205839
1137,15.120851434938997,-21.95210723886179,-0.08195910003554051,-1.8004328193272008
1138,15.134150336816692,-22.31728971546802,-0.08362231524483568,-1.792295322505668
1139,15.147449238694389,-22.617721086518813,-0.08529177483352299,-1.7755557254524943
1140,15.160748140572082,-22.84571577892694,-0.08676598276230253,-1.7516977319803098
1141,15.174047042449777,-22.99409761635116,-0.08780428884350669,-1.7222693260074164
1142,15.187345944327472,-23.05836350918578,-0.08816039233051025,-1.6886415345548385
1143,15.200644846205163,-23.039361488526353,-0.08762356915537423,-1.6519044394284128
1144,15.21394374808286,-22.945971963845043,-0.08606289022158037,-1.6129261540764275
1145,15.227242649960557,-22.796957856321814,-0.08346634639590686,-1.572532834842497
1146,15.24054155183825,-22.620867819313723,-0.0799637671759846,-1.5317038431407695
1147,15.253840453715943,-22.452841438453873,-0.07582194375593201,-1.491638127787344
1148,15.26713935559364,-22.327602127419624,-0.07140443904275019,-1.4535581365938706
1149,15.280438257471337,-22.268926921311532,-0.06709740110774826,-1.4181893799520955
1150,15.29373715934903,-22.277298092722738,-0.06321406755809532,-1.384980860980163
1151,15.307036061226723,-22.318866716676467,-0.059900730201890746,-1.3512828679479614
1152,15.320334963104418,-22.319746790483318,-0.05707192224359204,-1.311821089202747
1153,15.333633864982112,-22.169472356416914,-0.05439997548191735,-1.2588365104484713
1154,15.346932766859808,-21.735840506618473,-0.0513731434116084,-1.183148230392771
1155,15.360231668737503,-20.890386459816483,-0.047418542760352025,-1.076133654341541
1156,15.373530570615198,-19.540038160258543,-0.04206512359693065,-0.9322687945778608
1157,15.386829472492892,-17.657295198121,-0.03510427867243842,-0.7515577536865681
1158,15.400128374370588,-15.300002861285645,-0.02669924759255955,-0.5410532963976987
1159,15.413427276248283,-12.613446075266747,-0.017404501859296186,-0.31482710132348374
1160,15.426726178125978,-9.812001487962824,-0.008081867047500519,-0.09217306088734672
1161,15.440025080003672,-7.14360897685666,0.00026723480267283546,0.10562086544462244
1162,15.453323981881368,-4.845674109891259,0.006707064917861417,0.2591283336162816
1163,15.466622883759062,-3.1036434666767727,0.01055329385995275,0.3542625913607768
1164,15.479921785636757,-2.022458837443355,0.011490906568180305,0.3845056432517442
1165,15.493220687514452,-1.616941427769574,0.009599448940534867,0.3514163764916892
1166,15.506519589392148,-1.821546150129827,0.005289176091351218,0.2634481905058166
1167,15.519818491269842,-2.514802337664331,-0.0008245831774452911,0.13354441286253138
1168,15.533117393147537,-3.550586188815542,-0.00806870454454147,-0.023763210854377905
1169,15.546416295025232,-4.7877789740160335,-0.015841131222007265,-0.19499551361240527
1170,15.559715196902925,-6.111649017826412,-0.023692386564644247,-0.3695227222366177
1171,15.57301409878062,-7.443617763326544,-0.03134828073162983,-0.5402446129920261
1172,15.586313000658317,-8.739762167149001,-0.038680288435976665,-0.7032287644213967
1173,15.59961190253601,-9.98134572846961,-0.04564335260023875,-0.8566593791376765
1174,15.612910804413705,-11.162142881993388,-0.05220673964299516,-0.9995831917501092
1175,15.6262097062914,-12.277187763588191,-0.05830182590606802,-1.1309095123725634
1176,15.639508608169097,-13.316190299911312,-0.06380275846575843,-1.2489607391271003
1177,15.65280751004679,-14.262825730035962,-0.06854409850667521,-1.351642203817287
1178,15.666106411924485,-15.099059036735424,-0.07236692881756825,-1.43708020312522
1179,15.67940531380218,-15.812154948367693,-0.07517529862670369,-1.5044295430654366
1180,15.692704215679871,-16.401395827933015,-0.07698165398500148,-1.5545157792190472
1181,15.706003117557568,-16.88185927792264,-0.07792420773073742,-1.5900526386567082
1182,15.719302019435265,-17.28367733864446,-0.07824909890682223,-1.6153236797065031
1183,15.732600921312958,-17.646594912195194,-0.07826159288738105,-1.6353810188962097
1184,15.745899823190651,-18.010934189910863,-0.07825935586145198,-1.6549421295339268
1185,15.759198725068348,-18.406965393439915,-0.07846465901697659,-1.677233797547523
1186,15.772497626946045,-18.84508830502542,-0.07897125633068303,-1.7030425457711764
1187,15.785796528823738,-19.309181586011878,-0.0797173430323136,-1.7301976540815034
1188,15.799095430701431,-19.755037926348525,-0.08049047084584564,-1.7536468917486787
1189,15.812394332579126,-20.11499209589368,-0.08096477965283436,-1.7661876843970252
1190,15.82569323445682,-20.308677354135394,-0.08076555625892322,-1.7597882676166012
1191,15.838992136334516,-20.25841933694313,-0.07955076268618758,-1.727288245662189
1192,15.852291038212211,-19.90638082179109,-0.07709423742597724,-1.66414027510494
1193,15.865589940089906,-19.22964717114454,-0.07335224679801428,-1.5697916303356956
1194,15.8788888419676,-18.24943207929733,-0.06849595651965545,-1.4483452915587312
1195,15.892187743845296,-17.031703413666285,-0.06289857969042159,-1.3082927188549294
1196,15.905486645722991,-15.678598948417738,-0.057076960051007,-1.16133980595646
1197,15.918785547600686,-14.312430386063786,-0.05160025823408542,-1.0205841748428464
1198,15.93208444947838,-13.056047853204097,-0.0469885664516963,-0.8984667574246852
1199,15.945383351356076,-12.01415298058566,-0.0436272981034203,-0.8049565283339986
1200,15.95868225323377,-11.259536262295555,-0.04171735218427634,-0.7463250889120807
1201,15.971981155111465,-10.82646959621893,-0.041268486958913546,-0.7246720521153238
1202,15.98528005698916,-10.711330705430411,-0.04212927530627966,-0.7381517372991899
1203,15.998578958866856,-10.878783832599504,-0.04403731926665764,-0.7817034256501969
1204,16.011877860744548,-11.271032823906491,-0.046671764797164256,-0.8480416795993675
1205,16.025176762622245,-11.8178658850673,-0.049696248188193945,-0.9287091432890349
1206,16.038475664499938,-12.446046908772436,-0.05278999223791877,-1.0150813966179906
1207,16.051774566377635,-13.087488103209177,-0.055672036538929257,-1.0992823296295744
1208,16.065073468255328,-13.686091096733994,-0.05812455763072999,-1.1749834617169141
1209,16.078372370133025,-14.203055955931573,-0.060016199124539975,-1.238027471905791
1210,16.091671272010718,-14.62009763352478,-0.06131950831845804,-1.2867751057632817
1211,16.104970173888415,-14.93981914080374,-0.06211318523296036,-1.3220729079374947
1212,16.118269075766108,-15.18278467969473,-0.06256265646929267,-1.3468007782749734
1213,16.1315679776438,-15.381597072515554,-0.06288018005328426,-1.3650677930433233
1214,16.144866879521498,-15.573178546510437,-0.06327401228637082,-1.3812351419686422
1215,16.15816578139919,-15.791041460500002,-0.06390074378970349,-1.3990037702928606
1216,16.171464683276888,-16.059325796631992,-0.06483373406291368,-1.4207815933101384
1217,16.18476358515458,-16.389779024002376,-0.06605471108380528,-1.4474491688985256
1218,16.198062487032278,-16.781926579896204,-0.06746805953611744,-1.4785139296679373
1219,16.21136138890997,-17.22578973322697,-0.0689311667120765,-1.5125326360941593
1220,16.224660290787668,-17.705940677599546,-0.07029119386303068,-1.5476274538547696
1221,16.23795919266536,-18.205567292459513,-0.07141893727089159,-1.5819335373897012
1222,16.251258094543054,-18.709510598316445,-0.07223305065740758,-1.6138788009615397
1223,16.26455699642075,-19.205774113292996,-0.07271142487563255,-1.6422772279561333
1224,16.277855898298444,-19.685568229124357,-0.07288973624366664,-1.6662822019723653
1225,16.29115480017614,-20.14235159431788,-0.07284937707212896,-1.6852751468736733
1226,16.304453702053834,-20.570475768656216,-0.07269812294245749,-1.698756440429867
1227,16.31775260393153,-20.963971448011595,-0.07254740334527685,-1.7062768138631812
1228,16.331051505809224,-21.315855980567676,-0.07249035854725525,-1.7074203548123743
1229,16.34435040768692,-21.618194719972255,-0.07258496451813432,-1.701837735600581
1230,16.357649309564614,-21.863031601525662,-0.07284590119159658,-1.6893277501700257
1231,16.370948211442307,-22.04416992857699,-0.07324705301717455,-1.6699644959571962
1232,16.384247113320004,-22.15958442653059,-0.07373366624404872,-1.6442566482259187
1233,16.397546015197697,-22.21397613784028,-0.07424008609202384,-1.6133032410388368
1234,16.410844917075394,-22.220686940137558,-0.07470687351139649,-1.5788838373544816
1235,16.424143818953088,-22.201957356815477,-0.07509091237578987,-1.5434008887530335
1236,16.437442720830784,-22.186474522503048,-0.07536407468797915,-1.509592432885262
1237,16.450741622708478,-22.203481014260905,-0.07549949476549186,-1.4799682524552542
1238,16.464040524586174,-22.273513396526077,-0.0754483909873284,-1.4559983678000765
1239,16.477339426463868,-22.39705789516043,-0.07511358515180638,-1.4371880654681135
1240,16.49063832834156,-22.543760685421194,-0.07432782554314475,-1.420278585874442
1241,16.503937230219258,-22.645831304513734,-0.07284569067908533,-1.3988769819655746
1242,16.51723613209695,-22.599397534694212,-0.07035726941488965,-1.3638048324115646
1243,16.530535033974648,-22.276409135976994,-0.06652941810175707,-1.3043389897643192
1244,16.54383393585234,-21.547175143689806,-0.06107501336534797,-1.2102978503771529
1245,16.557132837730038,-20.310190770982516,-0.053841635074283536,-1.0746406749215822
1246,16.57043173960773,-18.52256935102115,-0.044900224207566675,-0.8959781830938398
1247,16.583730641485428,-16.222506731721015,-0.03460610332609227,-0.6802548243584496
1248,16.59702954336312,-13.53595570196518,-0.023605066796073555,-0.440957327956342
1249,16.610328445240814,-10.663400682485232,-0.012769189100043404,-0.197554811439978
1250,16.62362734711851,-7.848344906864798,-0.003068083866769914,0.027607143888989993
1251,16.636926248996204,-5.334839755172176,0.004596325625146375,0.21323690252374092
1252,16.6502251508739,-3.324882653587126,0.009549420200548296,0.34284813917900664
1253,16.663524052751594,-1.9464288493888595,0.011456119129395814,0.40737957885007625
1254,16.67682295462929,-1.2392425886543852,0.010358330114038878,0.4060896916406304
1255,16.690121856506984,-1.1603339206272896,0.006632493928363536,0.34565384582808006
1256,16.70342075838468,-1.6053126573853975,0.0008840412622045455,0.23788407404486012
1257,16.716719660262374,-2.438312403690028,-0.0061895267142991406,0.09680621271964349
1258,16.730018562140067,-3.5220003028816698,-0.013930590812830894,-0.06410052257576716
1259,16.743317464017764,-4.7405109244494135,-0.02181752842193331,-0.23385652703917753
1260,16.756616365895457,-6.011210002539069,-0.029507169798953705,-0.40480238772347826
1261,16.769915267773154,-7.284940898864816,-0.03682244404105101,-0.5723370773157368
1262,16.783214169650847,-8.537687334008792,-0.04369969607571964,-0.733936461730109
1263,16.796513071528544,-9.758473670197265,-0.05012031653230889,-0.8879689765688961
1264,16.809811973406237,-10.938407171722076,-0.056053010655124226,-1.0327833132685016
1265,16.823110875283934,-12.064279878521818,-0.06142585437808974,-1.166343075028689
1266,16.836409777161627,-13.11783463895372,-0.0661339748183225,-1.2864209670085323
1267,16.84970867903932,-14.079575666490204,-0.070074367620891,-1.3911470397593835
1268,16.863007580917017,-14.934600394974053,-0.07318958091963948,-1.4796047203109455
1269,16.87630648279471,-15.677671807634471,-0.07550032762367215,-1.5522005608645586
1270,16.889605384672407,-16.315516282559532,-0.07711348568445352,-1.6106618459369015
1271,16.9029042865501,-16.86566557521617,-0.07820288844922847,-1.6576748864669324
1272,16.916203188427797,-17.352485597335004,-0.07897071932723694,-1.6963021575720274
1273,16.92950209030549,-17.80187782561024,-0.07960313052707016,-1.7293699750065212
1274,16.942800992183187,-18.236293971866214,-0.08023353249361391,-1.7589962005247612
1275,16.95609989406088,-18.671262845044517,-0.08092225756481167,-1.7863538709284945
1276,16.969398795938574,-19.11389563458106,-0.08165491119917934,-1.8116789189020073
1277,16.98269769781627,-19.56317006817863,-0.08235644257423576,-1.8344619355513434
1278,16.995996599693964,-20.0114404705726,-0.08291521059098854,-1.8537336781074558
1279,17.00929550157166,-20.446619828689858,-0.0832109857852066,-1.8683615464641041
1280,17.022594403449354,-20.854689367447,-0.08314193422716178,-1.8773053770242112
1281,17.03589330532705,-21.22240011110886,-0.08264717183594202,-1.8798168328107072
1282,17.049192207204744,-21.540082539152408,-0.08172285035507634,-1.8755917485601188
1283,17.06249110908244,-21.80433060207699,-0.08043061969700188,-1.8648892221775875
1284,17.075790010960134,-22.020035435021242,-0.0788974666181244,-1.848611642061877
1285,17.089088912837827,-22.200947570116366,-0.07730535235259928,-1.8283025083642492
1286,17.102387814715524,-22.367829128186198,-0.07586838806377817,-1.8059841008457538
1287,17.115686716593217,-22.543507090314403,-0.07479578167406437,-1.783755233715085
1288,17.128985618470914,-22.74485603866551,-0.07424168307983411,-1.7631245639549047
1289,17.142284520348607,-22.972840454586063,-0.07424841890903745,-1.7441644263050027
1290,17.155583422226304,-23.202936013159146,-0.07469580598345633,-1.7246974304553537
1291,17.168882324103997,-23.379089541724692,-0.0752734312924303,-1.6998169695257324
1292,17.182181225981694,-23.41443060881688,-0.07549225724514926,-1.6620430486961424
1293,17.195480127859387,-23.200920969006035,-0.07474531091107164,-1.6023021983439991
1294,17.20877902973708,-22.628005990819002,-0.07241524451655278,-1.511705319287945
1295,17.222077931614777,-21.607494998347875,-0.0680119499487826,-1.3838276164432883
1296,17.23537683349247,-20.0991608868384,-0.06131046418548258,-1.2169516916871084
1297,17.248675735370167,-18.130002520166226,-0.05245295026861237,-1.015617477049313
1298,17.26197463724786,-15.80069684126422,-0.04198230448622199,-0.790910984936703
1299,17.275273539125557,-13.275738053569238,-0.030789633004357095,-0.5592314525791571
1300,17.28857244100325,-10.758367270201564,-0.019980041389815954,-0.3397220324836512
1301,17.301871342880947,-8.456048441095604,-0.010684053894080187,-0.15097468600469133
1302,17.31517024475864,-6.545182402231536,-0.0038578532668039445,-0.007857302944719292
1303,17.328469146636337,-5.143855271136731,-0.0001190997462367374,0.08073591805812161
1304,17.34176804851403,-4.29873122284557,0.0003445196284971062,0.11271746630552698
1305,17.355066950391723,-3.9878364863266755,-0.0022238379916405407,0.09217009905470656
1306,17.36836585226942,-4.136545963770372,-0.007234719680612166,0.027596950714706466
1307,17.381664754147113,-4.64097219820637,-0.01389670228875368,-0.07033678819824196
1308,17.39496365602481,-5.3919065237281405,-0.02138186315119892,-0.19092767215589918
1309,17.408262557902503,-6.293473943825669,-0.028971316520096813,-0.32493201731605703
1310,17.4215614597802,-7.273160772604256,-0.03614854156321788,-0.46521802584310357
1311,17.434860361657893,-8.282943313299091,-0.042626019510054895,-0.606648564383931
1312,17.44815926353559,-9.293891629451732,-0.048311976688034886,-0.7454978515662913
1313,17.461458165413283,-10.28805686496715,-0.05324133354026416,-0.8787921648769289
1314,17.474757067290977,-11.251358698339596,-0.05750188458575562,-1.0038946224131935
1315,17.488055969168673,-12.169836712184802,-0.06118122210225449,-1.1184725681143741
1316,17.501354871046367,-13.029719426696614,-0.0643455292409597,-1.2207803968947666
1317,17.514653772924063,-13.820109209176808,-0.06704544354496479,-1.3100480144296094
1318,17.527952674801757,-14.53625610443435,-0.06933392025578056,-1.3867341063118017
1319,17.541251576679453,-15.181545468684908,-0.07127988552801959,-1.4524791366066192
1320,17.554550478557147,-15.767190086936571,-0.0729680616232997,-1.50972893777022
1321,17.567849380434843,-16.309710041061884,-0.07448494901762502,-1.5611340987825195
1322,17.581148282312537,-16.82713226028844,-0.07589847124593352,-1.608912483983757
1323,17.59444718419023,-17.335174198528858,-0.07724122830697941,-1.654368896842319
1324,17.607746086067927,-17.84447886835622,-0.07850462409003207,-1.697704062886427
1325,17.62104498794562,-18.359431366590243,-0.07964557485930127,-1.7381436867404003
1326,17.634343889823317,-18.878485517929235,-0.0806021318187259,-1.7743152753485087
1327,17.64764279170101,-19.395502556922846,-0.08131157214403853,-1.8047301183881566
1328,17.660941693578707,-19.90147056462681,-0.08172511948670592,-1.8282114908106317
1329,17.6742405954564,-20.38610922544506,-0.08181646208484353,-1.8441497446714175
1330,17.687539497334097,-20.839144065162785,-0.08158462371093221,-1.852542451127308
1331,17.70083839921179,-21.251310200010476,-0.08105370453833699,-1.853861675789892
1332,17.714137301089483,-21.615311310688497,-0.08027193093984283,-1.8488483546437782
1333,17.72743620296718,-21.92696350263223,-0.0793109802630803,-1.838344777565648
1334,17.740735104844873,-22.18658260212943,-0.07826484262283032,-1.823238384866065
1335,17.75403400672257,-22.400352154383594,-0.07724638351598077,-1.804519892863971
1336,17.767332908600263,-22.581029402786513,-0.07637946739546225,-1.7833846167717988
1337,17.78063181047796,-22.747076994550447,-0.07578479879107598,-1.7612580237682154
1338,17.793930712355653,-22.91934396024698,-0.07555841059060817,-1.739626450406795
1339,17.80722961423335,-23.11488553157077,-0.07574315483413106,-1.7196069486680037
1340,17.820528516111043,-23.33839044933393,-0.07629596002973321,-1.7012849987750984
1341,17.833827417988736,-23.572805510190868,-0.07705706362083849,-1.6829616367738311
1342,17.847126319866433,-23.771806905764137,-0.07773117828640112,-1.6605513167891637
1343,17.860425221744126,-23.85735876069822,-0.07789284584563387,-1.6274229732956003
1344,17.873724123621823,-23.725280255760886,-0.07702671565126075,-1.5749437078687936
1345,17.887023025499516,-23.260215426567864,-0.07460646726591373,-1.493844345637951
1346,17.900321927377213,-22.358760396564385,-0.07020411610377558,-1.3762882934399114
1347,17.913620829254906,-20.95641019161449,-0.06360799056582332,-1.21824660785188
1348,17.926919731132603,-19.051561007980226,-0.05491826572855985,-1.0215614748239077
1349,17.940218633010296,-16.719208709179036,-0.04458870798660127,-0.795024393563335
1350,17.95351753488799,-14.108865838152338,-0.03339428686106649,-0.5539693243741224
1351,17.966816436765686,-11.425283109413375,-0.022324040192893434,-0.31826470870659496
1352,17.98011533864338,-8.895555366701107,-0.012420551236873915,-0.10906691153891915
1353,17.993414240521076,-6.730362817403907,-0.0046037082243425755,0.05489929334248857
1354,18.00671314239877,-5.088928305176273,0.0004788598281130333,0.16059376212553364
1355,18.020012044276463,-4.056123730137556,0.0025405826581300682,0.20263159063537128
1356,18.03331094615416,-3.6365015453237186,0.0016677937792462544,0.18353145921712424
1357,18.046609848031856,-3.7651702042638235,-0.00174059921889019,0.11229804582056228
1358,18.05990874990955,-4.3309779878624175,-0.007083540942811381,0.001846484368544158
1359,18.073207651787243,-5.204750212904282,-0.013687142016579869,-0.13395460845747031
1360,18.08650655366494,-6.264999314925412,-0.02092187228652734,-0.2828298982482027
1361,18.099805455542636,-7.415418997912442,-0.02828438690117415,-0.4356635578864592
1362,18.11310435742033,-8.591698913360185,-0.035432698703829126,-0.5868778046793106
1363,18.126403259298023,-9.758557409789319,-0.042176121832687666,-0.7337887637844352
1364,18.13970216117572,-10.90035733293597,-0.04843223145849036,-0.8753678571953593
1365,18.153001063053413,-12.009707326826039,-0.054170102495701054,-1.010928455182384
1366,18.16629996493111,-13.078056820612867,-0.059360699603134025,-1.1391795821945445
1367,18.179598866808803,-14.090842487566126,-0.06395051358456565,-1.2578918254338918
1368,18.192897768686496,-15.027804246504301,-0.06786428010873469,-1.3641802813197523
1369,18.206196670564196,-15.86727847117018,-0.07103047851822704,-1.4552029123461756
1370,18.21949557244189,-16.59213270353161,-0.07341446679230038,-1.528960604759281
1371,18.232794474319583,-17.194829644348477,-0.07504252343877738,-1.584893630500476
1372,18.24609337619728,-17.679842385793883,-0.07600606481841723,-1.6240812948808672
1373,18.259392278074973,-18.062895717650143,-0.07644538436739204,-1.6490151545290443
1374,18.272691179952663,-18.367730606345553,-0.07652120256108579,-1.6630660857740696
1375,18.285990081830363,-18.621819477167122,-0.07638611888104918,-1.6698495975684045
1376,18.299288983708056,-18.852504212045012,-0.07616583527669736,-1.6726912692236247
1377,18.31258788558575,-19.084490534270202,-0.07595393397467773,-1.6743185080634262
1378,18.32588678746345,-19.338812960810042,-0.075817530560424,-1.6767931762486692
1379,18.33918568934114,-19.632630151976205,-0.07580705561102205,-1.6815962455207687
1380,18.35248459121884,-19.97879159642734,-0.07596269594132321,-1.6897167990803394
1381,18.36578349309653,-20.38417195855858,-0.07631202841609326,-1.701602724843549
1382,18.379082394974223,-20.84629788288841,-0.07685688881973982,-1.7168982454787944
1383,18.39238129685192,-21.34865774443607,-0.07755151010784625,-1.7340032676942325
1384,18.405680198729616,-21.85603151893099,-0.07827775605120414,-1.7496056033443517
1385,18.41897910060731,-22.311874959879074,-0.07882626065207578,-1.7584173762999404
1386,18.432278002485003,-22.639923463255904,-0.07889369283247098,-1.7533553093508436
1387,18.4455769043627,-22.75155088497265,-0.07810529964102415,-1.7263233694075608
1388,18.458875806240396,-22.559036006142136,-0.07606757124520266,-1.6695943437989136
1389,18.47217470811809,-21.993011560744044,-0.07244813650334879,-1.5775814756638857
1390,18.485473609995783,-21.020504086338423,-0.06706989020645293,-1.448602691506084
1391,18.49877251187348,-19.658797961861886,-0.05999670091124532,-1.2861395127697728
1392,18.512071413751173,-17.980524688169798,-0.05158316240656557,-1.0991402729644733
1393,18.52537031562887,-16.107188753655382,-0.04246479834852875,-0.9011306297376931
1394,18.538669217506563,-14.19145823369021,-0.033479113403827705,-0.7082256462325
1395,18.551968119384256,-12.391977918476773,-0.025528487159522096,-0.5364775626352453
1396,18.565267021261956,-10.846909732006516,-0.01941579863201333,-0.39921233248938626
1397,18.57856592313965,-9.652865198638775,-0.015694786256454037,-0.30501697547961376
1398,18.591864825017343,-8.854154333824804,-0.014574593351475219,-0.2568343678278176
1399,18.60516372689504,-8.444021402109424,-0.01590236747759958,-0.25228359243573667
1400,18.618462628772733,-8.376016241402407,-0.019224934044646466,-0.28497830827993276
1401,18.631761530650422,-8.581083366223096,-0.023908504472830574,-0.34637607806337056
1402,18.645060432528123,-8.985050490952366,-0.029281031710561164,-0.4276178881122033
1403,18.658359334405816,-9.521993975254642,-0.03475881301296888,-0.5209067323406494
1404,18.67165823628351,-10.140949186380503,-0.03992721199613063,-0.6201792890370231
1405,18.68495713816121,-10.80586561760204,-0.044561849072882076,-0.7210748916965887
1406,18.6982560400389,-11.490818741917751,-0.048596014193886136,-0.8204249733948492
1407,18.7115549419166,-12.173683873744382,-0.052056062386743505,-0.9156073151129667
1408,18.72485384379429,-12.831452238751025,-0.05499371600036608,-1.0040960015026206
1409,18.738152745671982,-13.4392269591689,-0.057440264812206564,-1.0834018576995503
1410,18.75145164754968,-13.97316500816313,-0.05939487569701129,-1.1514001020737537
1411,18.764750549427376,-14.415926921603573,-0.06084348317016573,-1.2068657544965582
1412,18.77804945130507,-14.762180065305593,-0.061792726638286104,-1.2499505145341259
1413,18.79134835318277,-15.02167530011211,-0.06229946663884986,-1.2823602137935088
1414,18.80464725506046,-15.218282671672734,-0.062480855040286346,-1.307105024339679
1415,18.817946156938152,-15.384732047903936,-0.06249957367768597,-1.327843162158878
1416,18.83124505881585,-15.554167756522912,-0.06252908367892997,-1.3479697146682337
1417,18.844543960693542,-15.750598904262816,-0.06271069657839065,-1.3696804504646394
1418,18.85784286257124,-15.980711735065707,-0.06311620460226182,-1.3932544489773144
1419,18.87114176444893,-16.229294146720054,-0.0637271034665489,-1.4167552677757838
1420,18.88444066632663,-16.459805490462205,-0.06443597199606987,-1.4362630952467577
1421,18.89773956820432,-16.620554822834702,-0.06506958169636148,-1.4466377282178047
1422,18.91103847008202,-16.655698951951408,-0.06542850292554882,-1.4426932454484171
1423,18.924337371959712,-16.51904116092703,-0.06533505514175933,-1.4205601016483413
1424,18.93763627383741,-16.18765000735713,-0.06468018802925825,-1.378939829126759
1425,18.950935175715102,-15.671903106703803,-0.06345969241166988,-1.319941220371852
1426,18.9642340775928,-15.018939681658894,-0.06179086588161326,-1.24923998702114
1427,18.97753297947049,-14.30777896437105,-0.05990304330919745,-1.1754311319287
1428,18.990831881348186,-13.636359716997818,-0.05810013844029129,-1.1086297490471053
1429,19.00413078322588,-13.102990408115254,-0.05670043320757103,-1.0585808439209201
1430,19.017429685103576,-12.786471948924948,-0.05596641393307631,-1.0327007092713711
1431,19.030728586981272,-12.729817511827052,-0.05604240782522659,-1.0345303462270308
1432,19.04402748885897,-12.931734202569409,-0.056917514859953486,-1.063002107564871
1433,19.05732639073666,-13.348025329331698,-0.05842521843313894,-1.1127173355536049
1434,19.07062529261436,-13.902428673448373,-0.06028079026559907,-1.1751641539679254
1435,19.08392419449205,-14.50394286205174,-0.06214655014309947,-1.2405552681230723
1436,19.097223096369746,-15.066150471345413,-0.06370701848670626,-1.2998149998559585
1437,19.11052199824744,-15.523842095304259,-0.06473384698949834,-1.3462375126091009
1438,19.123820900125136,-15.84335218632558,-0.06512476714991448,-1.37646764979076
1439,19.13711980200283,-16.024989667188706,-0.06490974941256329,-1.390668299041544
1440,19.15041870388053,-16.09810337918074,-0.06422755632645878,-1.3919570662923584
1441,19.16371760575822,-16.111011025286675,-0.06328337994464175,-1.3853533926897204
