,time,Red,Green,Blue
0,0.0,-4.406515408024047,-1.7130186196891861,-1.491937393385437
1,0.0132930147524053,-4.354494643762272,-1.7080307988162668,-1.494865613468203
2,0.0265860295048106,-4.300751951174825,-1.7001297055510678,-1.4944909659739778
3,0.0398790442572159,-4.244017811803488,-1.686656218928134,-1.4879565539126602
4,0.0531720590096212,-4.183811691394162,-1.6655267306073351,-1.473216862078731
5,0.0664650737620266,-4.120642134664674,-1.6355906977880592,-1.4494081406940647
6,0.0797580885144319,-4.0560091022600355,-1.5969577741092826,-1.4170992969704632
7,0.0930511032668372,-3.9921873673444472,-1.5511801764342492,-1.3783374793984953
8,0.1063441180192425,-3.931816694157772,-1.5011775103772045,-1.3364248944981059
9,0.1196371327716478,-3.8773764898570433,-1.4508488546155334,-1.295421725398885
10,0.1329301475240532,-3.8306606465179094,-1.4044123982746102,-1.2594470118713672
11,0.1462231622764585,-3.7923742710786246,-1.3656095642866752,-1.2319173821141975
12,0.1595161770288638,-3.761941414667817,-1.336969517751736,-1.2148965492339074
13,0.1728091917812691,-3.737552629953867,-1.3193271892592038,-1.2087126753157955
14,0.1861022065336744,-3.7164179550322665,-1.3117232506355252,-1.2119394223083482
15,0.1993952212860798,-3.6951513139150536,-1.3117098877040339,-1.2217480661734297
16,0.2126882360384851,-3.6702108442651182,-1.3159759908862476,-1.234548282349105
17,0.2259812507908904,-3.6383513180715705,-1.3211232983944077,-1.246768677333265
18,0.2392742655432957,-3.5970878812717304,-1.3243938176660326,-1.255601123914989
19,0.2525672802957011,-3.545196865350019,-1.3241745108365581,-1.2595496740387775
20,0.2658602950481064,-3.4832682063757248,-1.3201766575975937,-1.2586775079521118
21,0.2791533098005117,-3.414271082828538,-1.3132808671976597,-1.254518201859446
22,0.2924463245529171,-3.3440173798666013,-1.3051262573538436,-1.2496924534592293
23,0.3057393393053224,-3.281341212147205,-1.2975799880669234,-1.2473321894570015
24,0.3190323540577277,-3.2377957768169168,-1.2922380260264241,-1.2504480915753953
25,0.332325368810133,-3.2267274844114016,-1.2900798551378243,-1.2613761723116792
26,0.3456183835625383,-3.2617221752585293,-1.2913409421467812,-1.281404347482875
27,0.3589113983149437,-3.3545998723700245,-1.295597135081979,-1.31062240602526
28,0.3722044130673489,-3.5133096852419485,-1.3019967301310498,-1.3479788640222181
29,0.3854974278197543,-3.7401832443456597,-1.3095455959922206,-1.3914869388552862
30,0.3987904425721596,-4.030993883874418,-1.3173547889843469,-1.4385106329085473
31,0.4120834573245649,-4.375123180399839,-1.3247923875452159,-1.4860770824836973
32,0.4253764720769702,-4.75688433306431,-1.3315262356011868,-1.5311872967503317
33,0.4386694868293755,-5.157761019615428,-1.3374834229611108,-1.5711156632116319
34,0.4519625015817809,-5.559078041613281,-1.342771658471829,-1.6036879040161172
35,0.4652555163341862,-5.944504495712947,-1.3476031485450617,-1.6275098024772734
36,0.4785485310865915,-6.301843257436993,-1.3522402225690946,-1.6420998031430423
37,0.4918415458389968,-6.623769320606801,-1.3569577564067157,-1.6478766283252926
38,0.5051345605914022,-6.907476114169101,-1.362004491384129,-1.6459797912846035
39,0.5184275753438075,-7.153476108250881,-1.3675521007695695,-1.6379511481249356
40,0.5317205900962129,-7.363992075366609,-1.3736441121565413,-1.6253580944088921
41,0.5450136048486182,-7.541419149286667,-1.3801779569559054,-1.6094673152522307
42,0.5583066196010235,-7.687239080271379,-1.3869511978854332,-1.5910656224054494
43,0.5715996343534288,-7.8015788630528045,-1.3937746601779413,-1.5704735459310235
44,0.5848926491058342,-7.883397664720363,-1.4006184651677531,-1.5477278206383487
45,0.5981856638582395,-7.931119560996011,-1.4077335887910887,-1.5228494919746545
46,0.6114786786106448,-7.943444431252183,-1.4156941209228961,-1.4960898460955407
47,0.62477169336305,-7.9200783742903536,-1.4253325132696038,-1.4680652144508293
48,0.6380647081154553,-7.862207937097341,-1.4375781980541473,-1.4397417762218376
49,0.6513577228678608,-7.772653298632845,-1.4532417219407103,-1.4122880733123844
50,0.664650737620266,-7.655728760841346,-1.4728010730175147,-1.3868539029924924
51,0.6779437523726713,-7.516893463421396,-1.4962440007192257,-1.3643504044819963
52,0.6912367671250766,-7.3622948419286285,-1.5230065707745486,-1.3453002108555254
53,0.7045297818774819,-7.198301427232951,-1.5520303714567882,-1.3298049386512234
54,0.7178227966298873,-7.0310929035224605,-1.5819407174444666,-1.3176449920544564
55,0.7311158113822926,-6.866327606262078,-1.611325037699957,-1.308488629620813
56,0.7444088261346979,-6.708858647375606,-1.6390648995620385,-1.302151755248
57,0.7577018408871032,-6.562448265189988,-1.6646514081373605,-1.2988277894484144
58,0.7709948556395086,-6.429454646910874,-1.68840015873382,-1.2992069261541088
59,0.7842878703919139,-6.310527399590856,-1.7114872305784015,-1.3044282577119237
60,0.7975808851443192,-6.204412533232331,-1.73575733956781,-1.3158512916351408
61,0.8108738998967245,-6.107995439765911,-1.7633077327841484,-1.3346841954025894
62,0.8241669146491298,-6.016678231096391,-1.795916074758852,-1.3615509677704274
63,0.8374599294015352,-5.925101587375894,-1.8344385536258159,-1.3961057721480048
64,0.8507529441539405,-5.828111305620349,-1.878333829536943,-1.4368011728017627
65,0.8640459589063458,-5.721777034531892,-1.925453193440203,-1.480885990053241
66,0.8773389736587511,-5.604230215065252,-1.9721758836614487,-1.5246539841138702
67,0.8906319884111564,-5.476116846018442,-2.0138774557052392,-1.5639005229620548
68,0.9039250031635618,-5.3405528096372405,-2.045628322901376,-1.5944901818188644
69,0.9172180179159672,-5.202599538575745,-2.0629609756656606,-1.6129129905941928
70,0.9305110326683724,-5.068406361569984,-2.0625386171407443,-1.61672118523127
71,0.9438040474207776,-4.944249572542464,-2.042604975032541,-1.6047861962937038
72,0.9570970621731832,-4.835704771626266,-2.0031728544528367,-1.5773754475847097
73,0.9703900769255884,-4.747113771380086,-1.9459828154464116,-1.536092416843778
74,0.9836830916779936,-4.681381607041608,-1.8743026001459864,-1.4837327598065841
75,0.996976106430399,-4.640018738648652,-1.7926322691484355,-1.4240857428538165
76,1.0102691211828043,-4.623280547425041,-1.7063445162721944,-1.3616741717380798
77,1.0235621359352096,-4.6302718158381815,-1.621255032779749,-1.3014042203921707
78,1.036855150687615,-4.658960078730831,-1.5431115046183541,-1.2481070557733063
79,1.0501481654400204,-4.706135672631491,-1.4770194951072975,-1.2059964934300216
80,1.0634411801924255,-4.767423246505539,-1.4268727014247953,-1.1781219915375252
81,1.076734194944831,-4.837460568637805,-1.394893566340566,-1.165935296864576
82,1.0900272096972363,-4.910311128373607,-1.3813919275812159,-1.1690881238792796
83,1.1033202244496416,-4.980087922197284,-1.3848077093778304,-1.185531499670384
84,1.116613239202047,-5.041675365211664,-1.4020346212871133,-1.2119106259733596
85,1.1299062539544522,-5.091384048854608,-1.4289539679600325,-1.2441714045445746
86,1.1431992687068575,-5.127380237278565,-1.4610661345786924,-1.2782437141235627
87,1.1564922834592628,-5.149791661327275,-1.4941022562974928,-1.310656273351057
88,1.1697852982116683,-5.160475626954166,-1.5245235346960129,-1.3389663524254385
89,1.1830783129640736,-5.162513616889882,-1.5498542843195313,-1.3619411520986284
90,1.196371327716479,-5.15954788055988,-1.568830522050579,-1.3794885133721815
91,1.2096643424688842,-5.155093279172196,-1.58136955969645,-1.3923864036401845
92,1.2229573572212895,-5.151945380088144,-1.5883785888983843,-1.4018925901345467
93,1.2362503719736948,-5.151773021117166,-1.5914300632246634,-1.409325488352689
94,1.2495433867261,-5.154942587270436,-1.5923476084683323,-1.4156994897819917
95,1.2628364014785054,-5.160582540659093,-1.5927696936625668,-1.4214812304337108
96,1.2761294162309107,-5.1668641174529775,-1.5937800216483917,-1.4265119019461816
97,1.289422430983316,-5.171444521404892,-1.595697594997005,-1.430113483554521
98,1.3027154457357215,-5.171989365911858,-1.5980932050363732,-1.4313608297831746
99,1.3160084604881268,-5.166666555738077,-1.6000430127038636,-1.4294600490113762
100,1.329301475240532,-5.154497551616173,-1.6005592156060509,-1.4241383533920995
101,1.3425944899929374,-5.135476139877361,-1.599076530879034,-1.415936225286732
102,1.3558875047453427,-5.110419505690173,-1.595843858049707,-1.4063076879377379
103,1.369180519497748,-5.080587166485604,-1.5920853113181497,-1.3974760758721252
104,1.3824735342501533,-5.047168459020863,-1.5898520379997354,-1.3920500976233072
105,1.3957665490025586,-5.010779568983379,-1.5915712302665797,-1.3924650174926883
106,1.409059563754964,-4.971115510535043,-1.599388760862634,-1.4003646481872656
107,1.4223525785073694,-4.926869301606979,-1.61447216357706,-1.4160709301191974
108,1.4356455932597747,-4.875966886772348,-1.636470179030303,-1.4382889811080886
109,1.44893860801218,-4.816086518496391,-1.6633014978802916,-1.4641588658879976
110,1.4622316227645853,-4.7453537506186,-1.6913693460648331,-1.4896906031345978
111,1.4755246375169906,-4.663045873408253,-1.7161861443278208,-1.51051829129067
112,1.488817652269396,-4.570116848330772,-1.733273382859159,-1.5228088748384294
113,1.5021106670218012,-4.469375205749599,-1.7391129278896078,-1.5240957543290337
114,1.5154036817742065,-4.365216029347939,-1.7318996810663145,-1.5138078219772473
115,1.5286966965266118,-4.262915816593861,-1.711896536354374,-1.4933414360590216
116,1.5419897112790173,-4.167621752433178,-1.6813083688920574,-1.4656571697708287
117,1.5552827260314226,-4.083268365713018,-1.643733612280359,-1.4345290090946317
118,1.568575740783828,-4.011699220916445,-1.6033691318341,-1.4036765906979911
119,1.5818687555362332,-3.9522414467806897,-1.564195806763227,-1.37603279269812
120,1.5951617702886385,-3.9018845638529247,-1.5293456655173772,-1.3533350913802416
121,1.6084547850410438,-3.8560803175765868,-1.5007658082483013,-1.3361096146479292
122,1.621747799793449,-3.81004112765988,-1.4791895661503365,-1.3239902577712945
123,1.6350408145458544,-3.760299680786492,-1.464342009581057,-1.3162258755873475
124,1.6483338292982597,-3.7062196589673992,-1.455268734688837,-1.312199270435033
125,1.6616268440506652,-3.6511276928318424,-1.4506835157456184,-1.3118089586068613
126,1.6749198588030705,-3.6027736479011496,-1.449263267658072,-1.315626020493065
127,1.6882128735554758,-3.572920734768921,-1.4498548122012707,-1.3248064577982654
128,1.701505888307881,-3.5760148245267427,-1.4515830838242847,-1.3407954696321271
129,1.7147989030602864,-3.627070328109001,-1.4538641174129545,-1.364898102726091
130,1.7280919178126917,-3.7391067722911675,-1.4563360654585265,-1.3978132022741023
131,1.741384932565097,-3.920624518648596,-1.458733854853553,-1.439236523753201
132,1.7546779473175025,-4.173662064825872,-1.4607470563555744,-1.487631870697036
133,1.7679709620699076,-4.492892978877724,-1.4619093948438546,-1.5402421862198694
134,1.7812639768223129,-4.866003716679036,-1.4615648886892,-1.5933655564919047
135,1.7945569915747184,-5.275299972561023,-1.4589369384153223,-1.6428611201569612
136,1.807850006327124,-5.700205492783429,-1.4532959306253814,-1.6847905544245272
137,1.821143021079529,-6.120126876739385,-1.4441866229203095,-1.716059196130198
138,1.8344360358319345,-6.517108337071063,-1.4316502956081865,-1.7349122843318865
139,1.84772905058434,-6.877789240322908,-1.4163691184467826,-1.7411732290647228
140,1.8610220653367449,-7.194362701539864,-1.3996766061043897,-1.7361755077032217
141,1.8743150800891504,-7.464459710158879,-1.3834148194889988,-1.7224177972832597
142,1.8876080948415557,-7.690101078920489,-1.3696640491530692,-1.703037633361943
143,1.9009011095939607,-7.876031224921634,-1.3604081699604043,-1.681231955794005
144,1.9141941243463665,-8.02784305503777,-1.357215736449642,-1.6597466380878754
145,1.927487139098772,-8.150302198869005,-1.3610088464618104,-1.640519886290485
146,1.9407801538511769,-8.246185466456417,-1.3719643896965898,-1.6245146100058085
147,1.9540731686035824,-8.315797098683603,-1.389557063844229,-1.6117316029319866
148,1.9673661833559877,-8.357166923816747,-1.4127214336912806,-1.601369230659787
149,1.9806591981083927,-8.366805088760401,-1.4400872007503651,-1.5920847693840448
150,1.993952212860798,-8.340802090469765,-1.4702292222226545,-1.5823088927691764
151,2.007245227613204,-8.276020404239265,-1.5018726720781181,-1.5705620897496637
152,2.0205382423656086,-8.171127892961076,-1.534006499394327,-1.5557222417344807
153,2.033831257118014,-8.02727724528538,-1.5658858506864766,-1.537202419322208
154,2.0471242718704192,-7.848328934168489,-1.596940770934517,-1.5150184636883042
155,2.0604172866228248,-7.6406168228508875,-1.626641470346485,-1.4897500202944207
156,2.07371030137523,-7.412333007693267,-1.6543854703774814,-1.4624168203495231
157,2.087003316127636,-7.1726501659314215,-1.6794614873972276,-1.4343002507060814
158,2.100296330880041,-6.930716835288722,-1.701112458891597,-1.406741630477732
159,2.113589345632446,-6.694668171454689,-1.7186779834445565,-1.3809470339438874
160,2.1268823603848515,-6.470792272837202,-1.7317599463979245,-1.3578237584687123
161,2.1401753751372565,-6.262970316651792,-1.740337405300846,-1.3378635699480925
162,2.153468389889662,-6.072464192824649,-1.7447660507620228,-1.3210748965228793
163,2.166761404642067,-5.898069233209617,-1.745634756183358,-1.3069582404512647
164,2.1800544193944726,-5.7365984347829295,-1.7435083424802749,-1.294523682626575
165,2.1933474341468777,-5.583625792941462,-1.7386427253481027,-1.2823645412944493
166,2.2066404488992832,-5.434385767482295,-1.7307909603028264,-1.26881357306545
167,2.2199334636516888,-5.284697817873629,-1.719205665050986,-1.252200779268114
168,2.233226478404094,-5.1317637693015286,-1.702881030402602,-1.2311981355284023
169,2.2465194931565,-4.9746868381323575,-1.680985418011125,-1.205187847555897
170,2.2598125079089044,-4.814599722261706,-1.653350291366812,-1.1745524205207858
171,2.27310552266131,-4.654366868131935,-1.6208413836887898,-1.1407816075311976
172,2.286398537413715,-4.497925522639138,-1.5854649129029412,-1.1063323800976075
173,2.2996915521661205,-4.349421622696484,-1.5501481675139328,-1.0742514951570967
174,2.3129845669185256,-4.212350265348871,-1.518246236899497,-1.0476483226925069
175,2.326277581670931,-4.088907539469262,-1.4929194666014385,-1.0291568550534342
176,2.3395705964233366,-3.979698188866843,-1.4765624873241845,-1.020528006027068
177,2.3528636111757417,-3.8838372939519124,-1.47043402540336,-1.0224436861250885
178,2.3661566259281472,-3.7993661374159275,-1.4745558545416586,-1.0345629653669492
179,2.3794496406805523,-3.7238135752671195,-1.4878574108585285,-1.0557337531319357
180,2.392742655432958,-3.6547074704245515,-1.508477490908681,-1.084264566737479
181,2.406035670185363,-3.5898839345673834,-1.53411547378317,-1.118163130171386
182,2.4193286849377684,-3.5275341714537474,-1.5623470065554748,-1.1552976711576595
183,2.432621699690173,-3.4660330195815896,-1.590862258267885,-1.1934926905643617
184,2.445914714442579,-3.4036773537544547,-1.6176258199557472,-1.2306067784148966
185,2.4592077291949845,-3.3385078039859026,-1.6409818229388153,-1.264645097371172
186,2.4725007439473896,-3.2683853549589688,-1.6597324456142721,-1.293938324808451
187,2.485793758699795,-3.1914401053315293,-1.6732063987227346,-1.3173845855145352
188,2.4990867734522,-3.1069030778229676,-1.6813130732304467,-1.334712267532508
189,2.5123797882046057,-3.016189692611883,-1.684556651168754,-1.346689712118239
190,2.525672802957011,-2.9239634508638166,-1.6839732586732217,-1.3551937580273479
191,2.5389658177094163,-2.838821813164059,-1.6809626743977868,-1.3630635273779939
192,2.5522588324618214,-2.7732575525832956,-1.6770166644927125,-1.3737122778164204
193,2.565551847214227,-2.7426761252733423,-1.6733897396494868,-1.3905394938916422
194,2.578844861966632,-2.7634748685529082,-1.670796401115916,-1.416256166714819
195,2.592137876719037,-2.8504593216111513,-1.669231652912579,-1.4522820514261785
196,2.605430891471443,-3.014105913528315,-1.6679872753556615,-1.4983740941992738
197,2.618723906223848,-3.2582949636653202,-1.665879018260014,-1.5525945905782605
198,2.6320169209762536,-3.579078085191532,-1.6616286884086884,-1.6116389887262372
199,2.6453099357286587,-3.9648119214004076,-1.6542874623101982,-1.6714445996661325
200,2.658602950481064,-4.397652633479294,-1.6435668291884773,-1.727925565389264
201,2.6718959652334693,-4.8560710472407616,-1.6299714160360168,-1.7776510066796105
202,2.685188979985875,-5.317822510775417,-1.6146942059835492,-1.818309845653047
203,2.69848199473828,-5.762748612400393,-1.5993139411713515,-1.8488758272996988
204,2.7117750094906854,-6.174895376940746,-1.5853963879685962,-1.8694745747348613
205,2.725068024243091,-6.543647097696214,-1.5741235622859941,-1.8810322096089969
206,2.738361038995496,-6.863819903256185,-1.5660531702638578,-1.8848299917859697
207,2.751654053747901,-7.134870645524044,-1.5610572794856143,-1.882092956737347
208,2.7649470685003066,-7.359517753784024,-1.5584277727121407,-1.87370808346213
209,2.778240083252712,-7.5421282774637985,-1.5570893620711117,-1.860113982319003
210,2.791533098005117,-7.687204043922316,-1.5558427294788062,-1.841347962310613
211,2.8048261127575227,-7.798220504035794,-1.5535716708670024,-1.8171951597425848
212,2.818119127509928,-7.876967849062244,-1.5493786218842298,-1.787370282713921
213,2.8314121422623333,-7.923446617877537,-1.542646757882502,-1.7516770170585647
214,2.844705157014739,-7.936290428428159,-1.5330500255518424,-1.710121975329837
215,2.857998171767144,-7.913616676031073,-1.520538859885912,-1.6629901697094112
216,2.8712911865195494,-7.854131816876402,-1.505322044069082,-1.6109015387557757
217,2.8845842012719545,-7.758251874193636,-1.4878523908719805,-1.5548595554903735
218,2.89787721602436,-7.628970063189646,-1.468812719763297,-1.4962823909344842
219,2.911170230776765,-7.472236166890815,-1.4490915619891878,-1.4369887850426095
220,2.9244632455291706,-7.296707625764381,-1.4297351538590073,-1.3791065535131528
221,2.937756260281576,-7.112869885342921,-1.4118647692428667,-1.3248870012891136
222,2.951049275033981,-6.931673384670889,-1.3965588457857803,-1.2764407977683918
223,2.9643422897863867,-6.762962795242638,-1.3847169603739686,-1.2354482277517225
224,2.977635304538792,-6.614043684895594,-1.3769394591222468,-1.2029202694253713
225,2.9909283192911973,-6.4887116828294324,-1.3734601238037976,-1.1790800686722844
226,3.0042213340436024,-6.386954556417562,-1.3741529953856397,-1.1633956208976597
227,3.017514348796008,-6.3053628327857405,-1.3786054662638259,-1.154742574832333
228,3.030807363548413,-6.238111975628419,-1.3862260549590104,-1.1516395146151879
229,3.0441003783008185,-6.1782663380118565,-1.3963526911816095,-1.1524952342325399
230,3.057393393053224,-6.119125833329352,-1.4083463665976277,-1.1558333142566062
231,3.070686407805629,-6.055374917990436,-1.4216792644284157,-1.1604893557149625
232,3.0839794225580346,-5.983864741932124,-1.4360344466364874,-1.1657851727198305
233,3.09727243731044,-5.903934657457827,-1.4514154356971305,-1.1716644862273484
234,3.110565452062845,-5.817250430701579,-1.4682280021425795,-1.1787421298703467
235,3.1238584668152503,-5.727209063324285,-1.4872676326346106,-1.188202356911336
236,3.137151481567656,-5.638036620549076,-1.5095494149759763,-1.2015042000859022
237,3.150444496320061,-5.553773992995541,-1.5359628312673128,-1.2199145230674624
238,3.1637375110724664,-5.477382708706756,-1.5668108207852487,-1.2439703819569998
239,3.1770305258248714,-5.410186648969507,-1.601370185658028,-1.273035429861037
240,3.190323540577277,-5.35178752260782,-1.6376509878134236,-1.3051255931125068
241,3.2036165553296825,-5.300464339970119,-1.6725064966495107,-1.3371197491283888
242,3.216909570082088,-5.253922873209266,-1.7021474753104162,-1.3653529612525435
243,3.230202584834493,-5.210147637534098,-1.7229728306025,-1.3864534025846427
244,3.243495599586898,-5.168072449425391,-1.7324963312082218,-1.3981843156449658
245,3.256788614339304,-5.127848629935462,-1.7300832713910954,-1.4000332384682896
246,3.2700816290917087,-5.090634719810102,-1.7172453694348968,-1.3933631324154194
247,3.2833746438441143,-5.058003544981369,-1.697370435511506,-1.3810762911526562
248,3.29666765859652,-5.031194778283541,-1.6749410609088524,-1.3668905282873371
249,3.309960673348925,-5.0104857104384655,-1.654460237347271,-1.3544373302915194
250,3.3232536881013304,-4.9948986820180865,-1.639393741513079,-1.3464322362263685
251,3.3365467028537354,-4.982335167449192,-1.6314283320496554,-1.344132879691919
252,3.349839717606141,-4.9700712113329235,-1.6302373768515008,-1.347205707157801
253,3.363132732358546,-4.955421779531686,-1.6337818600171108,-1.3539993010855889
254,3.376425747110952,-4.93632935895014,-1.639013949410725,-1.3621088816898788
255,3.3897187618633566,-4.911675500370534,-1.6427468042144455,-1.3690475955030215
256,3.403011776615762,-4.881234404199317,-1.642436409479848,-1.372833706195871
257,3.4163047913681672,-4.845331676099951,-1.6366827576642429,-1.3723534129558221
258,3.4295978061205727,-4.804376439325216,-1.6253656814644737,-1.3674423905339377
259,3.4428908208729783,-4.758462058460758,-1.609443248080717,-1.358714716936345
260,3.456183835625384,-4.7071815584094105,-1.590524600450017,-1.3472313529291036
261,3.469476850377789,-4.649712132906794,-1.570368736702187,-1.3341296631549515
262,3.482769865130194,-4.585130049112868,-1.5504566127833375,-1.3203297352630121
263,3.4960628798825995,-4.512850734732384,-1.5317459603148458,-1.3063986661609912
264,3.5093558946350045,-4.433058450399816,-1.5146582046424362,-1.2926003020495114
265,3.52264890938741,-4.346993418545728,-1.4992764814513178,-1.2790971502233803
266,3.535941924139815,-4.256995610449068,-1.485666889524739,-1.2662178712187038
267,3.5492349388922206,-4.166257371384533,-1.4741901797490484,-1.2546743578342974
268,3.5625279536446257,-4.0783042846417095,-1.4656671527470662,-1.2456209115093693
269,3.5758209683970312,-3.996293998727464,-1.4613076362034867,-1.240498042960761
270,3.5891139831494367,-3.9222799052760045,-1.462399898595019,-1.2406816277501869
271,3.602406997901842,-3.8566118248399164,-1.4698539154089163,-1.2470359765307137
272,3.6157000126542473,-3.7976265293066787,-1.4837583238360617,-1.2595150991092947
273,3.628993027406653,-3.7417209750478944,-1.503117839234076,-1.2769513914992587
274,3.642286042159058,-3.6838240772718125,-1.5258817534985594,-1.2971191941996403
275,3.655579056911463,-3.6182196228639505,-1.5492786964370695,-1.31708499650456
276,3.668872071663869,-3.539640356234628,-1.5703762480442496,-1.3337837892057764
277,3.6821650864162736,-3.4445409849399264,-1.5867195107480028,-1.3447099562320584
278,3.695458101168679,-3.3324365085526195,-1.5968855411410516,-1.3485852186174698
279,3.7087511159210846,-3.20713911892355,-1.6008168492535089,-1.345862125247753
280,3.7220441306734897,-3.0776492584216713,-1.599852917685194,-1.3389375586299157
281,3.7353371454258952,-2.9583953173428976,-1.5964486503353217,-1.3319896381319793
282,3.7486301601783,-2.8685278507895333,-1.5936398372764313,-1.3304163617596911
283,3.761923174930706,-2.8300992087101915,-1.5943755467381318,-1.339940514287664
284,3.775216189683111,-2.8651991724007337,-1.6008722023882498,-1.3655353477516463
285,3.788509204435517,-2.992422044705941,-1.614142240229436,-1.4103919683810344
286,3.8018022191879215,-3.223318656062591,-1.6338079944090542,-1.475164772583883
287,3.815095233940327,-3.5596306938199866,-1.6582378464743932,-1.5576810548143687
288,3.828388248692733,-3.9920333013800073,-1.68495741313853,-1.653193208798045
289,3.8416812634451376,-4.5008101451168026,-1.7112190729456564,-1.7551178615679657
290,3.854974278197543,-5.058424019649287,-1.7345787856915307,-1.8560882001317118
291,3.868267292949948,-5.63346520182867,-1.7533377331285431,-1.9490794914858995
292,3.8815603077023537,-6.1951160731061465,-1.7667516839928807,-2.028368887965322
293,3.894853322454759,-6.717174044503501,-1.7749776365708851,-2.090151523764754
294,3.908146337207164,-7.180844229019485,-1.7787968839128987,-2.132732057461823
295,3.9214393519595694,-7.575874982389992,-1.7792097962866522,-2.1563151696398384
296,3.934732366711975,-7.900037634803362,-1.7770278159141752,-2.1625044583070454
297,3.948025381464381,-8.157322064758864,-1.7725846505323348,-2.1536693151423605
298,3.9613183962167855,-8.355445821306915,-1.7656503057033481,-2.132345910519106
299,3.974611410969191,-8.50332014049426,-1.7555668427649442,-2.1008031387847064
300,3.987904425721596,-8.608995693275846,-1.7415527690736357,-2.06083903749864
301,4.001197440474002,-8.678384329511829,-1.723069215725062,-2.0137986851177176
302,4.014490455226407,-8.714808331182834,-1.7001263530249149,-1.9607451149813808
303,4.027783469978812,-8.719244828192766,-1.673437282273711,-1.9026874500534257
304,4.041076484731217,-8.691044084461884,-1.6443835772073256,-1.840777118162354
305,4.054369499483623,-8.62888912841216,-1.6148157135736882,-1.776411943557571
306,4.067662514236028,-8.531791200937727,-1.5867516655797298,-1.7112242229759769
307,4.080955528988434,-8.399953519701313,-1.562051535492375,-1.6469635179733115
308,4.094248543740839,-8.235378677245402,-1.5421408521073277,-1.5853140235290293
309,4.107541558493244,-8.042142116666989,-1.527837586517081,-1.5277047325231616
310,4.1208345732456495,-7.826299564255405,-1.5193108645702345,-1.4751698177942514
311,4.134127587998055,-7.595436006111292,-1.5161641791622995,-1.428292952139251
312,4.14742060275046,-7.357905814275032,-1.5175994765682415,-1.3872316987331235
313,4.160713617502865,-7.121869682296147,-1.5225942499090201,-1.351785645616761
314,4.174006632255271,-6.89429832549928,-1.5300242225592833,-1.3214609913908824
315,4.187299647007676,-6.6801548281222205,-1.5386915471580336,-1.2954979846397365
316,4.200592661760082,-6.481951490237969,-1.547261918481802,-1.2728562216675143
317,4.213885676512486,-6.299792013488923,-1.5541558146138315,-1.2521818038488934
318,4.227178691264892,-6.131881080084963,-1.557463735001895,-1.2317981718798774
319,4.240471706017297,-5.975358005683022,-1.5549557292693879,-1.209763558931473
320,4.253764720769703,-5.827233115092747,-1.5442335428920777,-1.184023031597587
321,4.267057735522108,-5.685197490107554,-1.5230366996924605,-1.1526575807136223
322,4.280350750274513,-5.548135288846809,-1.4896708527796652,-1.114204805385758
323,4.293643765026919,-5.416267660687663,-1.443486469700654,-1.06800254407087
324,4.306936779779324,-5.290961163250128,-1.3853064243757736,-1.014491977693363
325,4.32022979453173,-5.174306149109646,-1.3176898033093947,-0.9554109783369774
326,4.333522809284134,-5.068592724824465,-1.2449322527945532,-0.8938126337677129
327,4.34681582403654,-4.975789074132163,-1.1727432111105602,-0.8338610741426921
328,4.360108838788945,-4.897085231346432,-1.1076042005645077,-0.780390844732343
329,4.373401853541351,-4.8325353079053945,-1.055888911206983,-0.7382667023425915
330,4.386694868293755,-4.780828202117052,-1.0228963904452142,-0.7116384150240882
331,4.399987883046161,-4.739231430803137,-1.0119910564908619,-0.7032317202434359
332,4.413280897798567,-4.70375808674069,-1.024039465959992,-0.7138320914560371
333,4.426573912550972,-4.669580014881669,-1.0572783157212688,-0.7420906395462707
334,4.4398669273033775,-4.631650743009302,-1.1076525939484638,-0.7847144546056677
335,4.453159942055782,-4.585433719779945,-1.1695531549137526,-0.8370145738748689
336,4.466452956808188,-4.5275878368251385,-1.236791030016615,-0.8936993346147645
337,4.479745971560593,-4.456463909693968,-1.303597972487244,-0.9497443569028317
338,4.493038986312999,-4.372311455179732,-1.3654513830216135,-1.0011590754409123
339,4.506332001065403,-4.277165576063627,-1.4195810628184409,-1.0455051707912475
340,4.519625015817809,-4.174454111114257,-1.4651034279171171,-1.0820905223146797
341,4.532918030570214,-4.068415717449671,-1.5028163984633922,-1.1118395560656906
342,4.54621104532262,-3.9634415873685565,-1.5347495345434992,-1.1369034403000702
343,4.559504060075025,-3.8634499123751977,-1.5635872987459807,-1.1601079512858448
344,4.57279707482743,-3.771382915583186,-1.592073638086294,-1.1843437334885136
345,4.586090089579836,-3.688890758516997,-1.6224799498278335,-1.2119940197559138
346,4.599383104332241,-3.616237670861649,-1.6561932639634274,-1.2444800663235482
347,4.612676119084647,-3.552429692752606,-1.6934654597777865,-1.2819883017386133
348,4.625969133837051,-3.4955188580866823,-1.7333538399830906,-1.3234212288116238
349,4.639262148589457,-3.4429956731054796,-1.7738682492771038,-1.3665818295141425
350,4.652555163341862,-3.392162763622849,-1.8123133234576903,-1.4085615489844987
351,4.665848178094268,-3.340408292772317,-1.8457792667040374,-1.4462655990099544
352,4.679141192846673,-3.2853680334313515,-1.8717015380839441,-1.47698724421184
353,4.692434207599078,-3.2250512294024474,-1.888390254176657,-1.4989386902863544
354,4.705727222351483,-3.1580629119003842,-1.895429739523084,-1.5116566549126118
355,4.719020237103889,-3.0840469640660437,-1.8938670654502936,-1.5162202106420801
356,4.732313251856295,-3.0043891198650847,-1.8861417475593405,-1.5152434605721166
357,4.745606266608699,-2.9230784814450153,-1.8757516884724867,-1.512633374976943
358,4.758899281361105,-2.847477937232299,-1.866696332556957,-1.5131302065191543
359,4.77219229611351,-2.7886598363311825,-1.8627794642607836,-1.5216719477638845
360,4.785485310865916,-2.7609788885144613,-1.866884951735942,-1.5426473353956067
361,4.798778325618321,-2.780703318946875,-1.8803552448891836,-1.5791287869409585
362,4.812071340370726,-2.863780916053108,-1.9026015227417037,-1.6322072454016332
363,4.825364355123131,-3.0231031934978483,-1.9310510467245736,-1.7005731191889348
364,4.838657369875537,-3.2658505520449603,-1.9614858066929897,-1.7804797479637662
365,4.851950384627942,-3.591571132966886,-1.988747348370301,-1.8661700168126343
366,4.865243399380347,-3.9915276985538357,-2.0076897129124336,-1.9507435507909519
367,4.8785364141327525,-4.449559573156469,-2.0141834740833406,-2.027317039436828
368,4.891829428885158,-4.944324131530711,-2.005940157625105,-2.0902264738356
369,4.905122443637564,-5.452415825947398,-1.9829566551084148,-2.1359794864206254
370,4.918415458389969,-5.951628193478641,-1.9474687793189243,-2.1637116127425373
371,4.931708473142374,-6.42360892999034,-1.9034247438073402,-2.1750257465163148
372,4.945001487894779,-6.855370956533025,-1.855606339469307,-2.173264161925696
373,4.958294502647185,-7.239488429939343,-1.8086065667601268,-2.1624239813504094
374,4.97158751739959,-7.573189625251341,-1.7659001246511905,-2.146026045632178
375,4.984880532151995,-7.856820119007585,-1.7292146929928471,-2.12624910233407
376,4.9981735469044,-8.092213700964827,-1.698335152889735,-2.1035455326772525
377,5.011466561656806,-8.281391850887639,-1.6713676422890202,-2.076797252878294
378,5.0247595764092114,-8.425801881471429,-1.6453804611041232,-2.0439083728575436
379,5.038052591161616,-8.526097633955827,-1.6172515969496501,-2.002618706125016
380,5.051345605914022,-8.582328311441222,-1.5845103738883417,-1.951288597259182
381,5.064638620666427,-8.594348003348614,-1.5459734469162536,-1.8894486778894595
382,5.077931635418833,-8.562277494413642,-1.5020372878692658,-1.8180022887633633
383,5.091224650171238,-8.486912563423841,-1.4545811005847458,-1.739077553505255
384,5.104517664923643,-8.370041982447288,-1.4065297836307664,-1.655616959835156
385,5.117810679676048,-8.214678449627845,-1.3612020004209673,-1.5708428093401503
386,5.131103694428454,-8.025202711969886,-1.3216079511677719,-1.4877416263927539
387,5.144396709180859,-7.807393677287122,-1.2898602538629462,-1.4086794510416332
388,5.157689723933264,-7.568301212878239,-1.2668238573900814,-1.3352101291798815
389,5.1709827386856695,-7.315935325192781,-1.2520676662271255,-1.2680855561343716
390,5.184275753438075,-7.058786480899868,-1.2441060298329085,-1.2074299651956504
391,5.1975687681904805,-6.805230694537817,-1.2408496766492436,-1.1530066264479892
392,5.210861782942886,-6.562892380418917,-1.2401406332160683,-1.104491848280572
393,5.224154797695291,-6.338040499448463,-1.240236865650808,-1.0616827470046155
394,5.237447812447696,-6.13509080038326,-1.2401413939837123,-1.0245982743725826
395,5.250740827200102,-5.956283513685965,-1.2397252169119712,-0.9934736300820854
396,5.264033841952507,-5.801595545535092,-1.239651839027611,-0.968678739795235
397,5.277326856704912,-5.668920761362206,-1.2411525540467607,-0.9506007883307207
398,5.290619871457317,-5.554510622970343,-1.2457159105502964,-0.9395205757530025
399,5.303912886209723,-5.453619866559899,-1.2547468293760713,-0.93549511851357
400,5.317205900962128,-5.361263656263699,-1.2692357067043845,-0.9382489770106658
401,5.330498915714534,-5.272977064075913,-1.289470717673665,-0.9470819216837378
402,5.343791930466939,-5.185478164205433,-1.314833268549627,-0.9608173285030353
403,5.357084945219344,-5.09716326271398,-1.3437297343032986,-0.97783163898376
404,5.37037795997175,-5.008390304477354,-1.3737153618487243,-0.9962052594464882
405,5.383670974724155,-4.921521283940349,-1.401841946840812,-1.0140097010342057
406,5.39696398947656,-4.840696623056534,-1.425204814086838,-1.029696890240683
407,5.410257004228965,-4.771319063289266,-1.4415906344346792,-1.0425011215793967
408,5.423550018981371,-4.719253124349159,-1.4500655439348744,-1.0527283541808834
409,5.436843033733776,-4.689810404660085,-1.4513258807325986,-1.0618151803966556
410,5.450136048486182,-4.686678390482729,-1.4476803195106496,-1.0720977618660403
411,5.4634290632385865,-4.711022246668348,-1.4426339930165675,-1.086322025135621
412,5.476722077990992,-4.760997858850616,-1.4401673164577282,-1.107014543597278
413,5.4900150927433975,-4.831834376327056,-1.4438975521768038,-1.1358816662789692
414,5.503308107495803,-4.916494061262488,-1.4563423963147915,-1.1733931976615615
415,5.516601122248208,-5.006754199719288,-1.478461694799973,-1.2186434693683128
416,5.529894137000613,-5.094445845476424,-1.509555712890414,-1.2694948143452793
417,5.543187151753019,-5.172565521877433,-1.5474859306660254,-1.3229299612555376
418,5.556480166505424,-5.236045179618638,-1.5890995385516677,-1.375496642658987
419,5.56977318125783,-5.282087796380339,-1.6307105002997493,-1.423730678142256
420,5.583066196010234,-5.310104715918232,-1.668522842572432,-1.4644867259265444
421,5.59635921076264,-5.321383972126878,-1.698954112872216,-1.495166779985487
422,5.609652225515045,-5.318648817378891,-1.718889706292354,-1.5138847759302567
423,5.622945240267451,-5.305629207234523,-1.7259336457643661,-1.5196167494522985
424,5.636238255019856,-5.286691820333578,-1.7187003801758145,-1.5123560537831575
425,5.649531269772261,-5.266500759825965,-1.6971277775992932,-1.4932425950076438
426,5.662824284524667,-5.249650167230088,-1.6627208046050717,-1.4645960109534353
427,5.676117299277072,-5.240232813833388,-1.6186005036217386,-1.429779646424062
428,5.689410314029478,-5.241366296974782,-1.5692589687442478,-1.3928596330490652
429,5.702703328781882,-5.254757194522185,-1.5200035010365396,-1.3580869827596702
430,5.715996343534288,-5.280413980106151,-1.4761796756802406,-1.3292958858469865
431,5.729289358286693,-5.316606031933845,-1.4423483162715764,-1.3093529997711062
432,5.742582373039099,-5.360109179838552,-1.421617403069473,-1.2997915588635083
433,5.755875387791503,-5.406695752013916,-1.4152836900203745,-1.3007155566686752
434,5.769168402543909,-5.451752048137073,-1.4228386708852594,-1.3109772854769153
435,5.7824614172963145,-5.490874206392288,-1.4422811954125876,-1.3285474395373353
436,5.79575443204872,-5.520321795829663,-1.470599940768129,-1.3509460650578622
437,5.8090474468011255,-5.537282148607314,-1.5042713371814278,-1.3756061953092404
438,5.82234046155353,-5.539977270730572,-1.5396617484498631,-1.4000959564126871
439,5.835633476305936,-5.52768850710191,-1.5732998666475992,-1.422202167995456
440,5.848926491058341,-5.500764935530531,-1.602057935862336,-1.439943145798023
441,5.862219505810747,-5.460632997400096,-1.6233167070901302,-1.451603206585887
442,5.875512520563151,-5.409768838699206,-1.6351768001116347,-1.455858682860422
443,5.888805535315557,-5.351562513336196,-1.6367289016399176,-1.4520082127717453
444,5.902098550067962,-5.290011610073712,-1.6283328513683577,-1.4402545581083976
445,5.915391564820368,-5.22922872943904,-1.6118094835317696,-1.4219376301077662
446,5.928684579572773,-5.172813454955157,-1.5904379618202538,-1.3996054957965716
447,5.941977594325178,-5.123198145784417,-1.5686796226162967,-1.3768355589248584
448,5.955270609077584,-5.0811064506430785,-1.5516095803025274,-1.3577756998384591
449,5.968563623829989,-5.0452569632303685,-1.5441157809660098,-1.3464531606180827
450,5.981856638582395,-5.012407587971667,-1.5500040218790865,-1.345980088418778
451,5.995149653334799,-4.977777084117989,-1.5712040262767446,-1.357844227420026
452,6.008442668087205,-4.9358040160384435,-1.6072810047017179,-1.3814834427225686
453,6.02173568283961,-4.8811187812175545,-1.6554027166788308,-1.414286413473027
454,6.035028697592016,-4.809533792595886,-1.7107999249810395,-1.452047881370616
455,6.048321712344421,-4.718832195443641,-1.767622202631028,-1.4897733419634052
456,6.061614727096826,-4.609177859199041,-1.819981132520806,-1.5226265174554108
457,6.074907741849231,-4.483069285603026,-1.8629306604467553,-1.5467822923426184
458,6.088200756601637,-4.344878168667499,-1.8931722239402926,-1.5599949729171252
459,6.1014937713540425,-4.200103366810839,-1.9093693009112878,-1.5617908118049537
460,6.114786786106447,-4.054506041827122,-1.912071092148364,-1.5533022403612506
461,6.128079800858853,-3.9132741934274895,-1.903337596326822,-1.5368417539024357
462,6.141372815611258,-3.780318302631814,-1.8862040216668792,-1.5153478563251261
463,6.154665830363664,-3.6577535490550463,-1.864118351410077,-1.4918273814303904
464,6.167958845116069,-3.545601342643105,-1.8404467503155144,-1.4688858143104366
465,6.181251859868474,-3.4417531742610668,-1.818091648985318,-1.448401446796481
466,6.194544874620879,-3.342272168458124,-1.7992301920521494,-1.4313748100464392
467,6.207837889373285,-3.242129721760284,-1.7851686780849636,-1.4179725605490505
468,6.22113090412569,-3.1364438573417917,-1.776317071496785,-1.4077725828894985
469,6.234423918878095,-3.022174433952448,-1.772297869266793,-1.4001887199224665
470,6.2477169336305005,-2.9000482005395565,-1.7721946365136243,-1.3950034848265676
471,6.261009948382906,-2.7762891363030304,-1.7749092226836882,-1.3928783243989573
472,6.274302963135312,-2.6636012003570313,-1.7795454986078059,-1.3956721314888845
473,6.287595977887717,-2.5808734714934776,-1.7856992449812534,-1.4064098094946527
474,6.300888992640122,-2.5512951391980287,-1.7935362809143518,-1.428817762365855
475,6.314182007392527,-2.598957553472932,-1.8035953781535299,-1.466469176276098
476,6.327475022144933,-2.744486171544997,-1.8163459283192283,-1.5217202310089084
477,6.340768036897338,-3.0006363998020213,-1.8316292729994132,-1.5947183090678017
478,6.354061051649743,-3.3689494210541646,-1.848177029733824,-1.682782638940313
479,6.367354066402148,-3.8384028669781833,-1.863400395985586,-1.7803811562334635
480,6.380647081154554,-4.386522826484513,-1.8735757426412645,-1.879773756048643
481,6.393940095906959,-4.982781961611782,-1.8744345218941552,-1.972208702749886
482,6.407233110659365,-5.593499493756121,-1.862038125705916,-2.0494037062752137
483,6.42052612541177,-6.187080373975279,-1.833722336092322,-2.104964075764298
484,6.433819140164175,-6.738395092804574,-1.788861372183173,-2.135409246515478
485,6.447112154916581,-7.231398066291287,-1.7292379573848888,-2.140585702107441
486,6.460405169668986,-7.659596962132103,-1.6589018485546307,-2.1234031376667524
487,6.473698184421391,-8.024552359615168,-1.5835277507267076,-2.0889946917535758
488,6.486991199173796,-8.333046215376262,-1.5094101944145122,-2.043528271847925
489,6.500284213926202,-8.593793725650789,-1.4423251387082139,-1.9929563275538937
490,6.513577228678607,-8.814543881944067,-1.38652233530252,-1.9419778824601002
491,6.526870243431013,-9.000161847871752,-1.3440798854444247,-1.8934109556819585
492,6.5401632581834175,-9.151923119993024,-1.31476064967753,-1.8480612057622396
493,6.553456272935823,-9.267906853887858,-1.29638216036388,-1.8050532273944018
494,6.5667492876882285,-9.34414612594551,-1.2855806445183675,-1.7624893942755975
495,6.580042302440634,-9.376102299264785,-1.2787514138855247,-1.7182354985908381
496,6.593335317193039,-9.36005760664214,-1.2729110346870312,-1.6706161688942556
497,6.606628331945444,-9.294130637375266,-1.2662637910896948,-1.6188444234423327
498,6.61992134669785,-9.178780005744255,-1.2583554294532908,-1.5631033886557566
499,6.633214361450255,-9.016828242362305,-1.2498278942694783,-1.5043166266550207
500,6.646507376202661,-8.813156073155294,-1.241904770136866,-1.44374211887688
501,6.659800390955065,-8.574248101763539,-1.2357998641305412,-1.3825641883309718
502,6.673093405707471,-8.307721678350696,-1.2322350418166543,-1.3216262923120465
503,6.686386420459876,-8.0218897266487,-1.2311898244926858,-1.2613680859716556
504,6.699679435212282,-7.725346853918587,-1.2319148245873455,-1.201942456481144
505,6.712972449964687,-7.426547723185258,-1.2331579029566921,-1.143427410458215
506,6.726265464717092,-7.133359785063559,-1.2335011671163392,-1.0860306027580962
507,6.739558479469498,-6.852603411953058,-1.2316987621027877,-1.0302086695495167
508,6.752851494221903,-6.589629073970361,-1.226934210646763,-0.9766732661181489
509,6.766144508974309,-6.348009434836722,-1.218963965130343,-0.9263077854338266
510,6.779437523726713,-6.129425279397054,-1.2081584381055162,-0.8800518318873978
511,6.792730538479119,-5.933786500082282,-1.1954759139204356,-0.8388137798810562
512,6.806023553231524,-5.759563799549968,-1.1824033876326896,-0.8034484360521454
513,6.81931656798393,-5.6042442687757115,-1.170878787492614,-0.7748002080366532
514,6.832609582736335,-5.464795178599615,-1.1631850220679214,-0.7537774179385359
515,6.84590259748874,-5.3380356311758606,-1.1617911635914413,-0.7414019412043147
516,6.8591956122411455,-5.220862660401868,-1.169117875875017,-0.7387767491100002
517,6.872488626993551,-5.110333681886639,-1.1872235929632668,-0.7469339193847139
518,6.8857816417459565,-5.0036509008624375,-1.2174383273652867,-0.7665633055334038
519,6.899074656498361,-4.89811577436487,-1.2600022074248771,-0.7976674968871353
520,6.912367671250767,-4.791123093414823,-1.3137854936093152,-0.8392287284013049
521,6.925660686003172,-4.680249485398821,-1.3761704316207324,-0.8889952297647419
522,6.938953700755578,-4.563463712053995,-1.4431620247391495,-0.9434886540826587
523,6.952246715507982,-4.439446966731371,-1.5097646598043561,-0.9982964298123284
524,6.965539730260388,-4.30796323083007,-1.5706136010706815,-1.0486464579251895
525,6.978832745012793,-4.170173285482222,-1.6207868279685704,-1.0901796570578732
526,6.992125759765199,-4.028760632503831,-1.6566554694147406,-1.119760902507362
527,7.005418774517604,-3.8877547493529168,-1.6765837752279622,-1.1361277585866068
528,7.018711789270009,-3.7520078553019447,-1.681289358096331,-1.140191163225556
529,7.032004804022415,-3.6263942107421343,-1.6737368566323758,-1.1348793139843154
530,7.04529781877482,-3.5149176180750383,-1.6585540451050351,-1.1245384679628958
531,7.058590833527226,-3.419979608858782,-1.6410937334236977,-1.114033561518832
532,7.07188384827963,-3.3420355877225676,-1.6263700787477102,-1.1077809550075368
533,7.085176863032036,-3.2797461701520993,-1.6181355172073038,-1.108961521739097
534,7.098469877784441,-3.2305610901731723,-1.6183218870251954,-1.1190999781803335
535,7.111762892536847,-3.1915249219497115,-1.6269638718857165,-1.1380814856342594
536,7.125055907289251,-3.1600272872166046,-1.642591514464927,-1.16455156108628
537,7.138348922041657,-3.1342546002982217,-1.662960334724343,-1.1965497602201682
538,7.151641936794063,-3.1132135066768907,-1.6859102350049369,-1.232184171862081
539,7.164934951546468,-3.096344694507068,-1.7101198961536077,-1.2701652428747308
540,7.1782279662988735,-3.0828866442445553,-1.7355513798710391,-1.3100713850542676
541,7.191520981051278,-3.0712478755536443,-1.7634523806009557,-1.3522951721944296
542,7.204813995803684,-3.058678083373894,-1.7958885019709363,-1.39769786878072
543,7.218107010556089,-3.0414793252559926,-1.8348979177800642,-1.447067949458833
544,7.231400025308495,-3.0158710700132727,-1.8814732762220119,-1.5005296918180386
545,7.244693040060899,-2.9794386329571,-1.9346530260359365,-1.5570754033009557
546,7.257986054813305,-2.9328888184478177,-1.9910174773782905,-1.6143879565785302
547,7.27127906956571,-2.881657188035476,-2.044813526304745,-1.6690645824286277
548,7.284572084318116,-2.83681877130851,-2.0887786519001104,-1.7172462081529538
549,7.297865099070521,-2.8148111878216002,-2.11553454831002,-1.755524139498466
550,7.311158113822926,-2.8357192895455516,-2.119235315436348,-1.781886358550493
551,7.3244511285753315,-2.9202579357564935,-2.0970503644838265,-1.7964272260995537
552,7.337744143327737,-3.0860090844640036,-2.050079566313434,-1.8015965652393438
553,7.351037158080143,-3.343765456222192,-1.983436344416633,-1.8018880675862166
554,7.364330172832547,-3.6948823289264,-1.9054503371278473,-1.8030180349249587
555,7.377623187584953,-4.130311795004692,-1.826168177734229,-1.8107763471751919
556,7.390916202337358,-4.631566832098018,-1.7555028504424341,-1.8298096324751427
557,7.404209217089764,-5.173380553385724,-1.701454112966976,-1.8626088103535965
558,7.417502231842169,-5.727438234152826,-1.6687820017165158,-1.908922392162805
559,7.430795246594574,-6.2663654037256284,-1.6583827794981498,-1.9657175266026148
560,7.444088261346979,-6.767179609752247,-1.6674362993285625,-2.027685960923659
561,7.457381276099385,-7.2136160216439,-1.6902184345477584,-2.0881711355609576
562,7.4706742908517905,-7.5970402555026,-1.7193459224122314,-2.1403053738650986
563,7.483967305604195,-7.915980604301472,-1.7471668508715454,-2.1781144692318763
564,7.497260320356601,-8.174573617757524,-1.7670273681083084,-2.197376654417182
565,7.510553335109006,-8.3803735100772,-1.774214347005603,-2.1961003550581584
566,7.523846349861412,-8.542012428646188,-1.76646581910451,-2.1745823162506706
567,7.537139364613817,-8.667135429669324,-1.7440290179265356,-2.1350941872914686
568,7.550432379366222,-8.76091260891095,-1.7093136691057194,-2.0813013227582324
569,7.563725394118627,-8.825290930367244,-1.666233539079392,-2.0175392699505474
570,7.577018408871033,-8.85901377340907,-1.6193594949472865,-1.948071841491212
571,7.590311423623438,-8.858319197017893,-1.5730293349481184,-1.876443618514827
572,7.603604438375843,-8.818138263031935,-1.5305711283399228,-1.8050250886141521
573,7.616897453128248,-8.733559548527193,-1.493785583158282,-1.7348247941909245
574,7.630190467880654,-8.601303040181124,-1.4627865467002994,-1.6655998375833174
575,7.6434834826330595,-8.420948362251414,-1.436218099699751,-1.5962326160432994
576,7.656776497385465,-8.195690452496624,-1.4117730639492434,-1.5252738809763806
577,7.67006951213787,-7.932465800956643,-1.386864840241559,-1.4515084328304317
578,7.683362526890275,-7.641413555234883,-1.3592798566562654,-1.3744026009840382
579,7.696655541642681,-7.334785466676201,-1.3276666756283866,-1.2943419949823232
580,7.709948556395086,-7.025543080751263,-1.2917814777389915,-1.2126397085256686
581,7.723241571147491,-6.725929828007865,-1.25248004020112,-1.131357531585662
582,7.736534585899896,-6.446269997751814,-1.2115026134021167,-1.0530165591197573
583,7.749827600652302,-6.1941583893743255,-1.1711332703047483,-0.9802789503331446
584,7.763120615404707,-5.974106590599547,-1.1338299344894507,-0.9156697407829028
585,7.776413630157113,-5.78762679022617,-1.101914510941691,-0.8613841070229558
586,7.789706644909518,-5.63366240143077,-1.0773814409343543,-0.81919276107175
587,7.802999659661923,-5.50921702331543,-1.0618310257626393,-0.7904188325808433
588,7.816292674414329,-5.410005590470012,-1.056478006879524,-0.7759257127016728
589,7.829585689166734,-5.330976697199074,-1.0621525616924792,-0.7760467217181948
590,7.842878703919139,-5.266636951775745,-1.0792207365345279,-0.790418644458943
591,7.856171718671544,-5.211216420137831,-1.1074041016908882,-0.8177462760408323
592,7.86946473342395,-5.158796326406221,-1.1455499553724147,-0.855594589716503
593,7.882757748176355,-5.10353434070975,-1.1914583977854738,-0.900340294493073
594,7.896050762928761,-5.040064528954456,-1.2418839515650162,-0.9473910405025937
595,7.909343777681165,-4.9640513882661335,-1.2927912595177933,-0.9917034015746641
596,7.922636792433571,-4.872787138585981,-1.3398716604565855,-1.0285306382747408
597,7.935929807185976,-4.76567298459454,-1.379245634895921,-1.0542467319163702
598,7.949222821938382,-4.6444300742084135,-1.4082104077218067,-1.0670534633740831
599,7.962515836690787,-4.512938606826083,-1.4258609737738166,-1.06739388289538
600,7.975808851443192,-4.37668869613275,-1.4334255647867469,-1.0579618872156742
601,7.989101866195598,-4.241921697800155,-1.434210497302642,-1.043292406459962
602,8.002394880948003,-4.114618179460931,-1.4331298945615558,-1.0290099084454936
603,8.015687895700408,-3.9995253396337995,-1.4358815832695884,-1.0208774029547396
604,8.028980910452814,-3.8994060554409797,-1.4479024866882306,-1.023812219304451
605,8.042273925205219,-3.814645839673976,-1.4732846481327568,-1.0410260090172787
606,8.055566939957624,-3.7432901962532523,-1.5138530664486811,-1.0734210377722362
607,8.06885995471003,-3.6815121674732767,-1.5685957871819272,-1.1193427267115656
608,8.082152969462435,-3.6244298228001828,-1.633590420170197,-1.174746886859772
609,8.095445984214841,-3.567113517203643,-1.702488484516814,-1.233781940571945
610,8.108738998967246,-3.5055645405254805,-1.7675102161075984,-1.2897128759060599
611,8.12203201371965,-3.4374376975853296,-1.820790877921251,-1.3360399170628772
612,8.135325028472057,-3.362336158798525,-1.8558334782478165,-1.3676139810794776
613,8.148618043224461,-3.2816207581198378,-1.8687849375710488,-1.3815420073355944
614,8.161911057976868,-3.1978200228882008,-1.859273720827849,-1.377714070757905
615,8.175204072729272,-3.1138610144400447,-1.8306240063835524,-1.3588612999721879
616,8.188497087481677,-3.032419618126739,-1.7893804646034217,-1.3301481770381671
617,8.201790102234083,-2.955674115830892,-1.7442156575763694,-1.2983901011193233
618,8.215083116986488,-2.885623360197694,-1.7044201621942712,-1.2710466983631132
619,8.228376131738893,-2.8249259336968855,-1.6782644019886548,-1.2551632528249062
620,8.241669146491299,-2.7779943436750085,-1.6715486093148448,-1.2564193471616754
621,8.254962161243704,-2.751921240830975,-1.6866161339882577,-1.2784074806819081
622,8.26825517599611,-2.756789555196608,-1.722007045947515,-1.3222203340982661
623,8.281548190748515,-2.805049524706879,-1.7727999972416855,-1.3863846651280012
624,8.29484120550092,-2.9099054332229057,-1.8315612317967516,-1.4671449982622933
625,8.308134220253326,-3.0829710249147793,-1.889714675853996,-1.5590655652345924
626,8.32142723500573,-3.331725244316644,-1.9390795438739337,-1.6558768557159818
627,8.334720249758137,-3.6574301382252843,-1.9732968280693042,-1.7514434717513532
628,8.348013264510541,-4.054098338522479,-1.9888847856513707,-1.8406851348748634
629,8.361306279262946,-4.5088255596106235,-1.985725792972707,-1.920264189390392
630,8.374599294015352,-5.003419028942071,-1.9668885028334622,-1.9888804693557494
631,8.387892308767757,-5.516891516999044,-1.9378180885252583,-2.0470937313405315
632,8.401185323520163,-6.028182870652204,-1.9050613784626456,-2.0967103922310057
633,8.414478338272568,-6.518482777518468,-1.87480271450312,-2.1398924289937784
634,8.427771353024973,-6.972733214180337,-1.8515392967110194,-2.1782319207699152
635,8.44106436777738,-7.380185553868657,-1.83720019876261,-2.212052414479336
636,8.454357382529784,-7.73415453341113,-1.8309095306125158,-2.240136926146049
637,8.467650397282188,-8.031265263956373,-1.8294339490974965,-2.259957830517179
638,8.480943412034595,-8.270510950039288,-1.8281800201089957,-2.268333990796338
639,8.494236426787,-8.452363197547045,-1.8224669076384068,-2.2623120660951774
640,8.507529441539406,-8.578063311430197,-1.8087348242603556,-2.240002834999445
641,8.52082245629181,-8.64912758402784,-1.785378457348073,-2.2011219086520377
642,8.534115471044215,-8.66705558081363,-1.753008708778085,-2.1470831116294775
643,8.547408485796621,-8.63323724083035,-1.7141118065401217,-2.080639808299629
644,8.560701500549026,-8.549078033931746,-1.6722425592397976,-2.0052129587334906
645,8.573994515301433,-8.41635546744995,-1.6310080766174488,-1.924133211968143
646,8.587287530053837,-8.237763432820572,-1.5931361039622423,-1.8400291857983628
647,8.600580544806242,-8.017517474680771,-1.55987304909538,-1.7545219960329919
648,8.613873559558648,-7.761836580359901,-1.5308441464322111,-1.6682731689118753
649,8.627166574311053,-7.479123914861074,-1.5043720174612358,-1.5813241459030545
650,8.64045958906346,-7.179737267202147,-1.4781302953417088,-1.4935934984153103
651,8.653752603815864,-6.875336973917693,-1.4499341080947088,-1.4053745331980658
652,8.667045618568268,-6.577892694808012,-1.4184515224873175,-1.3176958932032654
653,8.680338633320675,-6.29850559419265,-1.383658276919325,-1.2324575607205837
654,8.69363164807308,-6.0462524007460186,-1.3469394488199626,-1.1523186913073296
655,8.706924662825484,-5.827270062082365,-1.3108425960706578,-1.080375744565615
656,8.72021767757789,-5.644259182565664,-1.2785766351494559,-1.0197140808282525
657,8.733510692330295,-5.496491404894489,-1.2534012247932866,-0.9729335874328209
658,8.746803707082702,-5.38028844611184,-1.23805081758785,-0.9417396391559278
659,8.760096721835106,-5.289844580805564,-1.2342971132536271,-0.9266660333115809
660,8.77338973658751,-5.218225532426454,-1.2427005835110911,-0.926970483494795
661,8.786682751339917,-5.158395491950076,-1.2625609206960235,-0.9407220871365888
662,8.799975766092322,-5.104166227055092,-1.2920546650494513,-0.965078344216197
663,8.813268780844728,-5.05098688798637,-1.3285341349777258,-0.9967164855323996
664,8.826561795597133,-4.996485967416912,-1.3689389852698506,-1.0323386084049964
665,8.839854810349538,-4.94066290202631,-1.4102376412252413,-1.0691284492113657
666,8.853147825101944,-4.885649616013209,-1.449788418668783,-1.1050275519601755
667,8.866440839854349,-4.8350466784689505,-1.4855173260749677,-1.1387419658304583
668,8.879733854606755,-4.792965891430702,-1.515867793020731,-1.1694845486830254
669,8.89302686935916,-4.763025035923429,-1.539574035326038,-1.1965694061103773
670,8.906319884111564,-4.747579294023009,-1.5554020190495295,-1.2190531805653264
671,8.91961289886397,-4.7474047685974465,-1.5620379793234387,-1.2356186817293473
672,8.932905913616375,-4.761888875318353,-1.558252723037278,-1.2448064038354083
673,8.94619892836878,-4.789592725443635,-1.5433424344389446,-1.245548338843626
674,8.959491943121186,-4.828915253727593,-1.5176989823350113,-1.2378104651897115
675,8.972784957873591,-4.878571554852951,-1.4832683716348816,-1.223076292653106
676,8.986077972625997,-4.9377063673381665,-1.4436674463637866,-1.20444463008584
677,8.999370987378402,-5.00564113866458,-1.403847176821071,-1.1862560076255417
678,9.012664002130808,-5.08140965080122,-1.3693623870926181,-1.173339221566789
679,9.025957016883211,-5.163302540951378,-1.3454522798106474,-1.1701013558827855
680,9.039250031635618,-5.2486022220622175,-1.3361888542645979,-1.179717310906467
681,9.052543046388024,-5.333588120573048,-1.343895040993611,-1.2036065368411832
682,9.065836061140429,-5.413788938837428,-1.3689086795911467,-1.241260494659776
683,9.079129075892832,-5.48439811863266,-1.409640446822263,-1.2903679791749658
684,9.09242209064524,-5.5407623129083525,-1.462804964017429,-1.3471260616492429
685,9.105715105397644,-5.578883690642768,-1.523718898972819,-1.4066360530476005
686,9.11900812015005,-5.595913718426468,-1.5866356566362934,-1.4633434100992277
687,9.132301134902455,-5.590627720447929,-1.6451686270643924,-1.5115424727894908
688,9.14559414965486,-5.563841974149751,-1.6928868637502212,-1.5459877342775497
689,9.158887164407266,-5.518682735594303,-1.724119720209578,-1.5626139217426884
690,9.172180179159673,-5.46057779886799,-1.73489615500399,-1.5592833574190206
691,9.185473193912076,-5.396855231395054,-1.7238235178072525,-1.5363940969540162
692,9.198766208664482,-5.335913824771728,-1.6926438777394994,-1.4971450760504144
693,9.212059223416889,-5.286052265180437,-1.6462360730755339,-1.4472951341724158
694,9.225352238169291,-5.254162796873244,-1.5919589083899344,-1.3943681372774943
695,9.238645252921698,-5.244564917563251,-1.5384133009812206,-1.346410785669871
696,9.251938267674102,-5.258248624299898,-1.49387377897462,-1.3105494634018389
697,9.265231282426509,-5.292712764388127,-1.46474231830529,-1.291667576758547
698,9.278524297178912,-5.3424441529474525,-1.454377461234149,-1.2915082431022158
699,9.29181731193132,-5.399928730598933,-1.4625536459338386,-1.3084048205078722
700,9.305110326683725,-5.456965198225122,-1.485645905319159,-1.3376881808314365
701,9.31840334143613,-5.505999084457955,-1.5174645791986983,-1.3726623765781323
702,9.331696356188536,-5.541217730782511,-1.550529821232238,-1.4059215669602843
703,9.34498937094094,-5.559224639762301,-1.5775043820902672,-1.430725299489151
704,9.358282385693348,-5.559215135154311,-1.5925008502076814,-1.4421606896843793
705,9.371575400445751,-5.542679081265302,-1.592034009529732,-1.4378865545525141
706,9.384868415198156,-5.512743419435671,-1.575479115898706,-1.4183543825148597
707,9.398161429950562,-5.473324510647329,-1.545000253600511,-1.3865097418181254
708,9.411454444702969,-5.428277556925562,-1.5050097274766459,-1.3470739472951436
709,9.424747459455372,-5.380705250343058,-1.4612940564504235,-1.3055744000008611
710,9.438040474207778,-5.33253002566107,-1.4199843731752928,-1.2673244734411149
711,9.451333488960184,-5.284363138124926,-1.3865557765006127,-1.2365470752848493
712,9.464626503712587,-5.235639597621818,-1.3650158458162371,-1.2157923500217904
713,9.477919518464994,-5.184945004714285,-1.357396875376207,-1.2057287309821823
714,9.491212533217398,-5.130444062036447,-1.3636102672520103,-1.2053045048269382
715,9.504505547969805,-5.070327439676535,-1.3816630741915634,-1.2122041967881467
716,9.51779856272221,-5.003212245033636,-1.4081806208633778,-1.2234758924845572
717,9.531091577474616,-4.928447788228484,-1.4391295231274457,-1.2361880338412359
718,9.54438459222702,-4.8462868004286435,-1.4705993911755595,-1.2479851599151313
719,9.557677606979423,-4.757890750768654,-1.499489622857422,-1.2574460914087389
720,9.570970621731831,-4.665160598871376,-1.5239689891705495,-1.2641984108025177
721,9.584263636484236,-4.5704248750143766,-1.5436300215928844,-1.2687998089258394
722,9.597556651236642,-4.476059842055371,-1.5593342257325948,-1.2724462058702257
723,9.610849665989049,-4.384137100457236,-1.5728154567380668,-1.2765954515533098
724,9.624142680741452,-4.296178755697904,-1.5861560555146268,-1.2825980636372587
725,9.637435695493858,-4.213056730938223,-1.601262909324765,-1.2914068257843878
726,9.650728710246264,-4.135021984652946,-1.619451590502874,-1.3034055938756937
727,9.664021724998667,-4.061810711632254,-1.6412086369406336,-1.318365889271086
728,9.677314739751074,-3.9927582293685644,-1.6661587757383638,-1.33551647371462
729,9.690607754503478,-3.9268604042191537,-1.693224649860327,-1.35369968109024
730,9.703900769255885,-3.862757226731586,-1.7209347074508,-1.3715865646211196
731,9.71719378400829,-3.7986687961369228,-1.7478109010888614,-1.3879246915070134
732,9.730486798760694,-3.7323763624517117,-1.7727533026755657,-1.401792157561605
733,9.7437798135131,-3.661385942962675,-1.7953373480214456,-1.4128283947721552
734,9.757072828265503,-3.5834117422864704,-1.8159545613477603,-1.4214104235571352
735,9.770365843017911,-3.4972515727394913,-1.8357588261632722,-1.4287461916701598
736,9.783658857770316,-3.403996403222125,-1.8564217289285017,-1.436864272554339
737,9.79695187252272,-3.3083473536636103,-1.8797426210495733,-1.4484876796204316
738,9.810244887275127,-3.2196587439276505,-1.907192039738307,-1.4667863787409745
739,9.823537902027532,-3.1522531446359725,-1.9394840193124727,-1.4950110120519484
740,9.836830916779938,-3.1246222482633135,-1.9762703420038403,-1.536025883614414
741,9.850123931532345,-3.1573540818525894,-2.0160276952760747,-1.5917859701764074
742,9.863416946284747,-3.269970116086516,-2.056169436242922,-1.662835060678926
743,9.876709961037154,-3.477216935756362,-2.0933631798118872,-1.7479255979352935
744,9.890002975789558,-3.785614784908927,-2.123984454924014,-1.8438593922117554
745,9.903295990541965,-4.1911201432720055,-2.144600064040547,-1.9456147315599435
746,9.91658900529437,-4.678572609778346,-2.152367596781287,-2.0467670618397813
747,9.929882020046774,-5.223205582403577,-2.1452682529576648,-2.1401476865883664
748,9.94317503479918,-5.794009584014767,-2.122153387093634,-2.218640602112566
749,9.956468049551583,-6.358283787424816,-2.0826588672905006,-2.276003726055293
750,9.96976106430399,-6.886422067792472,-2.027092540864972,-2.3076121042996887
751,9.983054079056396,-7.355932701110007,-1.9564006087042345,-2.311040319430139
752,9.9963470938088,-7.753893490385927,-1.8722625486827806,-2.2864153414309425
753,10.009640108561207,-8.07743371546402,-1.7772751803147973,-2.2364795070574544
754,10.022933123313612,-8.332296888753296,-1.6751083311671442,-2.166318705473376
755,10.036226138066016,-8.529947117722237,-1.5704886281481958,-2.0827468539167375
756,10.049519152818425,-8.68394258073541,-1.4689110307044688,-1.9933979818858651
757,10.062812167570828,-8.80637762473906,-1.3760734771244156,-1.9056505121939615
758,10.076105182323232,-8.905107448299743,-1.2971371979539223,-1.8255705918311391
759,10.08939819707564,-8.982255159312812,-1.23598794353386,-1.7570838167827605
760,10.102691211828043,-9.03420271297957,-1.1946823899939356,-1.7015478664196209
761,10.11598422658045,-9.052938331907523,-1.1732089574518996,-1.6578061236690718
762,10.129277241332854,-9.028346786291664,-1.1695989906787934,-1.6226840584512994
763,10.14257025608526,-8.95086011420957,-1.1803301871544931,-1.5917877232177646
764,10.155863270837663,-8.813873531472831,-1.200901290513528,-1.5604092486576566
765,10.16915628559007,-8.61545699679791,-1.2264409367832052,-1.5243474688733296
766,10.182449300342476,-8.359101520302454,-1.2522414172306418,-1.4805027903649157
767,10.19574231509488,-8.053470550590426,-1.2741634037592173,-1.4271843197193816
768,10.209035329847286,-7.711332078525563,-1.288916559073586,-1.364150701064147
769,10.222328344599692,-7.347985809317321,-1.2942598125480103,-1.2924693800574898
770,10.235621359352097,-6.9795402057574405,-1.289168463240901,-1.2143010596979544
771,10.248914374104505,-6.621332137700118,-1.2739825730133494,-1.13268950314998
772,10.262207388856908,-6.286655578565761,-1.2504985812742317,-1.0513754099843085
773,10.275500403609312,-5.985841439625553,-1.2219217250553682,-0.9745888254780128
774,10.28879341836172,-5.725662753084224,-1.1925893180322693,-0.9067433257892301
775,10.302086433114123,-5.5090395994898165,-1.1674201229544732,-0.8519791736795376
776,10.315379447866528,-5.335056154053136,-1.1511357671345184,-0.813577641217597
777,10.328672462618934,-5.199332158752337,-1.1474043170860726,-0.7933628878552487
778,10.34196547737134,-5.0947792559298195,-1.1581271080867777,-0.7912735107366826
779,10.355258492123744,-5.012711040662674,-1.183087275704288,-0.8052821134834193
780,10.36855150687615,-4.944182115252929,-1.220089663573026,-0.8317559076507244
781,10.381844521628556,-4.881340387482489,-1.2655722183865927,-0.8662104136865725
782,10.39513753638096,-4.818526577364229,-1.3155127526548385,-0.9042653975730781
783,10.408430551133366,-4.752873887956289,-1.3663518196757076,-0.9425250321719418
784,10.421723565885772,-4.684257900359502,-1.4156433060024254,-0.9791108698839657
785,10.435016580638177,-4.614605832066202,-1.4622361346855142,-1.0136802853008047
786,10.44830959539058,-4.5467534758384005,-1.50595363153759,-1.0469321112034005
787,10.461602610142988,-4.483177419457989,-1.5469144976492013,-1.0797762994909457
788,10.474895624895392,-4.424972448909864,-1.5847653429012494,-1.1124604841563968
789,10.4881886396478,-4.371364583077646,-1.6181212869346793,-1.1439585663193044
790,10.501481654400203,-4.319875237817445,-1.6444302993139541,-1.1718318323444867
791,10.514774669152608,-4.267049009615175,-1.6603258283009044,-1.192612556599962
792,10.528067683905014,-4.209500206279454,-1.6623738072035568,-1.2025975244211764
793,10.54136069865742,-4.144966323938507,-1.6480105112273866,-1.1988297231339928
794,10.554653713409824,-4.073083494637891,-1.6164313463670688,-1.1800142360427488
795,10.56794672816223,-3.9956927201435875,-1.5692172361050583,-1.1471490413797651
796,10.581239742914637,-3.9166094859943796,-1.510547007637335,-1.1037246411807056
797,10.59453275766704,-3.8409110206576176,-1.446917677299086,-1.0554317683771242
798,10.607825772419446,-3.773894806533676,-1.3863726672295618,-1.0094012574659883
799,10.62111878717185,-3.7199300801516477,-1.3373253876429385,-0.9730840369441793
800,10.634411801924257,-3.681455731615811,-1.3071627167977626,-0.9529612549661821
801,10.64770481667666,-3.658362511040036,-1.3009010825392477,-0.9533404648034802
802,10.660997831429068,-3.6479203950903365,-1.3202090467119467,-0.9755142051140987
803,10.674290846181473,-3.6452734480881666,-1.3630658005790772,-1.0175031172611955
804,10.687583860933875,-3.644359211541208,-1.4241835133751126,-1.0744722490966672
805,10.700876875686284,-3.6389842733717543,-1.4961169270245565,-1.1397306311058275
806,10.714169890438688,-3.6237669247666773,-1.5707869361267708,-1.2060642220400892
807,10.727462905191096,-3.5947604341170196,-1.6410319875823631,-1.2670733824414224
808,10.7407559199435,-3.5497499074315977,-1.7018151531950552,-1.31821703385
809,10.754048934695904,-3.4883819918092813,-1.7508455249688286,-1.357387744998502
810,10.76734194944831,-3.4123539336956905,-1.7885634015169019,-1.38499929184636
811,10.780634964200717,-3.3258176203488077,-1.8176142453830275,-1.4036954389605434
812,10.79392797895312,-3.235970465408081,-1.8420363630944194,-1.417840805829689
813,10.807220993705526,-3.153588157655533,-1.8663903012448233,-1.4329259222491013
814,10.82051400845793,-3.0931080554698234,-1.8949859619474638,-1.454942285899607
815,10.833807023210335,-3.071881223695352,-1.9312661529736963,-1.4897129858694174
816,10.847100037962742,-3.108401555201973,-1.9773335447955713,-1.542145555497791
817,10.860393052715146,-3.2196409134612516,-2.0335900456007763,-1.6154200347228636
818,10.873686067467553,-3.4179586002149227,-2.0984897473027293,-1.7102131961325435
819,10.886979082219955,-3.7082850126781075,-2.1684597681889715,-1.8241411683890911
820,10.900272096972364,-4.086310194359135,-2.2380786267323476,-1.9516272666968075
821,10.913565111724768,-4.538212506264025,-2.300587891934609,-2.0843411587927676
822,10.926858126477171,-5.042092423865863,-2.348740913972359,-2.212217520023001
823,10.94015114122958,-5.570845916710398,-2.3758837839952656,-2.324892542211373
824,10.953444155981984,-6.095860591360486,-2.3770638398066195,-2.4132613748399625
825,10.96673717073439,-6.590757290613516,-2.3499184255362384,-2.4708156223962687
826,10.980030185486797,-7.034466574348658,-2.295135851256969,-2.494485603581629
827,10.9933232002392,-7.413171073834147,-2.216387863212414,-2.4848569099502433
828,11.006616214991606,-7.720950224036644,-2.119764613702089,-2.4457928487164486
829,11.01990922974401,-7.95922209487651,-2.0128504196457535,-2.383613164647432
830,11.033202244496415,-8.135229463487768,-1.903632373730605,-2.306025705865148
831,11.046495259248822,-8.259876331739877,-1.7994331557083798,-2.220992128955577
832,11.059788274001226,-8.345242999110223,-1.7060226636736158,-2.135666932718343
833,11.073081288753633,-8.402138110159491,-1.6270124059844282,-2.0555145060905424
834,11.086374303506036,-8.438078685272208,-1.563586601576924,-1.9836927732304415
835,11.099667318258442,-8.456072696233253,-1.514580349313243,-1.9207828745294513
836,11.112960333010848,-8.45446517177126,-1.4768787209096765,-1.864922501233458
837,11.126253347763251,-8.427899116792656,-1.4460795840615284,-1.8123537809011963
838,11.13954636251566,-8.369190351487243,-1.4173337887328388,-1.7583259370750426
839,11.152839377268064,-8.271693308530073,-1.3862456682170232,-1.6982105307757025
840,11.166132392020469,-8.131601621434122,-1.3496876398123538,-1.6286141803381975
841,11.179425406772877,-7.9496192997849535,-1.3063692530599507,-1.5482384348683815
842,11.19271842152528,-7.731570959532673,-1.2570238214422034,-1.4582656758857224
843,11.206011436277686,-7.4877779946273195,-1.2041466222085162,-1.362152714038211
844,11.21930445103009,-7.231351521069945,-1.1513268962867926,-1.2648685018801402
845,11.232597465782495,-6.9758444891137765,-1.1023285199181114,-1.171769949042745
846,11.245890480534902,-6.732868260133976,-1.0601515030862931,-1.087414909122655
847,11.259183495287306,-6.510264055231954,-1.0263210486285128,-1.0146281179014474
848,11.272476510039713,-6.311242824154109,-1.000597219641429,-0.9540608749313816
849,11.285769524792116,-6.134631767780767,-0.9811898475809551,-0.9043439045131233
850,11.299062539544522,-5.976072235897055,-0.9654258903534223,-0.862766194772075
851,11.312355554296929,-5.829776788965524,-0.9506836192997765,-0.8262655752211192
852,11.325648569049331,-5.690331437545701,-0.9353179595619469,-0.7924297421832838
853,11.338941583801738,-5.554055456392582,-0.9192884895728508,-0.7602073918215544
854,11.352234598554144,-5.419600498397472,-0.9042821389353864,-0.7301240467739001
855,11.365527613306549,-5.287731863928004,-0.8932805958726264,-0.7039620422425795
856,11.378820628058955,-5.160500097997492,-0.8897080681279472,-0.6840461385520454
857,11.39211364281136,-5.040186702715552,-0.896440454747519,-0.6724092229296249
858,11.405406657563764,-4.928433159527276,-0.9150043955592687,-0.6701437636557273
859,11.418699672316173,-4.825838079962925,-0.9452228880806178,-0.6771598359130608
860,11.431992687068576,-4.73209261232422,-0.985399174349849,-0.6924029073604872
861,11.445285701820982,-4.646507798946831,-1.0329350225123985,-0.7144014171708368
862,11.458578716573388,-4.568648615797151,-1.0851272864721102,-0.7418880837562958
863,11.471871731325791,-4.498771187820611,-1.1398346573163203,-0.7742185676187913
864,11.485164746078198,-4.43786082658791,-1.195773849724549,-0.8114037061066754
865,11.498457760830602,-4.387246958526405,-1.2523648068541524,-0.8537404295226564
866,11.511750775583009,-4.347955881149176,-1.3092348222727044,-0.9012041244160734
867,11.525043790335411,-4.320076396869194,-1.3656350189025621,-0.9528776255246526
868,11.538336805087818,-4.302405162284239,-1.4200595381677792,-1.006688785273415
869,11.551629819840224,-4.292511262450422,-1.470271425016696,-1.059607437791198
870,11.564922834592627,-4.287175822128541,-1.5137653207772706,-1.108264566466191
871,11.578215849345034,-4.283013136605151,-1.548509283844748,-1.1497838684957808
872,11.59150886409744,-4.2770315295564085,-1.5736846963332147,-1.18253180984311
873,11.604801878849845,-4.266952325319648,-1.590132663275506,-1.206525700027759
874,11.618094893602253,-4.251229066985002,-1.6003175860399936,-1.2233669634952002
875,11.631387908354656,-4.228836043025032,-1.6077903730744696,-1.2357323486632976
876,11.64468092310706,-4.198980550528891,-1.616309902225057,-1.246599000766148
877,11.657973937859468,-4.160914294896793,-1.6288999801593658,-1.2584562250592686
878,11.671266952611871,-4.11396934807479,-1.6471409372628165,-1.2727477513978374
879,11.684559967364278,-4.057835071279195,-1.670914394897068,-1.2896996751965113
880,11.697852982116682,-3.992962371773706,-1.6986657546008694,-1.3085520962705912
881,11.711145996869089,-3.9208882262371754,-1.7280763522474256,-1.3280751881470882
882,11.724439011621492,-3.8442660916596587,-1.7569072576301827,-1.347162055418073
883,11.737732026373898,-3.7664782875399885,-1.7837339732149355,-1.3652812736995847
884,11.751025041126304,-3.690861773724688,-1.808346653645271,-1.3826407126288718
885,11.764318055878707,-3.6197415462296685,-1.831718336293507,-1.4000320640152928
886,11.777611070631114,-3.55358119511385,-1.8555943031683206,-1.4184482136273844
887,11.79090408538352,-3.4905905058821642,-1.881875583641329,-1.4386498947429882
888,11.804197100135925,-3.4270581208235735,-1.912020538964789,-1.4608750837126732
889,11.81749011488833,-3.3585084196040564,-1.9466586824645506,-1.484828571654703
890,11.830783129640736,-3.281548290161197,-1.985516375474844,-1.5099793142216815
891,11.84407614439314,-3.196029491298882,-2.0276313364923184,-1.5360677075222586
892,11.857369159145549,-3.1069759816554106,-2.0717265304192565,-1.5636284570519747
893,11.870662173897951,-3.025674568368389,-2.1165622554640398,-1.5943036729361764
894,11.883955188650356,-2.9694376017193784,-2.161107663531386,-1.6307716418592144
895,11.897248203402762,-2.9598169661375344,-2.2044624485325306,-1.676238932947678
896,11.910541218155169,-3.0194314171819654,-2.245582043195649,-1.7335997066978324
897,11.923834232907572,-3.1679680492183144,-2.282964411042284,-1.804500815008506
898,11.937127247659978,-3.418207803894861,-2.3144948147185094,-1.888609578308747
899,11.950420262412385,-3.7729947782765567,-2.3375930710027966,-1.9833326566631497
900,11.96371327716479,-4.223877952342554,-2.3496816252934516,-2.084091316842641
901,11.977006291917194,-4.751754336312922,-2.3488447635709497,-2.1850745497100967
902,11.990299306669598,-5.329361970498269,-2.334446180524357,-2.2802399049012565
903,12.003592321422005,-5.925057769256641,-2.307462888382286,-2.364270409387855
904,12.01688533617441,-6.507078697483293,-2.2703843150546708,-2.4332404406943597
905,12.030178350926816,-7.047463056102353,-2.22667676176613,-2.484863938533515
906,12.04347136567922,-7.524970622259183,-2.179960778834943,-2.518338926373622
907,12.056764380431623,-7.926615543879771,-2.1331362816509953,-2.533911360616633
908,12.070057395184032,-8.247737136577518,-2.087694233263863,-2.532332874800447
909,12.083350409936436,-8.490815014343328,-2.0433877515821917,-2.514382456578365
910,12.096643424688844,-8.663435104620225,-1.998333568864749,-2.4805775666070002
911,12.109936439441247,-8.77590055485673,-1.9495112975661204,-2.431133787422078
912,12.123229454193652,-8.838955551436948,-1.893545972906887,-2.3661601978578783
913,12.136522468946058,-8.861983197553325,-1.8276094545609556,-2.28601630375715
914,12.149815483698465,-8.851897146284717,-1.750260190918211,-2.1917189744372174
915,12.163108498450868,-8.812801756110485,-1.6620544270159985,-2.085279613384268
916,12.176401513203274,-8.746355000500705,-1.5657981032882409,-1.9698680836230453
917,12.18969452795568,-8.652638584129388,-1.4663617227456407,-1.8497326190489485
918,12.202987542708083,-8.53124770360723,-1.3700487496331066,-1.7298499393481328
919,12.21628055746049,-8.382296255728079,-1.283590981086122,-1.6153362428307794
920,12.229573572212894,-8.207105145263153,-1.2129337307592079,-1.5107122173248955
921,12.2428665869653,-8.008470153659387,-1.1620481190259266,-1.4191680061611986
922,12.256159601717703,-7.7905346444963355,-1.1320368592018992,-1.341995923739534
923,12.269452616470112,-7.558377853827274,-1.120759553492382,-1.2783351293472685
924,12.282745631222516,-7.317462882488063,-1.1230929456639096,-1.2253060515351022
925,12.29603864597492,-7.073084986256896,-1.1317901060312132,-1.1785233379693218
926,12.309331660727327,-6.829936823958753,-1.1387593758566328,-1.132893007754391
927,12.322624675479732,-6.591869958390687,-1.1364961339170299,-1.0835462111803107
928,12.335917690232138,-6.361883081310431,-1.1193911046526566,-1.026748229057554
929,12.349210704984545,-6.142311240897434,-1.0846975296045671,-0.9606401995155155
930,12.362503719736948,-5.935134690054708,-1.0330302524626696,-0.8857051054969302
931,12.375796734489354,-5.7422819270344565,-0.9683530187292214,-0.8048826751440296
932,12.38908974924176,-5.565784034367746,-0.8974653958544038,-0.7232865131792179
933,12.402382763994163,-5.407663644299512,-0.8290358242678846,-0.6475125774144911
934,12.41567577874657,-5.269521596215694,-0.7722694271731496,-0.5845880404253968
935,12.428968793498974,-5.151906154583051,-0.7353699447835703,-0.5406991103905328
936,12.44226180825138,-5.053673549948533,-0.7240474397769384,-0.5199360608123659
937,12.455554823003784,-4.971616091845401,-0.7403953695501571,-0.5233595829206232
938,12.46884783775619,-4.900595726395133,-0.7824538759023946,-0.5486745777365406
939,12.482140852508596,-4.834268238080861,-0.844651230468687,-0.590669336276074
940,12.495433867261,-4.766264617900086,-0.9190842253437809,-0.6423618454819825
941,12.508726882013407,-4.691501555296969,-0.9973323435293441,-0.6965628572383926
942,12.522019896765812,-4.607213101740269,-1.0723052373530857,-0.7474118007429557
943,12.535312911518217,-4.513375115751926,-1.1395892597157904,-0.7914385297118929
944,12.548605926270625,-4.412406822837926,-1.1979160182380035,-0.8278630176621331
945,12.561898941023028,-4.308291654789416,-1.248672695109692,-0.8581084560938936
946,12.575191955775434,-4.205452709685547,-1.2946971944876544,-0.8847673324191623
947,12.58848497052784,-4.107766706989358,-1.338826081458946,-0.9104222930399772
948,12.601777985280243,-4.017991895288369,-1.3827079146148293,-0.9367274894180576
949,12.61507100003265,-3.9376805126625483,-1.4262537321567141,-0.9640140940278702
950,12.628364014785054,-3.8674469388898567,-1.4678385018083016,-0.9914664386090057
951,12.64165702953746,-3.807358734878104,-1.505098857070274,-1.0177147009480991
952,12.654950044289864,-3.757241718368628,-1.5359902201400633,-1.041576748632241
953,12.66824305904227,-3.716804792534636,-1.559720664032596,-1.0626786196435591
954,12.681536073794677,-3.6856175636375847,-1.577262402206415,-1.0817666842209266
955,12.69482908854708,-3.6630448406453833,-1.591304826559739,-1.100646652634124
956,12.708122103299486,-3.6482328539756104,-1.6056909668120405,-1.121798560813085
957,12.721415118051892,-3.640175998634585,-1.6245182012921255,-1.1477934725811891
958,12.734708132804297,-3.6378171103155705,-1.6511543584332142,-1.1806675983656771
959,12.748001147556703,-3.6400908164177546,-1.6874175247423,-1.22139779868003
960,12.761294162309108,-3.645829330996526,-1.733105839990177,-1.2695816187810829
961,12.774587177061512,-3.653509996376226,-1.7859661174807127,-1.32337078968509
962,12.78788019181392,-3.6609106499954382,-1.8420839668166578,-1.3796547847128635
963,12.801173206566324,-3.6648180375814174,-1.8965877900621246,-1.4344519035728245
964,12.81446622131873,-3.6609741081690936,-1.944503289311794,-1.4834447025015363
965,12.827759236071136,-3.6444286614026478,-1.9815836301250136,-1.5225932781804234
966,12.84105225082354,-3.610395477875962,-2.0049709607509962,-1.5487670573034462
967,12.854345265575946,-3.5555921117284974,-2.0136026980959674,-1.5603416656772997
968,12.86763828032835,-3.4798925938158876,-2.008337517660259,-1.5576999662556386
969,12.880931295080757,-3.3879598237608617,-1.991820136530788,-1.5435523897138899
970,12.89422430983316,-3.2903970596086727,-1.968123649884229,-1.5229663711879062
971,12.907517324585566,-3.203931100800905,-1.9422138663307795,-1.5029983614667253
972,12.920810339337972,-3.150265365158089,-1.9192895979904947,-1.4918804329244315
973,12.934103354090375,-3.1535195507649885,-1.9040741853159076,-1.4978246730480322
974,12.947396368842782,-3.2365408665004094,-1.9001559925438796,-1.5276344257478558
975,12.960689383595188,-3.4167257986218127,-1.9094783719093131,-1.5853970650989335
976,12.973982398347593,-3.7022245117389176,-1.932050910512447,-1.671539160505806
977,12.9872754131,-4.089434380315203,-1.9659039533154243,-1.782450697571513
978,13.000568427852404,-4.562491986321518,-2.007264501791766,-1.9107641213442412
979,13.013861442604808,-5.095065523200405,-2.050917057214495,-2.0462498438647367
980,13.027154457357216,-5.654213700165096,-2.090728179280308,-2.1771907408617195
981,13.04044747210962,-6.205549575499971,-2.120333206552583,-2.2920296205808253
982,13.053740486862026,-6.71858809036272,-2.1339743280646295,-2.381039795941637
983,13.06703350161443,-7.171090293518759,-2.127424791982557,-2.4377485581165064
984,13.080326516366837,-7.551479311746519,-2.098850694121961,-2.4598565232201492
985,13.09361953111924,-7.858912174429935,-2.049392869015556,-2.4494564971010573
986,13.106912545871646,-8.101183482754692,-1.983245247423281,-2.4124686033326075
987,13.12020556062405,-8.291134405963149,-1.9070898423680043,-2.357361133411663
988,13.133498575376455,-8.442520349071142,-1.8289114070082384,-2.2933881739414073
989,13.146791590128862,-8.566312157188623,-1.756407649791389,-2.2287033376374645
990,13.160084604881268,-8.66819955306983,-1.6953638129645263,-2.1687616750927603
991,13.173377619633673,-8.747708336395137,-1.6484117274601253,-2.1153728281566946
992,13.186670634386076,-8.798936582497928,-1.6145168741316382,-2.066622112357153
993,13.199963649138484,-8.812564539553152,-1.5893526031406053,-2.0176699551754465
994,13.213256663890888,-8.778573777646661,-1.5664842766366112,-1.9622297551642465
995,13.226549678643297,-8.689043195549054,-1.539065862743181,-1.8943619865410335
996,13.2398426933957,-8.540443167267382,-1.5016071899458907,-1.8101438512786516
997,13.253135708148104,-8.334983871840786,-1.4513421068016628,-1.7087978461315734
998,13.26642872290051,-8.080769789909667,-1.3888312866041532,-1.5929930100484275
999,13.279721737652917,-7.790761248199354,-1.3176504666020612,-1.4682507256943713
1000,13.29301475240532,-7.4808133373494785,-1.2432887547901519,-1.3416415653868414
1001,13.306307767157726,-7.1672801080505355,-1.1716247997238347,-1.2201713644519017
1002,13.31960078191013,-6.8647557131938175,-1.1074720036304209,-1.1093437523299086
1003,13.332893796662535,-6.584435759119207,-1.0536370339941832,-1.0123119946966173
1004,13.346186811414942,-6.333356154969564,-1.0107348241768095,-0.929818533354142
1005,13.359479826167346,-6.11449374099228,-0.9777274685304304,-0.8608468594289488
1006,13.372772840919753,-5.927492720542872,-0.9529111788901483,-0.8036802377600594
1007,13.386065855672156,-5.769678709483372,-0.9349519652637924,-0.7569560237145826
1008,13.399358870424564,-5.637048609863847,-0.9235990048725543,-0.7203500630112506
1009,13.412651885176968,-5.525040906283863,-0.9198553783659774,-0.6946910220477617
1010,13.425944899929371,-5.429033509968055,-0.9255895702973963,-0.6815181741956812
1011,13.43923791468178,-5.344626244479691,-0.9427529392568468,-0.6822805470129312
1012,13.452530929434184,-5.267811687520318,-0.9724765000357236,-0.6974756014040543
1013,13.46582394418659,-5.1951236679766115,-1.0143371538711385,-0.7260229648294072
1014,13.479116958938995,-5.123802122872951,-1.0660196801795527,-0.7650775345332826
1015,13.4924099736914,-5.051957603550542,-1.1234832302860203,-0.8103430157107937
1016,13.505702988443806,-4.978683350128329,-1.1816029989788421,-0.8567977313888632
1017,13.51899600319621,-4.904058591359639,-1.23513332437073,-0.8996324571865759
1018,13.532289017948615,-4.829009831225663,-1.2797578542099994,-0.9351538099196478
1019,13.545582032701022,-4.755034283166855,-1.3129751694720746,-0.9614333795319238
1020,13.558875047453428,-4.683827160481846,-1.334616562998281,-0.9785672522808854
1021,13.572168062205831,-4.616881463226149,-1.3468890181380913,-0.9885216094555694
1022,13.585461076958238,-4.555137058001806,-1.3539491878812686,-0.9946406997664269
1023,13.598754091710642,-4.498740051653804,-1.3611103318885946,-1.0009538219772336
1024,13.612047106463049,-4.446937462106912,-1.3738430185341572,-1.0114272937304924
1025,13.625340121215451,-4.398093246382926,-1.3967496457418627,-1.029278395704298
1026,13.63863313596786,-4.349792956761652,-1.432683191187939,-1.0564282937425662
1027,13.651926150720264,-4.29901659084526,-1.4821538351088315,-1.0931438647701435
1028,13.665219165472667,-4.242389904781934,-1.543127673685341,-1.1379098528992142
1029,13.678512180225075,-4.176545640399031,-1.6112680988939496,-1.1875696339089916
1030,13.69180519497748,-4.0986156749773395,-1.680602539236502,-1.2377555608874136
1031,13.705098209729886,-4.006831000679771,-1.7445223045981306,-1.2835874823229532
1032,13.718391224482293,-3.9011442558739673,-1.7969549456809915,-1.3205553178507365
1033,13.731684239234696,-3.7837317536297066,-1.8335023460082636,-1.3454367425619567
1034,13.744977253987102,-3.659201467894897,-1.852326824872036,-1.357058585475507
1035,13.758270268739508,-3.534351209344252,-1.85459994285437,-1.3567127796000984
1036,13.771563283491911,-3.4173992757821012,-1.844404673361984,-1.3480954261252547
1037,13.784856298244318,-3.3167389158896436,-1.8280898147967863,-1.3367422486621616
1038,13.798149312996722,-3.239412684449253,-1.8131922728884078,-1.329056794676329
1039,13.811442327749129,-3.189615235987331,-1.8071378982421833,-1.331130872946712
1040,13.824735342501532,-3.1675759548357405,-1.815979110942588,-1.3476090341454743
1041,13.838028357253938,-3.1691329035192286,-1.8434154792828181,-1.380839114286148
1042,13.851321372006344,-3.186194285276546,-1.8902756576928978,-1.4304865307854344
1043,13.864614386758747,-3.2081121314923022,-1.9545322775155471,-1.493688504610382
1044,13.877907401511155,-3.2237954539596156,-2.031800660536424,-1.5657061862576187
1045,13.89120041626356,-3.224210259928628,-2.116167298999719,-1.64092105809979
1046,13.904493431015965,-3.204799011138013,-2.201132886763035,-1.7139426995614093
1047,13.917786445768373,-3.1673316827682774,-2.2804539821347194,-1.78057008323397
1048,13.931079460520776,-3.120772519594933,-2.3487248358359176,-1.8383874130448825
1049,13.944372475273182,-3.080888895445518,-2.4016360133115975,-1.8868705926890352
1050,13.957665490025589,-3.068523124817113,-2.4359498174661374,-1.9270099020593883
1051,13.970958504777991,-3.106686534077464,-2.449316415753416,-1.9605873371570204
1052,13.984251519530398,-3.2168981251568884,-2.4400975546284487,-1.9893474917355118
1053,13.997544534282802,-3.41542230304292,-2.4073521798211006,-2.0143345414155647
1054,14.010837549035209,-3.710175480476912,-2.3510654864055027,-2.035613913126678
1055,14.024130563787612,-4.0989948496643,-2.272583115418871,-2.0524619660392434
1056,14.037423578540018,-4.569678848373116,-2.1750822150452205,-2.063930457144934
1057,14.050716593292425,-5.101784039991098,-2.0638247672837466,-2.0695389136779765
1058,14.06400960804483,-5.6697262313275685,-1.945945742314122,-2.069781685069448
1059,14.077302622797234,-6.246427473348424,-1.829648478855095,-2.0661934097209738
1060,14.09059563754964,-6.80667530677406,-1.7228838639469772,-2.0608847395896164
1061,14.103888652302045,-7.329533634609278,-1.6318066431762612,-2.05567874675188
1062,14.117181667054451,-7.799494288102623,-1.5594428440663415,-2.051160401910987
1063,14.130474681806856,-8.20645394961868,-1.504999693633491,-2.0460197157908375
1064,14.14376769655926,-8.544904037110031,-1.4640901236509536,-2.0369901410948232
1065,14.157060711311669,-8.81283672103711,-1.429877289359753,-2.0194831196631493
1066,14.170353726064072,-9.010783220495178,-1.3948633335215992,-1.9887720625924685
1067,14.183646740816478,-9.141181314081928,-1.3528496758047188,-1.9413792493010742
1068,14.196939755568884,-9.208039351920185,-1.300549549676812,-1.8762433830289038
1069,14.210232770321287,-9.216730829526421,-1.2384470328566684,-1.7953193294201222
1070,14.223525785073694,-9.173750245948392,-1.1707229180379677,-1.703448568303931
1071,14.236818799826098,-9.086342176115979,-1.104323847276227,-1.6075596562133925
1072,14.250111814578505,-8.962008055433131,-1.0474545149785828,-1.5154300785436912
1073,14.26340482933091,-8.807955933582864,-1.0078719592824767,-1.4343166319851044
1074,14.276697844083314,-8.630587139242826,-0.9913488601809012,-1.369741262430456
1075,14.28999085883572,-8.43512241701054,-1.000578660975198,-1.324637002432797
1076,14.303283873588123,-8.225455724907196,-1.0346651196963674,-1.2989562357666624
1077,14.31657688834053,-8.004276657298592,-1.0892150607421902,-1.289752415527049
1078,14.329869903092936,-7.773430262603357,-1.1569616276289418,-1.2916814768950666
1079,14.34316291784534,-7.534415331008123,-1.228791442928769,-1.2978303479153737
1080,14.356455932597749,-7.2888873346287575,-1.2950217918074332,-1.3007569998196027
1081,14.369748947350152,-7.0390368311975084,-1.346757902409186,-1.2936078549555858
1082,14.383041962102556,-6.787747566547957,-1.3771486796334544,-1.2711609916131916
1083,14.396334976854964,-6.5384898925312305,-1.3823585772708868,-1.2306365587239807
1084,14.409627991607367,-6.294969297859236,-1.3620976849136703,-1.1721337042870408
1085,14.422921006359774,-6.060617474644514,-1.319610456138855,-1.0986042584099256
1086,14.436214021112178,-5.838063846576426,-1.2611112078210427,-1.015352351119805
1087,14.449507035864585,-5.62873644451325,-1.1947544107123986,-0.9291402170751292
1088,14.46280005061699,-5.432704995320515,-1.1293172189589973,-0.8470631693587001
1089,14.476093065369394,-5.248810064396399,-1.0728296540531963,-0.775410537632047
1090,14.4893860801218,-5.0750463701945865,-1.0313998150118904,-0.7187372968673775
1091,14.502679094874203,-4.909109955985887,-1.0084427715050113,-0.6793257672628067
1092,14.51597210962661,-4.748990162012122,-1.00443977716279,-0.6571263674884231
1093,14.529265124379016,-4.593488286383767,-1.0172474001346337,-0.6501549510282534
1094,14.54255813913142,-4.442567868810738,-1.0428681186951179,-0.6552233905648408
1095,14.555851153883824,-4.297477521511391,-1.07650746432829,-0.6688167314787858
1096,14.569144168636232,-4.160628568022237,-1.1136933602105967,-0.6879167794983776
1097,14.582437183388636,-4.035249546867372,-1.151226971001683,-0.7106035059207836
1098,14.595730198141045,-3.9248706181661377,-1.187769146905301,-0.7363252058072367
1099,14.609023212893447,-3.832708545345989,-1.2239357114385496,-0.7657972290368888
1100,14.622316227645852,-3.7610305911175903,-1.2618700047195968,-0.8005560663298072
1101,14.635609242398258,-3.7105832495666933,-1.304372120820591,-0.8422584873646465
1102,14.648902257150665,-3.6801844016305028,-1.3537757809302626,-0.8918739677285377
1103,14.66219527190307,-3.6665852314960397,-1.410851661804762,-0.9489644881655277
1104,14.675488286655474,-3.664690152670211,-1.4740497275189552,-1.0112601958988887
1105,14.68878130140788,-3.6681647893776708,-1.5393462901435864,-1.0747017932158363
1106,14.702074316160283,-3.670370000715703,-1.6008267191896464,-1.134022241853767
1107,14.71536733091269,-3.6654587713589586,-1.6519344718041158,-1.1837947923043421
1108,14.728660345665094,-3.649394007318829,-1.6871040677567861,-1.2197181165211348
1109,14.7419533604175,-3.620618751998447,-1.7033395577382517,-1.2397947009991295
1110,14.755246375169904,-3.5801602275797366,-1.7012648084052657,-1.2450374103606514
1111,14.768539389922312,-3.5310836290267176,-1.6852894787031145,-1.2394402830901496
1112,14.781832404674716,-3.4774060023245186,-1.662785347730151,-1.2291591635285148
1113,14.79512541942712,-3.422771227691665,-1.6424777362013576,-1.2211032329940295
1114,14.808418434179528,-3.3692943675424125,-1.6325177452762794,-1.2213469350869504
1115,14.821711448931932,-3.3169544579323316,-1.638809981316346,-1.2338468901651856
1116,14.83500446368434,-3.2637549661989653,-1.6640753404949207,-1.2598502468530035
1117,14.848297478436743,-3.2066421332649395,-1.7078577283073026,-1.2981387640516386
1118,14.861590493189148,-3.1429573772989197,-1.7673415836205075,-1.3459580443871284
1119,14.874883507941554,-3.07206820204234,-1.8385721839871734,-1.4002504393611597
1120,14.88817652269396,-2.9967984489485584,-1.9175736716051175,-1.4587340552359132
1121,14.901469537446363,-2.9243443919010517,-2.000972198307571,-1.5204723894869592
1122,14.91476255219877,-2.8664710900495316,-2.0859922140259473,-1.585805306122432
1123,14.928055566951176,-2.8388882882672783,-2.169980164331064,-1.6557590112020724
1124,14.94134858170358,-2.859792486111975,-2.249798758054675,-1.7312201440969892
1125,14.954641596455986,-2.9476551264659627,-2.321460026679811,-1.812196441920196
1126,14.96793461120839,-3.11847080317465,-2.380239011441242,-1.8974070920719193
1127,14.981227625960797,-3.382854192782935,-2.4213029743799748,-1.9843048703618194
1128,14.9945206407132,-3.7435311690544664,-2.4406890833248536,-2.0694880730240173
1129,15.007813655465608,-4.19381465665069,-2.4363301467162626,-2.1493506232730772
1130,15.021106670218012,-4.717521934074593,-2.408792831733589,-2.2207601227673037
1131,15.034399684970415,-5.290488073096066,-2.3614581990345758,-2.2815536130164835
1132,15.047692699722823,-5.883452105078448,-2.3000228816632564,-2.3307020273638033
1133,15.060985714475228,-6.465765568753766,-2.23139373335575,-2.3681052023472735
1134,15.074278729227634,-7.009197893617187,-2.1622331162197157,-2.3941055685962875
1135,15.08757174398004,-7.491125814572495,-2.097524576802227,-2.4089018317877637
1136,15.100864758732444,-7.896569372104497,-2.0395288136307244,-2.412067372768466
1137,15.11415777348485,-8.218816283118633,-1.9873901134067335,-2.4023298748701913
1138,15.127450788237256,-8.458691512830622,-1.9374788515199126,-2.377680865837879
1139,15.14074380298966,-8.622809040566851,-1.8843783733055162,-2.335797041487389
1140,15.154036817742066,-8.721318439330318,-1.8222924107600937,-2.2746914689766853
1141,15.16732983249447,-8.76568191977706,-1.7465798746078285,-2.1934698811527564
1142,15.180622847246877,-8.766891839321614,-1.6551114270560503,-2.093035596162208
1143,15.19391586199928,-8.734328034301095,-1.549174194285748,-1.9765680926393943
1144,15.207208876751686,-8.675248716788714,-1.4337204456697545,-1.8496112226654886
1145,15.220501891504092,-8.594773159666833,-1.3168617001529568,-1.7196639033069112
1146,15.233794906256495,-8.496163412995335,-1.2086468783842659,-1.59526916777229
1147,15.247087921008903,-8.381225336283421,-1.119314662540143,-1.4847253627227976
1148,15.260380935761308,-8.2507013420402,-1.0573441288645977,-1.3946600788802925
1149,15.273673950513713,-8.104600667823362,-1.0277047173944105,-1.3287753922170842
1150,15.28696696526612,-7.942487721896847,-1.0306956849849052,-1.2870659248245335
1151,15.300259980018524,-7.763796856364363,-1.0616590595957516,-1.2657244714386369
1152,15.31355299477093,-7.568238811526868,-1.1116709008699541,-1.257803616077761
1153,15.326846009523337,-7.356308575901809,-1.1691067593272613,-1.2545337432552817
1154,15.34013902427574,-7.129821320470215,-1.2217871783664687,-1.2470494081049799
1155,15.353432039028146,-6.892330015375293,-1.259278236581307,-1.228179196611098
1156,15.36672505378055,-6.649248958745369,-1.2748770449817024,-1.1939272428394332
1157,15.380018068532957,-6.407541579058541,-1.2668644705587329,-1.144323648321635
1158,15.39331108328536,-6.174929806073239,-1.238751911704462,-1.0834415155627988
1159,15.406604098037766,-5.95872503933637,-1.1984605862317192,-1.0185525116748255
1160,15.419897112790172,-5.764524642743806,-1.1566063671937534,-0.9585878133894379
1161,15.433190127542575,-5.595109645369959,-1.1242655768680607,-0.9122412360957817
1162,15.446483142294982,-5.449874761660682,-1.1107149520694835,-0.8861478393341086
1163,15.459776157047388,-5.325005804405516,-1.1216377677721419,-0.8835586756986753
1164,15.473069171799793,-5.2144169818311825,-1.15816366033046,-0.9038041361178649
1165,15.4863621865522,-5.111233404262467,-1.2168936691758374,-0.9426265913013279
1166,15.499655201304604,-5.009432020571228,-1.2908161232232895,-0.9932324321804356
1167,15.512948216057008,-4.905202742421531,-1.3708158685882381,-1.0477385888620345
1168,15.526241230809417,-4.7976818287238325,-1.4473758289627865,-1.09862300524756
1169,15.53953424556182,-4.688907445237567,-1.5120860280339081,-1.139844409253573
1170,15.552827260314226,-4.5830795169094145,-1.5586902043223179,-1.1674430589973206
1171,15.56612027506663,-4.4853938581917765,-1.5835660098201438,-1.1796136031711528
1172,15.579413289819035,-4.400809923904826,-1.5856971232662311,-1.176393349026451
1173,15.592706304571442,-4.333086139571567,-1.5663103059410342,-1.159189904459284
1174,15.605999319323846,-4.28429610321142,-1.5283918762250137,-1.130364193161644
1175,15.619292334076253,-4.254867742377977,-1.4762619644125279,-1.0930004365225834
1176,15.632585348828655,-4.2440214580329805,-1.4152888431189083,-1.0508700485718778
1177,15.645878363581062,-4.2503721222293835,-1.351706657472412,-1.0084794159199917
1178,15.659171378333468,-4.272432482754153,-1.2924054883086735,-0.971025921119884
1179,15.672464393085871,-4.308814335112666,-1.2445347389926824,-0.9440976849855263
1180,15.685757407838278,-4.358047687609335,-1.2148174204228355,-0.9330392888398048
1181,15.699050422590684,-4.418088957919406,-1.20859692317779,-0.9420398284769187
1182,15.712343437343089,-4.485718644375439,-1.228780816986485,-0.9731329493195733
1183,15.725636452095497,-4.556091206892878,-1.2749487041365937,-1.0253802169855712
1184,15.7389294668479,-4.622672035978857,-1.3429104218917791,-1.0945073327166712
1185,15.752222481600304,-4.677691332046927,-1.4249286687730374,-1.1731775700359817
1186,15.76551549635271,-4.713102221717533,-1.510679902588372,-1.251946005325567
1187,15.778808511105115,-4.721890985518341,-1.5888567055371694,-1.3207784231172406
1188,15.792101525857522,-4.699475075319301,-1.649149848461739,-1.370871612766103
1189,15.805394540609926,-4.64485555390688,-1.6842211799614941,-1.3964034729357837
1190,15.818687555362333,-4.561188953385826,-1.6912223007168352,-1.39580102669873
1191,15.831980570114736,-4.455537915870573,-1.6724604119200095,-1.372172289065198
1192,15.845273584867142,-4.337753922352804,-1.6349761803468292,-1.3327169678576816
1193,15.858566599619548,-4.218692039165622,-1.5890567069330286,-1.2871853672615836
1194,15.871859614371951,-4.108168968601611,-1.5459948221671593,-1.2457251212797187
1195,15.885152629124358,-4.013165534904658,-1.5156331288434133,-1.2166498476244487
1196,15.898445643876764,-3.936703421831041,-1.504314517342679,-1.2047064985853984
1197,15.911738658629169,-3.8776188189724334,-1.5137604571316365,-1.210283457941338
1198,15.925031673381572,-3.831190442613487,-1.541137999313566,-1.2297289393156086
1199,15.93832468813398,-3.7903555540817275,-1.580239101964088,-1.256631821746795
1200,15.951617702886384,-3.7471484095245677,-1.6233940572414547,-1.2836647753361863
1201,15.96491071763879,-3.694052519786636,-1.6635722904384913,-1.304484008087928
1202,15.978203732391195,-3.625130549817069,-1.6961330482499022,-1.3152405737337038
1203,15.9914967471436,-3.5369827758343315,-1.7198514338375677,-1.3154376101898604
1204,16.004789761896006,-3.4296733620140714,-1.737084592812065,-1.308078977737758
1205,16.018082776648413,-3.3076898373904426,-1.753165071433421,-1.299213464685108
1206,16.031375791400816,-3.180792325596063,-1.7752440810686831,-1.297041002366221
1207,16.044668806153222,-3.064376937010042,-1.8108375081411283,-1.3107240560461588
1208,16.05796182090563,-2.9788671653875167,-1.8662851947092747,-1.3489929832163172
1209,16.07125483565803,-2.9477660600931195,-1.9452824252924197,-1.4186154922828267
1210,16.084547850410438,-2.9943626890909933,-2.0476366230756553,-1.5228580903173772
1211,16.097840865162844,-3.1375832134165305,-2.168451937009918,-1.6601871527151235
1212,16.111133879915247,-3.3879148913525503,-2.2980014045136508,-1.8235673736749813
1213,16.124426894667653,-3.7445055111613534,-2.4225287532834208,-2.0007204711602835
1214,16.13771990942006,-4.194335683278902,-2.5260681606760076,-2.1755447978961624
1215,16.151012924172466,-4.713819189698217,-2.59309075477149,-2.330585695598113
1216,16.16430593892487,-5.272498381809338,-2.611475532847266,-2.450092513164943
1217,16.177598953677276,-5.837921865663465,-2.5750972895452646,-2.522947812918963
1218,16.190891968429682,-6.3805218684648075,-2.4853351229707767,-2.5447228655497156
1219,16.204184983182085,-6.87741398959619,-2.3510551723699225,-2.518327823193945
1220,16.21747799793449,-7.3144404612222385,-2.1870315874428483,-2.4531108338120498
1221,16.230771012686898,-7.686297174185303,-2.011194704340567,-2.362679122963661
1222,16.2440640274393,-7.995047652961763,-1.8413873000981429,-2.2620258800461617
1223,16.257357042191707,-8.247619268693295,-1.692380538672925,-2.164662606153956
1224,16.270650056944113,-8.452966095549224,-1.5737526376351143,-2.0803689414740973
1225,16.283943071696516,-8.619500026925811,-1.4889450625332006,-2.0139397567666557
1226,16.297236086448923,-8.753201421910633,-1.435497422446688,-1.965025141360589
1227,16.31052910120133,-8.856598570801204,-1.4062219771058373,-1.9289126603424112
1228,16.323822115953735,-8.9286206715241,-1.3909611797085206,-1.897952061761384
1229,16.337115130706138,-8.96521909224665,-1.3785695331288812,-1.8632844290627002
1230,16.350408145458545,-8.960603420671347,-1.3588268313149146,-1.816581119976039
1231,16.36370116021095,-8.90890244606027,-1.3240672310677861,-1.7515704090887354
1232,16.376994174963354,-8.805996168684114,-1.2703624298224734,-1.6651883600672124
1233,16.39028718971576,-8.651184705619269,-1.1981279686046082,-1.5582248589348984
1234,16.403580204468167,-8.448320839826907,-1.1120567521379123,-1.4353674305127286
1235,16.41687321922057,-8.206090660684382,-1.020352911549001,-1.3046037607775967
1236,16.430166233972976,-7.937291393268284,-0.9333498711967907,-1.1760396918633376
1237,16.443459248725382,-7.65718622167946,-0.8617260063190262,-1.0603056429296878
1238,16.456752263477785,-7.381246406703609,-0.8146360782961445,-0.9668248471273114
1239,16.47004527823019,-7.122756584062868,-0.7981143048818514,-0.9022647132179079
1240,16.483338292982598,-6.890811730977721,-0.8140558747157594,-0.8694674290178868
1241,16.496631307735004,-6.689153349062481,-0.8599616269529232,-0.8670624346201022
1242,16.509924322487407,-6.516095018446339,-0.9294748356493298,-0.8898289351599131
1243,16.523217337239814,-6.365526627393024,-1.0135923466328174,-0.9297359478056078
1244,16.53651035199222,-6.22873141696344,-1.1023194737240694,-0.9774653074932432
1245,16.549803366744623,-6.096561433633985,-1.1864623667413619,-1.0241298683795443
1246,16.56309638149703,-5.961436660601877,-1.2592117101754348,-1.0628427439297956
1247,16.576389396249436,-5.818684538205079,-1.3171809050054082,-1.0897935312128824
1248,16.58968241100184,-5.666922011532174,-1.3606470282324559,-1.1045713971982
1249,16.602975425754245,-5.50746741740227,-1.392917854293435,-1.1096518654878067
1250,16.61626844050665,-5.343073054889712,-1.4189844287431983,-1.109198718297162
1251,16.629561455259058,-5.176480485449105,-1.4438401299485992,-1.10754487727488
1252,16.64285447001146,-5.009328680576506,-1.470961878428755,-1.1078174079657719
1253,16.656147484763867,-4.841771803156422,-1.5013987453688649,-1.1111125358253824
1254,16.669440499516273,-4.672861213176639,-1.5337076821126818,-1.1164266101632978
1255,16.682733514268676,-4.501446007912707,-1.564691692334909,-1.121288121103051
1256,16.696026529021083,-4.327171898317391,-1.5906389672819525,-1.1228138424115017
1257,16.70931954377349,-4.15116784062482,-1.608622061934225,-1.1188036146206437
1258,16.722612558525892,-3.976176718126534,-1.6174336288071764,-1.1085170277367093
1259,16.7359055732783,-3.8061229306917252,-1.6178903147855113,-1.0929148376837436
1260,16.749198588030705,-3.6453155467008185,-1.6124650980063933,-1.0743402152228403
1261,16.762491602783108,-3.497589660611618,-1.6044282066873388,-1.0557936771906116
1262,16.775784617535514,-3.36566906086655,-1.5968160431277496,-1.0400667204629426
1263,16.78907763228792,-3.2509158906436464,-1.591568231745147,-1.0290150388313108
1264,16.802370647040327,-3.153474945878334,-1.5890814253160401,-1.0231779507545677
1265,16.81566366179273,-3.072686819325128,-1.588269683820935,-1.0218206772474685
1266,16.828956676545136,-3.0075816701058833,-1.5870578163585158,-1.0233395471123692
1267,16.842249691297543,-2.9572820280613388,-1.5831206129890532,-1.0258715633678466
1268,16.855542706049945,-2.9212094486069473,-1.5746442384291268,-1.0279134979404116
1269,16.868835720802352,-2.8990634690312356,-1.5609204843497184,-1.028781597772018
1270,16.88212873555476,-2.8905961861306824,-1.5426614718759335,-1.0288121738511926
1271,16.89542175030716,-2.8952434085052845,-1.5220070792517624,-1.0292887478950576
1272,16.908714765059567,-2.911708044175617,-1.5022638849106398,-1.0321570451390505
1273,16.922007779811974,-2.937627981003348,-1.4874526325037805,-1.0396360525062343
1274,16.935300794564377,-2.9694865199597866,-1.481755005400065,-1.0538434450159795
1275,16.948593809316783,-3.0029167457489034,-1.4889492952473302,-1.0765299678030784
1276,16.96188682406919,-3.033493230101121,-1.5119142465385695,-1.1089705517253705
1277,16.975179838821596,-3.0579871021648204,-1.5522605335024502,-1.1520034854212367
1278,16.988472853574,-3.0758950993924468,-1.6101192067181662,-1.206157047101318
1279,17.001765868326405,-3.0908805169088467,-1.684082839644138,-1.2717708883733976
1280,17.01505888307881,-3.111652907401164,-1.7712721397186937,-1.3490207588267493
1281,17.028351897831215,-3.1518355207225044,-1.8674994809908811,-1.4377938212766066
1282,17.04164491258362,-3.228558279125286,-1.967518227343631,-1.5374256457974276
1283,17.054937927336027,-3.3598370346811293,-2.0653661829111987,-1.6463741391709459
1284,17.06823094208843,-3.5611649959926472,-2.1548144557408713,-1.7619453852246607
1285,17.081523956840837,-3.842033946596288,-2.2299118172940418,-1.8801886544364759
1286,17.094816971593243,-4.2032232345906975,-2.2855765914262243,-1.9960439058438593
1287,17.10810998634565,-4.635591511782154,-2.3181502858683727,-2.103765259332056
1288,17.121403001098052,-5.120787402897884,-2.3258081138525846,-2.197572427295803
1289,17.13469601585046,-5.633831002552107,-2.3087340400690612,-2.2724156766203323
1290,17.147989030602865,-6.147031877908177,-2.269013582243679,-2.324696865958896
1291,17.161282045355268,-6.634348028649176,-2.2102638149695344,-2.3527851212048967
1292,17.174575060107674,-7.075174901082439,-2.137083339138873,-2.3572064779060797
1293,17.18786807486008,-7.456727738192152,-2.0544408945524864,-2.340462625557203
1294,17.201161089612484,-7.774585880147022,-1.9671169278890386,-2.3065210439616837
1295,17.21445410436489,-8.031464730346043,-1.8792740136722728,-2.2600894347543754
1296,17.227747119117296,-8.234710402821358,-1.7941819955641758,-2.2058231068892327
1297,17.2410401338697,-8.393260562540773,-1.7140881378585193,-2.14761449992333
1298,17.254333148622106,-8.514849010416517,-1.640215427289746,-2.0880920236543106
1299,17.267626163374512,-8.604082171078181,-1.572885990603167,-2.028421606929757
1300,17.28091917812692,-8.6617415930596,-1.5117769517002249,-1.9684568548573427
1301,17.29421219287932,-8.685332655039684,-1.4562986955372725,-1.9072137904439688
1302,17.307505207631728,-8.670579174802036,-1.4060354931273702,-1.8435565270528085
1303,17.320798222384134,-8.613339207785522,-1.3611277038004366,-1.776897221875639
1304,17.334091237136537,-8.5113564582023,-1.322442162075187,-1.7076789128622696
1305,17.347384251888943,-8.365379133890194,-1.2914067636183324,-1.6374553099893319
1306,17.36067726664135,-8.179421835881747,-1.2694843759951664,-1.5685065292909093
1307,17.373970281393753,-7.96022406916668,-1.2574025970003064,-1.5030956615779665
1308,17.38726329614616,-7.71618295501909,-1.254385235289688,-1.4426168897211866
1309,17.400556310898565,-7.4561508790329185,-1.2576892077322412,-1.3869527938806925
1310,17.41384932565097,-7.188469096149647,-1.2626983265565905,-1.3343129062929662
1311,17.427142340403375,-6.92046671655627,-1.2636655545970117,-1.2816735971144675
1312,17.44043535515578,-6.658439691835763,-1.2549758913962046,-1.2257291184382326
1313,17.453728369908188,-6.4079199297850575,-1.2326026579383167,-1.1640717152605948
1314,17.46702138466059,-6.173939980149056,-1.195330859516224,-1.0962213183869605
1315,17.480314399412997,-5.96104219423055,-1.1453683872926463,-1.0241644247325554
1316,17.493607414165403,-5.77294778811613,-1.0881473534055692,-0.9522238009942948
1317,17.506900428917806,-5.612002291394685,-1.031366330512599,-0.8863007723476767
1318,17.520193443670212,-5.478646127608949,-0.9835446382755487,-0.8327228924703035
1319,17.53348645842262,-5.371161203589551,-0.9524721140151707,-0.7970219353855827
1320,17.54677947317502,-5.285827300817552,-0.9439129898178799,-0.7829387485556789
1321,17.560072487927428,-5.217456367343097,-0.9607921730718166,-0.7918349079237861
1322,17.573365502679835,-5.160143705159366,-1.0029265880142793,-0.8225504214066279
1323,17.58665851743224,-5.10803474662109,-1.0672320585928288,-0.8716409138996647
1324,17.599951532184644,-5.055953028071815,-1.1482718442120317,-0.933882225347857
1325,17.61324454693705,-4.999827370603027,-1.239009058889695,-1.0029335528843675
1326,17.626537561689457,-4.9369433916093515,-1.3316509432991845,-1.072072574604104
1327,17.63983057644186,-4.8660912866975945,-1.4185000766787488,-1.1349337868513776
1328,17.653123591194266,-4.787677116095362,-1.4927453380830855,-1.1861884387191073
1329,17.666416605946672,-4.703817600808213,-1.5491371289691895,-1.2221073744442794
1330,17.679709620699075,-4.618371606037399,-1.5845018691472326,-1.240953805662073
1331,17.69300263545148,-4.5368056797883085,-1.5980586604687437,-1.2431624547244797
1332,17.706295650203888,-4.465776320559017,-1.5915025462679675,-1.2312723758127082
1333,17.71958866495629,-4.412356976971012,-1.5688173050551226,-1.2095944481716312
1334,17.732881679708697,-4.38294117224038,-1.5357898647418033,-1.1836182592080597
1335,17.746174694461104,-4.381987450164153,-1.4992338450248022,-1.1592041601768863
1336,17.75946770921351,-4.41088860298519,-1.4659945994661974,-1.1416625307781667
1337,17.772760723965913,-4.467291281919302,-1.4418845780235896,-1.1348767896516567
1338,17.78605373871832,-4.545124283681708,-1.430752779826248,-1.1406527021719475
1339,17.799346753470726,-4.635419302913451,-1.4338950207124512,-1.1584520069072428
1340,17.81263976822313,-4.727783117251111,-1.4499525843304073,-1.1855909188359042
1341,17.825932782975535,-4.812190118876745,-1.4753410345457982,-1.2178750611252498
1342,17.83922579772794,-4.88067786850442,-1.505129606648844,-1.2505362387946797
1343,17.852518812480344,-4.928564433245889,-1.534185696395575,-1.2792634194670864
1344,17.86581182723275,-4.954934527008801,-1.5583309286629266,-1.3010961975322668
1345,17.879104841985157,-4.962314094170678,-1.5752403410536608,-1.3149770650650716
1346,17.89239785673756,-4.955631632547323,-1.5848649187524775,-1.3218348360160264
1347,17.905690871489966,-4.940721765332114,-1.5892702006113855,-1.324183660042364
1348,17.918983886242373,-4.922733100197177,-1.5919388191271655,-1.325346202324364
1349,17.93227690099478,-4.904826660167909,-1.5967377559236031,-1.3285111957461044
1350,17.945569915747182,-4.887476456118795,-1.6068476969469492,-1.3358811321615185
1351,17.95886293049959,-4.868524343853495,-1.62395415241769,-1.3481374598671958
1352,17.972155945251995,-4.843940227500362,-1.6479060119397284,-1.3643546071245471
1353,17.985448960004398,-4.80905178699166,-1.6768931321156884,-1.3823599257018833
1354,17.998741974756804,-4.759887414853039,-1.7080380091682856,-1.3994074714987967
1355,18.01203498950921,-4.694257512055433,-1.7381904687889969,-1.4129510572298971
1356,18.025328004261613,-4.61228923757412,-1.7646853333284684,-1.4212899860113897
1357,18.03862101901402,-4.516298536693579,-1.7858660620108777,-1.4239164348652462
1358,18.051914033766423,-4.4100738853232055,-1.801266408972682,-1.4214919182633499
1359,18.06520704851883,-4.297799888097112,-1.8114474477742692,-1.4154896096062883
1360,18.078500063271235,-4.182929677121863,-1.817585150478012,-1.4076327886609477
1361,18.09179307802364,-4.0673163380316755,-1.820975074864105,-1.399318712945698
1362,18.105086092776048,-3.950846901034999,-1.8226470747098693,-1.3912279882006455
1363,18.11837910752845,-3.831704816918282,-1.8232491883251838,-1.383273036968585
1364,18.131672122280857,-3.7072387714869834,-1.8232648918027825,-1.3749382333097027
1365,18.144965137033264,-3.5752658256910395,-1.823493760147418,-1.3659304372054235
1366,18.158258151785667,-3.435521076065234,-1.8255957546219668,-1.3569317066979882
1367,18.171551166538077,-3.2909159829330683,-1.832425186352588,-1.3501718100182023
1368,18.18484418129048,-3.148297053716733,-1.8479017002637044,-1.3495522203044408
1369,18.19813719604288,-3.018496979000024,-1.8762933175708576,-1.3601658120267028
1370,18.21143021079529,-2.9156158572472903,-1.9209931839970253,-1.387244477800751
1371,18.22472322554769,-2.855626222402844,-1.9830934513195178,-1.4347752198770147
1372,18.2380162403001,-2.85452520804579,-2.0602132037163727,-1.5041800981136917
1373,18.251309255052504,-2.9263297024407806,-2.1460489283791997,-1.5934901772409287
1374,18.26460226980491,-3.0812145394924393,-2.230955429049534,-1.697329548315281
1375,18.27789528455732,-3.324044976023058,-2.3035664778627507,-1.8077903105878939
1376,18.29118829930972,-3.6534836769713803,-2.353121513391879,-1.9160005172861938
1377,18.304481314062127,-4.061780763678232,-2.3718979548346617,-2.0139610577948774
1378,18.317774328814533,-4.535280886693646,-2.3570597526796586,-2.096132071218346
1379,18.331067343566936,-5.0555897640566085,-2.3113642963109067,-2.160317076688093
1380,18.344360358319346,-5.60123663381907,-2.242487716334161,-2.2076027453078506
1381,18.35765337307175,-6.149581202256098,-2.1611323591772904,-2.2413989207232983
1382,18.37094638782415,-6.678687631465509,-2.078437117786965,-2.265897054837328
1383,18.38423940257656,-7.168941573358426,-2.003403948555065,-2.2844372788312897
1384,18.397532417328964,-7.604289937514833,-1.941022906279543,-2.2982872528005975
1385,18.41082543208137,-7.9730773550144525,-1.8915429518666071,-2.306185558299923
1386,18.424118446833774,-8.26849122567405,-1.8509849637800362,-2.304743063205073
1387,18.43741146158618,-8.488609855043558,-1.8126473895746842,-2.2895215209329334
1388,18.450704476338583,-8.636022509727281,-1.769120352830224,-2.2564161857525225
1389,18.46399749109099,-8.717009399425454,-1.7142569799495588,-2.2029176430829533
1390,18.4772905058434,-8.74034751825277,-1.6446442407818727,-2.1289170389674075
1391,18.4905835205958,-8.715907999025012,-1.5603123578372062,-2.036895365736943
1392,18.503876535348205,-8.653275951205245,-1.464643672991466,-1.9315262490044192
1393,18.51716955010061,-8.560622346364422,-1.363621152512306,-1.818860835793351
1394,18.530462564853018,-8.44399628983528,-1.2646567454256668,-1.7053247202199517
1395,18.54375557960542,-8.30711314787506,-1.1752593554615804,-1.596745761053738
1396,18.557048594357827,-8.151615946858447,-1.1017668250465806,-1.497574322880783
1397,18.570341609110237,-7.97770369774489,-1.0483117711512249,-1.4103861152246548
1398,18.58363462386264,-7.78496791836867,-1.0161445429995506,-1.3356983809083982
1399,18.596927638615043,-7.5732682439876395,-1.0034038685853652,-1.2720935303307273
1400,18.61022065336745,-7.343502861540974,-1.0053921043058887,-1.2166239437056827
1401,18.623513668119852,-7.098166859198504,-1.0153566027710068,-1.165451796835972
1402,18.63680668287226,-6.8416222903828166,-1.0256939988470084,-1.1146477171335274
1403,18.650099697624665,-6.580029722008516,-1.0293956918202127,-1.0610357422307994
1404,18.66339271237707,-6.320929434980791,-1.0214727596787947,-1.0029447877199011
1405,18.676685727129477,-6.072519924717904,-1.0000692448487358,-0.940723776940842
1406,18.68997874188188,-5.842746953918128,-0.9670113215084147,-0.8769047060504168
1407,18.703271756634287,-5.638359689349976,-0.9276427926847388,-0.8159518617653087
1408,18.716564771386693,-5.464093322027359,-0.8899435683065927,-0.7636081587537062
1409,18.729857786139096,-5.322105217848744,-0.8630844785427666,-0.7259304720598617
1410,18.743150800891502,-5.211743930669929,-0.8557009340465104,-0.7081798157546864
1411,18.75644381564391,-5.129683674451473,-0.8742349867141403,-0.7137796285736745
1412,18.76973683039631,-5.070414464264575,-0.9216807383417129,-0.743558175530233
1413,18.78302984514872,-5.027035286842103,-0.9969760576175629,-0.7954419337802606
1414,18.796322859901125,-4.992251880093945,-1.0951410328051119,-0.8646747477831874
1415,18.809615874653527,-4.959438014767466,-1.2081085126370614,-0.944525199915927
1416,18.822908889405934,-4.923592761039244,-1.3260600393738575,-1.0273407847729277
1417,18.83620190415834,-4.882029859321835,-1.4389964369550459,-1.1057382630127708
1418,18.849494918910743,-4.834675584936096,-1.538248559332897,-1.1737013328802273
1419,18.86278793366315,-4.783923103486969,-1.617669841221426,-1.2273912235044895
1420,18.87608094841556,-4.7340778989705745,-1.6743355847560502,-1.2655495534598218
1421,18.88937396316796,-4.690507988389732,-1.7086813780926677,-1.2894619829329512
1422,18.902666977920365,-4.658662212267983,-1.724116984485584,-1.3025303580173206
1423,18.91595999267277,-4.643125617362093,-1.7262283745646132,-1.309552518280949
1424,18.929253007425174,-4.646844790187717,-1.7217173503572147,-1.3158290667015342
1425,18.94254602217758,-4.670599846951173,-1.7172305698073425,-1.3262155331249068
1426,18.955839036929987,-4.712755499505783,-1.7182170545327053,-1.3442333585352686
1427,18.969132051682397,-4.769310514046383,-1.7279467037428047,-1.3713553259339903
1428,18.9824250664348,-4.834272023076082,-1.7468289983416267,-1.4065867761578363
1429,18.995718081187203,-4.900373597315388,-1.772175303633293,-1.4464547478829741
1430,19.00901109593961,-4.960103643029726,-1.798519577793177,-1.4854716577111986
1431,19.02230411069201,-5.006916167785624,-1.8185275511175978,-1.5170506939372868
1432,19.03559712544442,-5.036398233455543,-1.8243887050161773,-1.5347338325915556
1433,19.048890140196825,-5.0471207149284,-1.809437676113246,-1.53348881282119
1434,19.06218315494923,-5.04093824228771,-1.7696494739793656,-1.5107817507509163
1435,19.075476169701638,-5.0226307486330946,-1.7046447262454951,-1.4671646025839689
1436,19.08876918445404,-4.998954475099889,-1.6179434209951815,-1.4062295002611287
1437,19.102062199206447,-4.97733222290916,-1.5163940981141848,-1.3339436754317715
1438,19.11535521395885,-4.964500719553259,-1.4089236335425046,-1.2575393864425366
1439,19.128648228711256,-4.965416490582345,-1.3049314330750135,-1.1842420768725783
1440,19.141941243463663,-4.9826150676555025,-1.2127329422551494,-1.1201432446733295
1441,19.155234258216066,-5.0160731862503285,-1.1384151377448892,-1.0694581996433714
1442,19.168527272968472,-5.063499039232449,-1.0853184591818141,-1.0342796329548645
1443,19.18182028772088,-5.1209075198100695,-1.0541602443988194,-1.0147914081059122
1444,19.195113302473285,-5.183326949393402,-1.0436346931798122,-1.0097901239492042
1445,19.208406317225688,-5.245510129220208,-1.0512218650361587,-1.0173072277675226
1446,19.22169933197809,-5.3025622980475635,-1.073937333548552,-1.0351410324716128
1447,19.2349923467305,-5.350435324912751,-1.108838746409234,-1.0611807038733463
1448,19.248285361482903,-5.386261144868265,-1.1532300289187125,-1.0934994581286104
1449,19.26157837623531,-5.408505172776513,-1.2046156779602881,-1.1302736303774616
1450,19.27487139098772,-5.41692151279707,-1.260520911257114,-1.169623151458428
1451,19.28816440574012,-5.412305843982573,-1.3183028663270966,-1.2094671296785238
1452,19.301457420492525,-5.396083271485223,-1.3750528645398263,-1.24746483758491
1453,19.31475043524493,-5.369828350014605,-1.4276545395897067,-1.2810872378886853
1454,19.32804344999733,-5.3348596729909135,-1.473028325148787,-1.3078415300547608
1455,19.34133646474974,-5.2920450892892905,-1.5085529578354944,-1.3256405998419403
1456,19.354629479502147,-5.241883129837939,-1.5325994624195742,-1.3332617998158869
1457,19.367922494254557,-5.184816137433008,-1.545048778765145,-1.330784018807275
1458,19.38121550900696,-5.1216313106208,-1.5476196700636602,-1.3198560687054133
1459,19.394508523759363,-5.053766120809746,-1.5438454930604888,-1.303663188685791
1460,19.40780153851177,-4.983374675080303,-1.5386238801412335,-1.286532930873256
1461,19.42109455326417,-4.913112114854002,-1.5374004759893458,-1.2732362066765424
1462,19.43438756801658,-4.845705582206299,-1.545180566076173,-1.2681474770358758
1463,19.447680582768985,-4.7834502903998,-1.5656292681819133,-1.2744807731685313
1464,19.460973597521388,-4.7277727798909845,-1.6004900407460392,-1.2937910052191854
1465,19.474266612273794,-4.678955738754182,-1.6494385395506683,-1.325837566261635
1466,19.4875596270262,-4.636059454633826,-1.7103474872347022,-1.3687936897052044
1467,19.500852641778604,-4.597035574112952,-1.7798273474974555,-1.4196968809475927
1468,19.51414565653101,-4.559011872099917,-1.853862490690808,-1.474997883577211
1469,19.527438671283416,-4.51871364338567,-1.9283839625121826,-1.53107603302018
1470,19.540731686035823,-4.472963755599802,-1.9996837934000686,-1.5846302893459985
1471,19.554024700788226,-4.419174556572738,-2.0646505792715746,-1.6329093969229749
1472,19.567317715540632,-4.355728670745279,-2.1208661884263003,-1.6737972710021156
1473,19.58061073029304,-4.282156475776735,-2.1666340319164075,-1.7058087488215925
1474,19.59390374504544,-4.199058486192568,-2.2010064633341266,-1.7280656413657862
1475,19.607196759797848,-4.107785628789975,-2.2238484129081018,-1.7403088993778566
