,time,Red,Green,Blue
0,0.0,-6.993424092977684,-0.02212162340422031,-0.8696869895744977
1,0.0132928506794362,-6.910130972724545,-0.022347533001777747,-0.8642217246124319
2,0.0265857013588724,-6.831439699949178,-0.02256421380141427,-0.8594971914979564
3,0.0398785520383086,-6.75885245825777,-0.02276500496860624,-0.8559152795442536
4,0.0531714027177448,-6.692546810496729,-0.022946425724286016,-0.8535650969925169
5,0.066464253397181,-6.630850312031387,-0.023108920905366696,-0.8521903773768084
6,0.0797571040766172,-6.57001665675407,-0.023256700370581702,-0.8512556346631487
7,0.0930499547560534,-6.504485391467795,-0.023396561678319053,-0.8500857601687435
8,0.1063428054354896,-6.427775444878058,-0.023535842047921758,-0.848038126063199
9,0.1196356561149258,-6.334073016073904,-0.023679989617606808,-0.8446700792468481
10,0.132928506794362,-6.220412095922197,-0.02383057377472713,-0.839881460251445
11,0.1462213574737982,-6.089119661119465,-0.023984676245817745,-0.8340280051736926
12,0.1595142081532344,-5.94995325188494,-0.024136310876659017,-0.8280042049788473
13,0.1728070588326706,-5.821181231151412,-0.024279737648794347,-0.8232791740979413
14,0.1860999095121068,-5.728852579721327,-0.02441346346155043,-0.8218454883080129
15,0.199392760191543,-5.7037645897699445,-0.024542850231442356,-0.8260285169609036
16,0.2126856108709792,-5.776185090840744,-0.02467920495529898,-0.8381221401387694
17,0.2259784615504154,-5.969124951124651,-0.024834421026329347,-0.8598720128508031
18,0.2392713122298516,-6.291661626027453,-0.025012477589023654,-0.8919041649587447
19,0.2525641629092878,-6.734187987006842,-0.025201391101403244,-0.9332608874299546
20,0.265857013588724,-7.267256321159298,-0.02537010278038789,-0.9812203487805748
21,0.2791498642681602,-7.844851914153741,-0.025473268345221747,-1.0315204236464128
22,0.2924427149475964,-8.411679807446173,-0.02546335141563955,-1.078990922291675
23,0.3057355656270326,-8.912812636945471,-0.025305648889674997,-1.118462833749295
24,0.3190284163064688,-9.303293983955777,-0.02499013612740278,-1.1457232346033708
25,0.332321266985905,-9.555310764510907,-0.02453538473860873,-1.1582624124034608
26,0.3456141176653413,-9.661322400785219,-0.02398341026814077,-1.1556242835537145
27,0.3589069683447775,-9.632758435825336,-0.023388010259585184,-1.1392950140055584
28,0.3721998190242137,-9.495125635776056,-0.0228010479138088,-1.1122000795872822
29,0.3854926697036498,-9.281206560744765,-0.022260707462398242,-1.0779809227611998
30,0.398785520383086,-9.024275701372158,-0.021783919144449486,-1.040261063683918
31,0.4120783710625222,-8.752920613754542,-0.02136338641799754,-1.0020836029629887
32,0.4253712217419584,-8.48832371700564,-0.020968875203514058,-0.965623830517127
33,0.4386640724213946,-8.244012945248185,-0.020552552264959386,-0.932182310715441
34,0.4519569231008308,-8.027397542751919,-0.020058380762879902,-0.9023795113435832
35,0.465249773780267,-7.842054402394452,-0.01943511987399697,-0.8764291638514333
36,0.4785426244597032,-7.6897716134393415,-0.018651190494329523,-0.8543731950630122
37,0.4918354751391395,-7.571705448003757,-0.017708148215594806,-0.8362060321330896
38,0.5051283258185757,-7.488492589860655,-0.016648677330984064,-0.8218771706748067
39,0.5184211764980119,-7.439590966576712,-0.015555585547162142,-0.8112126356848148
40,0.5317140271774481,-7.422363313997694,-0.014540330955833687,-0.8038209855213445
41,0.5450068778568843,-7.431429987476716,-0.01372261939035569,-0.7990446481982457
42,0.5582997285363205,-7.458652500282046,-0.01320560099761039,-0.7959913548660965
43,0.5715925792157567,-7.493854839731229,-0.01305303711056132,-0.7936461022469066
44,0.5848854298951929,-7.526134095280735,-0.013274658130249107,-0.791033449985277
45,0.5981782805746291,-7.545430174217177,-0.013823697288829167,-0.7873825035300487
46,0.6114711312540653,-7.543962578297061,-0.014607030265229361,-0.782247287695814
47,0.6247639819335015,-7.51720560747963,-0.015504754972365295,-0.7755515933407622
48,0.6380568326129377,-7.464228776983605,-0.01639363689163167,-0.7675527255662968
49,0.6513496832923739,-7.387418734351171,-0.01716833862623296,-0.7587435503008207
50,0.6646425339718101,-7.291758313921145,-0.017755754599150013,-0.7497284236424946
51,0.6779353846512463,-7.183917099106141,-0.01812043132212195,-0.741111135109961
52,0.6912282353306826,-7.071386688805935,-0.018261912972004433,-0.7334220469348496
53,0.7045210860101188,-6.961792961326029,-0.01820686936585013,-0.7270922316728903
54,0.717813936689555,-6.86238957422167,-0.01799945788831406,-0.7224626764158669
55,0.7311067873689912,-6.779643972923862,-0.01769263660104808,-0.7198043649244178
56,0.7443996380484273,-6.7188117374154155,-0.017341697031790896,-0.7193247083740012
57,0.7576924887278635,-6.6834585484096944,-0.016999874116078888,-0.7211468357279146
58,0.7709853394072997,-6.67499107832538,-0.016715070350762324,-0.7252655553614199
59,0.7842781900867359,-6.692338221069131,-0.016526705388339426,-0.7314996239306134
60,0.7975710407661721,-6.731934166746308,-0.016462326798642683,-0.7394669398062123
61,0.8108638914456083,-6.788084839976697,-0.016534485037838928,-0.748603587056229
62,0.8241567421250445,-6.853681569932623,-0.01673897637179077,-0.7582311034309133
63,0.8374495928044807,-6.9211166092553,-0.017055512848164388,-0.7676562301425786
64,0.8507424434839169,-6.983203396863514,-0.017451161079017834,-0.7762735464510616
65,0.8640352941633531,-7.033927783052423,-0.01788588185281052,-0.7836411004852556
66,0.8773281448427893,-7.0689347153031425,-0.018318779146677584,-0.7895125842196571
67,0.8906209955222255,-7.0857444615993606,-0.018713626014654035,-0.7938290204580662
68,0.9039138462016616,-7.08375108006162,-0.01904281323230787,-0.7966872055168106
69,0.917206696881098,-7.064064956749125,-0.019289609461731194,-0.7983039401520433
70,0.930499547560534,-7.029233858198279,-0.019449048688317976,-0.7989854585848578
71,0.9437923982399704,-6.982847107897705,-0.019527718303196582,-0.7990986647742928
72,0.9570852489194064,-6.929026964638714,-0.019542429122363397,-0.7990342229975643
73,0.9703780995988428,-6.871847801245305,-0.01951755530781733,-0.7991555615840533
74,0.983670950278279,-6.814775257579345,-0.019480953455689745,-0.799739301734469
75,0.9969638009577152,-6.760247222437234,-0.019458814226583628,-0.8009235938780249
76,1.0102566516371514,-6.709499448359432,-0.019470416287274216,-0.8026840591946366
77,1.0235495023165877,-6.6626717632346235,-0.019524258193389342,-0.8048501651624853
78,1.0368423529960238,-6.619144005835115,-0.019617063514998135,-0.8071611807796509
79,1.05013520367546,-6.577982127665063,-0.0197364175946315,-0.8093467552941261
80,1.0634280543548962,-6.538352956435871,-0.019866434703543174,-0.8112087646656656
81,1.0767209050343325,-6.499797022720755,-0.019994496123111268,-0.8126815540059763
82,1.0900137557137686,-6.462314207134052,-0.020116519527191835,-0.813856066396943
83,1.1033066063932049,-6.426282600759999,-0.020238799094505724,-0.8149650337224766
84,1.116599457072641,-6.392264457111147,-0.02037589323608253,-0.816335908552376
85,1.1298923077520773,-6.360743310539866,-0.02054557320716057,-0.8183223607276332
86,1.1431851584315134,-6.331803146196935,-0.020762776296116937,-0.8212248116153453
87,1.1564780091109497,-6.304745294345915,-0.021034554537033012,-0.8252094558708271
88,1.1697708597903858,-6.277677769320031,-0.021357344591326214,-0.8302373141540098
89,1.183063710469822,-6.247208001842286,-0.021716919628650817,-0.8360208747206103
90,1.196356561149258,-6.20848089916412,-0.022090564984201786,-0.8420322873416147
91,1.2096494118286945,-6.1558551666676085,-0.022450672071472857,-0.8475870774370451
92,1.2229422625081303,-6.0844281260457915,-0.022769134189867375,-0.8520144289673359
93,1.2362351131875668,-5.992370465989352,-0.023022365554215118,-0.8548976711705529
94,1.249527963867003,-5.883657643701345,-0.02319692283683003,-0.8563332273332795
95,1.2628208145464392,-5.770403875882341,-0.02329518223628573,-0.857126703853948
96,1.276113665225875,-5.67378914446453,-0.0233394301387419,-0.8588368242106917
97,1.2894065159053116,-5.6226788770092275,-0.02337178091313128,-0.8636021922324797
98,1.3026993665847475,-5.64953787619855,-0.02344749241110784,-0.8737419706089741
99,1.315992217264184,-5.784050500869596,-0.023621075394889127,-0.8911958714764121
100,1.32928506794362,-6.045737544137169,-0.023927779833448938,-0.9169372763755518
101,1.3425779186230564,-6.437479070010976,-0.02436630705364026,-0.9505284847870937
102,1.3558707693024925,-6.9419223372412056,-0.024890096587275957,-0.9899688747445614
103,1.3691636199819288,-7.522156901507358,-0.02541277954155177,-1.0319126580038167
104,1.3824564706613651,-8.126907108834917,-0.025828353299461107,-1.0722234305499168
105,1.3957493213408012,-8.699183922459133,-0.026040298006295114,-1.1067264993021555
106,1.4090421720202375,-9.186307313722235,-0.025989437900195256,-1.1319582897944185
107,1.4223350226996736,-9.548821347556274,-0.025670401020339753,-1.1457195017078625
108,1.43562787337911,-9.766200658064577,-0.025131221129171495,-1.147310428218495
109,1.448920724058546,-9.838232171811631,-0.024457550275288578,-1.1374317394303148
110,1.4622135747379823,-9.782191317230737,-0.02374858966287154,-1.1178303166575183
111,1.4755064254174184,-9.627009221296747,-0.023093612814657213,-1.0908251444541377
112,1.4887992760968547,-9.406238412966365,-0.022555530950304024,-1.0588524181978567
113,1.5020921267762908,-9.15165234342234,-0.022163270000137344,-1.024132639940403
114,1.515384977455727,-8.888839697046471,-0.021910735291971916,-0.9885066838634486
115,1.5286778281351632,-8.63539280305284,-0.02175902206406284,-0.953432128321978
116,1.5419706788145997,-8.401494884051512,-0.021640420184638378,-0.9200877853923666
117,1.5552635294940356,-8.192099339737725,-0.021465722707061728,-0.8895098518065038
118,1.568556380173472,-8.009601889017322,-0.021137729131770477,-0.8626818970529053
119,1.581849230852908,-7.855975038326793,-0.020572119397892098,-0.8405249887976366
120,1.5951420815323445,-7.733708077228776,-0.019722730163087187,-0.8237786940123235
121,1.6084349322117804,-7.645431288118249,-0.018604078688960198,-0.812813671109642
122,1.6217277828912169,-7.5926093819050955,-0.0173023288450198,-0.8074515886213284
123,1.6350206335706527,-7.573996051340684,-0.015968069890501983,-0.8068724774930972
124,1.648313484250089,-7.5845652084025765,-0.014789710989339068,-0.8096617363871819
125,1.6616063349295254,-7.61540356004113,-0.013952933066476074,-0.8140019798525547
126,1.6748991856089614,-7.6546786958304365,-0.013596880935225606,-0.8179683575771438
127,1.6881920362883978,-7.689431575008929,-0.013779518119648863,-0.8198557877273752
128,1.7014848869678338,-7.7077013809894845,-0.014462062700302985,-0.8184597759341481
129,1.7147777376472702,-7.700433494899706,-0.015516627622471798,-0.813248058603226
130,1.7280705883267062,-7.662738230766974,-0.01675431633667604,-0.8043918241209312
131,1.7413634390061423,-7.594293655380567,-0.01796552683218404,-0.7926629269107622
132,1.7546562896855786,-7.498929427832302,-0.01896174796164064,-0.7792358614860375
133,1.767949140365015,-7.383610469282899,-0.019609023579063786,-0.7654505420281537
134,1.781241991044451,-7.257118929249951,-0.01984665850994798,-0.7525901909058045
135,1.794534841723887,-7.128716161158686,-0.019689183945507154,-0.7417116292506265
136,1.8078276924033236,-7.006991010479407,-0.01921367650802246,-0.7335422527697958
137,1.82112054308276,-6.899011373508843,-0.018537301557121907,-0.7284388731259283
138,1.834413393762196,-6.809822901139056,-0.017791075066484873,-0.7263944130020046
139,1.847706244441632,-6.742288960440825,-0.01709543852306374,-0.7270792239954845
140,1.860999095121068,-6.6972294463415505,-0.016541778283207877,-0.7299096111784057
141,1.8742919458005045,-6.6737807986291715,-0.016182109754114382,-0.7341402849467821
142,1.8875847964799408,-6.669866042175732,-0.016027329077139163,-0.7389754797415808
143,1.900877647159377,-6.682647490495882,-0.016052989119020193,-0.7436859404378259
144,1.914170497838813,-6.708855247343838,-0.016210499761148998,-0.7477110487728491
145,1.9274633485182493,-6.744946918150324,-0.01644093799310361,-0.7507234278942891
146,1.9407561991976856,-6.787138816151645,-0.016688363281132174,-0.7526409344724223
147,1.9540490498771217,-6.8314189528071605,-0.016909862565784656,-0.7535864495568985
148,1.967341900556558,-6.873670156819366,-0.017080586189744597,-0.7538131819168844
149,1.980634751235994,-6.9099815456098,-0.017193557236134232,-0.7536242588950914
150,1.9939276019154304,-6.937124757063707,-0.017255519204561767,-0.7533140755261118
151,2.0072204525948667,-6.953063593309405,-0.017280969359227967,-0.7531447643987998
152,2.020513303274303,-6.957307106298065,-0.01728653048850735,-0.7533509449726963
153,2.033806153953739,-6.950942276226534,-0.017287089006485543,-0.7541506363298541
154,2.047099004633175,-6.93628820387666,-0.017294108856115473,-0.7557389440930413
155,2.0603918553126115,-6.916254298583598,-0.01731567544445415,-0.7582552059008398
156,2.073684705992048,-6.893598780945876,-0.01735740743662681,-0.7617359498728753
157,2.086977556671484,-6.870322785215926,-0.017423429565228108,-0.7660824065409573
158,2.10027040735092,-6.8473844854254295,-0.01751695292240936,-0.7710715372726817
159,2.1135632580303563,-6.8247983174177325,-0.017640388735056894,-0.7764212888338167
160,2.1268561087097924,-6.802043880542171,-0.017795126702864875,-0.7818925125351365
161,2.1401489593892284,-6.778602371874951,-0.017981136841495386,-0.7873867933577718
162,2.1534418100686645,-6.754405817411835,-0.018196550841208733,-0.7929945175205997
163,2.166734660748101,-6.730034357845764,-0.018437445779669385,-0.7989646431683168
164,2.180027511427537,-6.706603566217682,-0.01869811101223268,-0.8055995273001848
165,2.193320362106973,-6.68540248237455,-0.018971956756285168,-0.81311092447503
166,2.2066132127864098,-6.66743225085722,-0.019252880311884976,-0.8214932341536265
167,2.219906063465846,-6.653030035330624,-0.019536550987538086,-0.8304688074895066
168,2.233198914145282,-6.64173495377296,-0.019821018037186295,-0.8395366257342728
169,2.246491764824718,-6.632466583021215,-0.02010640647564798,-0.848116681054903
170,2.2597846155041545,-6.623961411855203,-0.02039401798674973,-0.855741435056633
171,2.27307746618359,-6.615287316318838,-0.020685485686806806,-0.8622196176173308
172,2.2863703168630267,-6.606183408216744,-0.020982478979705045,-0.8676998856740291
173,2.299663167542463,-6.596997489846067,-0.021286914760652288,-0.8725953921452255
174,2.3129560182219,-6.588127094478277,-0.02160107674157095,-0.8773841054397581
175,2.3262488689013354,-6.57907811390269,-0.021926855476524666,-0.8823526145568882
176,2.3395417195807715,-6.567466909092928,-0.022263660728792434,-0.8873811199906175
177,2.352834570260208,-6.548426268903894,-0.0226053181717781,-0.8918612538461661
178,2.366127420939644,-6.514867589916609,-0.02293714203487406,-0.8947976848728981
179,2.37942027161908,-6.458874150252083,-0.023234981450468258,-0.895084011393927
180,2.3927131222985163,-6.37417760748954,-0.023467987683404017,-0.8918848735130094
181,2.4060059729779524,-6.259278559383411,-0.02360590223391029,-0.8850189354913643
182,2.419298823657389,-6.12042571739366,-0.023629900266092803,-0.8752315448949505
183,2.432591674336825,-5.973486638152917,-0.023543952954562554,-0.8642703201697107
184,2.445884525016261,-5.843816286083858,-0.023382165672995777,-0.8547222068291833
185,2.459177375695697,-5.76359029376139,-0.023207528786255278,-0.849624271577939
186,2.4724702263751337,-5.766675040744755,-0.023099540564546543,-0.8519116591233914
187,2.48576307705457,-5.881832346112354,-0.023132038650089618,-0.863806452164858
188,2.499055927734006,-6.125705394734464,-0.02334717606532718,-0.8862739094988341
189,2.5123487784134424,-6.497372837071444,-0.023734881031481254,-0.91867119924324
190,2.5256416290928785,-6.9761012566478895,-0.02422730321445834,-0.9586833592110026
191,2.5389344797723146,-7.5232240804886485,-0.024713589151533554,-1.002582728273903
192,2.5522273304517507,-8.08798572239574,-0.025072726894793746,-1.0457725130351532
193,2.565520181131187,-8.616057762161176,-0.025214143747915488,-1.083503487963718
194,2.5788130318106237,-9.058665543179998,-0.02511112256363561,-1.1116093953320336
195,2.59210588249006,-9.380146612214428,-0.02481358496231905,-1.1271078824762424
196,2.6053987331694954,-9.562327959771602,-0.02443411717736123,-1.1285590155637848
197,2.618691583848932,-9.605118242627197,-0.024111126333254126,-1.116143774458842
198,2.631984434528368,-9.523775887733194,-0.023961400936603965,-1.0914932922523435
199,2.645277285207804,-9.344075644097533,-0.02403787994722177,-1.0573441946009485
200,2.65857013588724,-9.096862958029618,-0.02430626974297775,-1.0171086161410026
201,2.6718629865666768,-8.813271011243396,-0.024647709467180597,-0.9744352903482875
202,2.685155837246113,-8.521349038849856,-0.024886582894259105,-0.9328134571389918
203,2.698448687925549,-8.24424834024323,-0.024835426823121596,-0.8952471785144728
204,2.711741538604985,-7.999646081600161,-0.024344559897819137,-0.8640123601629862
205,2.725034389284421,-7.799877887265597,-0.023343377629459223,-0.8405037682899172
206,2.7383272399638576,-7.652300661740743,-0.021863013722776468,-0.8251795162221505
207,2.7516200906432937,-7.559619848737446,-0.02003520046691702,-0.8176080963793563
208,2.7649129413227302,-7.520152645329477,-0.018068171801355726,-0.8166130732009335
209,2.7782057920021663,-7.5281502591359235,-0.016205857310574223,-0.8204942282179459
210,2.7914986426816024,-7.574327276501507,-0.014680255747474695,-0.8272876731964828
211,2.8047914933610385,-7.646673211412842,-0.013668012017568166,-0.8350189850472077
212,2.818084344040475,-7.7315163266392375,-0.01326059057667981,-0.8419079905320237
213,2.831377194719911,-7.814734906539139,-0.01345344994003813,-0.8465016338120861
214,2.844670045399347,-7.882994161455842,-0.01415448060061352,-0.8477366134179011
215,2.8579628960787837,-7.924913610733987,-0.015207362051402055,-0.8449556604835956
216,2.87125574675822,-7.93209978755028,-0.016422858581271554,-0.8379094997846956
217,2.884548597437656,-7.899976972053614,-0.017610900549541654,-0.8267655893149307
218,2.897841448117092,-7.8283115122582885,-0.01860800518741344,-0.8121199277242513
219,2.911134298796528,-7.721288407184823,-0.019296983613348955,-0.7949839304559377
220,2.9244271494759646,-7.587013089147833,-0.019617858190727467,-0.7767104955877944
221,2.9377200001554007,-7.43640648736172,-0.0195700122824226,-0.7588394526679368
222,2.9510128508348368,-7.28162036490598,-0.019206089502540227,-0.7428762941130446
223,2.964305701514273,-7.134262041811256,-0.018618689040459248,-0.7300523010189524
224,2.9775985521937094,-7.0038092130651215,-0.017921861053165816,-0.7211308576112513
225,2.990891402873145,-6.896567540366955,-0.017230573877315955,-0.7163151474567309
226,3.0041842535525816,-6.8153758348854225,-0.016642034734860055,-0.7152811350110191
227,3.017477104232018,-6.760045047584969,-0.0162224137855713,-0.7173208594370699
228,3.030769954911454,-6.728305487187044,-0.016001102867642517,-0.7215498917041182
229,3.0440628055908903,-6.716906319933287,-0.015972658563870822,-0.7271187000062483
230,3.0573556562703263,-6.722505652414242,-0.016104770075948113,-0.7333720678037355
231,3.070648506949763,-6.742105429473151,-0.01634949586515306,-0.7399196973151367
232,3.083941357629199,-6.77297743287843,-0.01665480057642004,-0.7466088138780793
233,3.097234208308635,-6.812224850936083,-0.016973966114270343,-0.7534192142941705
234,3.110527058988071,-6.856258856174606,-0.01727145603850319,-0.7603248235784699
235,3.123819909667508,-6.90049615199182,-0.017524933976066463,-0.7671754689308575
236,3.137112760346944,-6.939494937018785,-0.017724071713538285,-0.7736438988366565
237,3.15040561102638,-6.967576148482138,-0.017867364817295155,-0.7792586464298548
238,3.163698461705816,-6.97978453917748,-0.0179583856905483,-0.783512220917581
239,3.1769913123852525,-6.972898045637286,-0.018002786860582973,-0.7860075883586588
240,3.1902841630646885,-6.946148298595676,-0.018006940825279816,-0.7865926276301765
241,3.2035770137441246,-6.9013921964919875,-0.017978407846088902,-0.7854357804935752
242,3.2168698644235607,-6.84265275273786,-0.017927624345763532,-0.7830149159604184
243,3.230162715102997,-6.775163882287911,-0.017869597091890625,-0.7800197212871107
244,3.2434555657824333,-6.704224646774458,-0.017824260040745773,-0.7771968074915885
245,3.2567484164618694,-6.634224356553986,-0.017814608157743373,-0.7751862278611835
246,3.270041267141305,-6.568118531224618,-0.017862612595420456,-0.7744006889913816
247,3.283334117820742,-6.50745321553407,-0.017983893966377704,-0.7749827490911674
248,3.296626968500178,-6.452829021893956,-0.018182793270732266,-0.7768465928975266
249,3.309919819179614,-6.404549307732807,-0.01844956568548057,-0.7797809746182568
250,3.3232126698590507,-6.363161669073641,-0.01876089464867669,-0.783570674003196
251,3.336505520538487,-6.329682061301308,-0.01908398302342352,-0.7880923340057594
252,3.349798371217923,-6.305444112174593,-0.019383453335549475,-0.7933556653555288
253,3.363091221897359,-6.291674591714806,-0.01962947429023835,-0.7994844784949767
254,3.3763840725767955,-6.288994025869901,-0.0198050943669611,-0.8066531755528178
255,3.389676923256232,-6.297042647763906,-0.019910788008959436,-0.8150053976065733
256,3.402969773935668,-6.314343969914309,-0.019964766458232745,-0.8245805652676119
257,3.416262624615104,-6.33838909252617,-0.019998654824288413,-0.8352647097441462
258,3.4295554752945403,-6.365820388126501,-0.020049455582669393,-0.8467705785166911
259,3.4428483259739764,-6.392568142849165,-0.02014985241185467,-0.8586440557091397
260,3.4561411766534125,-6.413868557561795,-0.0203194081027612,-0.8702919986334611
261,3.469434027332849,-6.424242749732674,-0.02055891968053305,-0.881029882248963
262,3.482726878012285,-6.4176799612973054,-0.020849337114905275,-0.8901531021093755
263,3.496019728691721,-6.388355010798464,-0.0211556404616931,-0.8970392980170322
264,3.5093125793711573,-6.332136334531194,-0.02143519168437671,-0.901286414695879
265,3.5226054300505933,-6.248870559281875,-0.021649325072052278,-0.9028793845560023
266,3.53589828073003,-6.145012069971685,-0.021776123227843225,-0.9023576050505552
267,3.549191131409466,-6.035745311498606,-0.02182137540808654,-0.9009315990589647
268,3.562483982088902,-5.945523177928297,-0.021823946127938296,-0.9004817972544175
269,3.5757768327683386,-5.906093580227111,-0.0218518903399307,-0.9033787008971489
270,3.5890696834477747,-5.951672849302762,-0.021987379886399046,-0.9121005406332854
271,3.6023625341272107,-6.111840083542489,-0.022302073404962246,-0.9286889043430654
272,3.615655384806647,-6.40368804813029,-0.022829130186822318,-0.9541561855491952
273,3.6289482354860834,-6.825395525135144,-0.023541664697341657,-0.9880108757715181
274,3.64224108616552,-7.353355238918167,-0.024347678798852156,-1.0280678214119499
275,3.655533936844956,-7.944185643560762,-0.025107018337620416,-1.0706472560258802
276,3.668826787524392,-8.541569923580797,-0.025667657288483626,-1.1111531359183788
277,3.682119638203828,-9.086370466549825,-0.025910093978743352,-1.144898228391821
278,3.695412488883264,-9.527421185320264,-0.025784209442229956,-1.1679598214612987
279,3.7087053395627,-9.830205489134793,-0.025325214986082468,-1.1778407559206676
280,3.721998190242136,-9.981346215809493,-0.02464340393493267,-1.173778831361638
281,3.735291040921573,-9.988167838866174,-0.023892328586364673,-1.156663694534746
282,3.748583891601009,-9.874033182939565,-0.023227084170020267,-1.1286371817264125
283,3.761876742280445,-9.67121774518276,-0.02276594179602984,-1.092529696745937
284,3.775169592959881,-9.413479919090172,-0.02256512643162132,-1.0513027697490962
285,3.7884624436393177,-9.130199067047082,-0.022610802826423602,-1.0076321923625158
286,3.801755294318754,-8.843184162255854,-0.022827221627440164,-0.9636982835894563
287,3.81504814499819,-8.56630562016673,-0.02309698547767404,-0.9211752212870399
288,3.828340995677626,-8.307271460288153,-0.023288343209584454,-0.8813519548598296
289,3.8416338463570634,-8.070378151161695,-0.02328431335518981,-0.8452880978316561
290,3.8549266970364986,-7.85901481064286,-0.023008516440856365,-0.8139151280880079
291,3.868219547715935,-7.677043902848235,-0.02244283696100813,-0.7880308405294999
292,3.881512398395371,-7.528758797761717,-0.021632949493393096,-0.7681881563448962
293,3.8948052490748073,-7.417706348546671,-0.02067978071279512,-0.7545285391065683
294,3.9080980997542434,-7.345061258374741,-0.01971804076231052,-0.7466384432491576
295,3.92139095043368,-7.308337576976269,-0.018886313112537495,-0.7435052702387447
296,3.934683801113116,-7.301025809317606,-0.018295791138901413,-0.7436180018252874
297,3.947976651792552,-7.31335556204149,-0.018005644597212718,-0.7452074225465288
298,3.961269502471988,-7.333960044136658,-0.018011652643357533,-0.746569229851947
299,3.974562353151424,-7.3519124257835005,-0.01825122281350353,-0.7463799267787478
300,3.987855203830861,-7.358512672346045,-0.018623061205663566,-0.7439142237488446
301,4.001148054510296,-7.348340829110738,-0.01901513520265298,-0.7391053780439669
302,4.014440905189733,-7.3193896436432455,-0.019332002516050224,-0.7324437193443091
303,4.0277337558691695,-7.272423477319928,-0.019513273764464843,-0.7247615850735096
304,4.041026606548606,-7.2099537313508355,-0.019538748600798565,-0.7169841595605526
305,4.054319457228042,-7.1352878406537945,-0.01942099931144826,-0.7099251096469287
306,4.067612307907478,-7.051986520082684,-0.01919059177507513,-0.7041773388622642
307,4.080905158586914,-6.96381515902357,-0.01888092420808801,-0.7001068624838178
308,4.09419800926635,-6.875012141094456,-0.01851833500865175,-0.6979189920539791
309,4.107490859945787,-6.790534931651308,-0.018119649853406923,-0.6977444267019748
310,4.120783710625223,-6.715954481267329,-0.017695570688309417,-0.699694675088669
311,4.134076561304659,-6.6568442400665715,-0.017256046347666924,-0.7038587314895829
312,4.147369411984095,-6.617771632438485,-0.01681383763672847,-0.7102455442694234
313,4.160662262663531,-6.601227369050618,-0.01638444720357305,-0.7187051754453131
314,4.173955113342967,-6.6069156619875935,-0.015983092894520465,-0.7288735373688108
315,4.187247964022403,-6.63173205447333,-0.015621081556005662,-0.7401767297730789
316,4.20054081470184,-6.670512072414115,-0.015304079203872849,-0.7519061862577334
317,4.2138336653812765,-6.717343962363682,-0.015033548711399511,-0.7633465310216874
318,4.2271265160607125,-6.7670216794981455,-0.014810818644531354,-0.7739166188459313
319,4.240419366740149,-6.816156608630183,-0.014641765712507507,-0.7832785417360977
320,4.253712217419585,-6.863588495699773,-0.014539583352599413,-0.7913801702797136
321,4.267005068099021,-6.90998835884253,-0.01452375799359688,-0.7984187339056393
322,4.280297918778457,-6.956833283651134,-0.014614904195974238,-0.8047379607388109
323,4.293590769457893,-7.005150417159667,-0.014826901303270665,-0.8106916754623765
324,4.306883620137329,-7.054498302087868,-0.015159094529066877,-0.816516749405904
325,4.320176470816766,-7.102555563331295,-0.015591608493354628,-0.8222549784592567
326,4.333469321496202,-7.145460225079743,-0.01608591654978833,-0.8277476457617216
327,4.346762172175638,-7.178774633270306,-0.016591046579976235,-0.832703126745891
328,4.360055022855074,-7.198738738280968,-0.017053865501212153,-0.8368144319741263
329,4.37334787353451,-7.203387811715629,-0.017430514833077605,-0.8398872616243366
330,4.3866407242139465,-7.193168946117166,-0.01769575784362295,-0.8419346554283258
331,4.399933574893383,-7.1708649411734235,-0.017847776553465138,-0.8432033801270344
332,4.41322642557282,-7.140862822489669,-0.017907419210201614,-0.8441184734935853
333,4.426519276252256,-7.108011796420964,-0.017912446793993626,-0.8451605681018388
334,4.439812126931692,-7.076432929158361,-0.017908478268496834,-0.8467161966443103
335,4.453104977611128,-7.048631567818262,-0.017938899373932626,-0.848953301535583
336,4.466397828290564,-7.025133913511558,-0.01803603348464622,-0.8517660779931658
337,4.47969067897,-7.004678700277283,-0.018215490548780945,-0.8548074973525337
338,4.492983529649436,-6.98482072994431,-0.01847486103664787,-0.8575952847943493
339,4.506276380328872,-6.962704869288727,-0.018796838089479413,-0.8596515614175134
340,4.519569231008309,-6.935766819168562,-0.019155603026706807,-0.860627715131936
341,4.532862081687745,-6.90219230881822,-0.019524289594458573,-0.8603763597804895
342,4.546154932367181,-6.861080937998594,-0.01988103807098337,-0.8589557235212346
343,4.559447783046617,-6.812373185841142,-0.020211835480867645,-0.856578111027672
344,4.572740633726053,-6.756673389342061,-0.020509807284423965,-0.8535326830329388
345,4.5860334844054895,-6.695113033668599,-0.02077222286933898,-0.8501170911994526
346,4.599326335084926,-6.629341585220978,-0.02099744234882081,-0.8466021250339447
347,4.612619185764362,-6.561626763868179,-0.02118391315850287,-0.8432340270753234
348,4.625912036443799,-6.494937086935308,-0.021332173722185526,-0.8402593405855077
349,4.639204887123235,-6.43281910304416,-0.021449126261202107,-0.837945412197905
350,4.652497737802671,-6.378907664563338,-0.02155232045869421,-0.8365706545216041
351,4.665790588482107,-6.336026426143295,-0.021671352915383163,-0.8363719931977933
352,4.679083439161543,-6.305018934471066,-0.021844171080037354,-0.8374576422472477
353,4.692376289840979,-6.2836408629601115,-0.02210799724623864,-0.8397137536032547
354,4.705669140520415,-6.2659685863191825,-0.022487083415979683,-0.8427455492916391
355,4.718961991199852,-6.2427714315529625,-0.02298150555111008,-0.8458917374065992
356,4.732254841879288,-6.203119538444806,-0.023561705716616338,-0.8483345124211742
357,4.745547692558724,-6.13717484314873,-0.024172043489622416,-0.8493004659245303
358,4.75884054323816,-6.039714891378017,-0.02474358624068715,-0.8483176855946569
359,4.7721333939175965,-5.913581586039561,-0.025212828983550744,-0.8454691450073111
360,4.785426244597033,-5.772048523303704,-0.025540364909148346,-0.8415691012778479
361,4.798719095276469,-5.639153191313576,-0.025722849500674667,-0.8381931093258067
362,4.812011945955905,-5.547383234589757,-0.025793335242236835,-0.8375166110952479
363,4.825304796635342,-5.532705750627956,-0.02580876297593202,-0.8419603556428237
364,4.838597647314778,-5.627666496720421,-0.02582793809907073,-0.8536946245798654
365,4.851890497994214,-5.853965214916596,-0.025887196741921904,-0.8741034090657184
366,4.86518334867365,-6.216301408550065,-0.02598273001695425,-0.9033373583163061
367,4.878476199353086,-6.699192191921381,-0.026067192510044104,-0.9400779179441918
368,4.891769050032522,-7.267835551871934,-0.0260636699168739,-0.9815917520474617
369,4.905061900711958,-7.8730679493790605,-0.025893488350324317,-1.0240837276183645
370,4.918354751391394,-8.459358626636101,-0.02550816843451782,-1.0632788283262453
371,4.931647602070831,-8.97397065432435,-0.024912997539187395,-1.0951036301332155
372,4.944940452750267,-9.375178509277662,-0.024172086208375985,-1.1163166372370839
373,4.958233303429704,-9.637819686962974,-0.02339184670559192,-1.1249597297844331
374,4.97152615410914,-9.755293200174389,-0.022688583302094466,-1.1205589536834946
375,4.984819004788576,-9.738082215734527,-0.022152335099476887,-1.1040693648812003
376,4.998111855468012,-9.609660091422596,-0.021820366096886024,-1.077612841175156
377,5.011404706147448,-9.401048275890739,-0.021669359994387037,-1.0440863686534445
378,5.024697556826885,-9.145301799686331,-0.021627635983252035,-1.0067211668165
379,5.037990407506321,-8.872906060805327,-0.02160113868091186,-0.9686599630368006
380,5.051283258185757,-8.608641493795579,-0.021502752999329282,-0.9326027975820036
381,5.064576108865193,-8.370060704679078,-0.021274954600051545,-0.9005577156741348
382,5.077868959544629,-8.16741283169875,-0.02089995018819826,-0.8737205937761587
383,5.091161810224065,-8.004660512284213,-0.020396867110311256,-0.8524929144820201
384,5.104454660903501,-7.881144624820881,-0.01980980901777833,-0.8366242200583592
385,5.117747511582937,-7.793436175425413,-0.01919243130418432,-0.8254399171739979
386,5.131040362262374,-7.736962559946588,-0.018594193672770935,-0.8180934953754431
387,5.1443332129418105,-7.707104706715321,-0.018051536397196404,-0.8137753108090199
388,5.157626063621247,-7.699623507560746,-0.01758494619137129,-0.8118245232222103
389,5.170918914300683,-7.710463368950657,-0.017200965727302387,-0.8117250955449796
390,5.184211764980119,-7.7351573081142835,-0.01689701714721387,-0.8130101868962718
391,5.197504615659555,-7.768175722714532,-0.01666655223249617,-0.8151351235117356
392,5.210797466338991,-7.802581736889362,-0.01650246351461335,-0.8173919669617046
393,5.224090317018428,-7.830263953826704,-0.016397732560871313,-0.8189216850648082
394,5.237383167697864,-7.842828940775247,-0.016343655239671684,-0.818838694683921
395,5.2506760183773,-7.833000995515271,-0.016327220151773687,-0.8164333833868608
396,5.263968869056736,-7.796168892447957,-0.01632981074658964,-0.8113813971210868
397,5.277261719736172,-7.7316126483564185,-0.01632898078112778,-0.8038795180424221
398,5.290554570415608,-7.642986055887523,-0.01630363870176431,-0.7946507287649873
399,5.303847421095044,-7.537822832611203,-0.01624110630016156,-0.7848061569682374
400,5.3171402717744805,-7.426121443480073,-0.01614308028424462,-0.775600900492545
401,5.330433122453917,-7.31835248756939,-0.016027348798225427,-0.7681557187617575
402,5.3437259731333535,-7.223422480235661,-0.0159235047724418,-0.7632257127519007
403,5.35701882381279,-7.147148457586728,-0.015863398602310324,-0.7610790953126954
404,5.370311674492226,-7.0916364408942885,-0.015869595313779298,-0.7615118348588217
405,5.383604525171662,-7.055666119838921,-0.01594640372288298,-0.763980823749916
406,5.396897375851098,-7.0358652793527305,-0.016077358714409986,-0.7678038055624465
407,5.410190226530534,-7.028223230161932,-0.016230523618730425,-0.7723593919372064
408,5.42348307720997,-7.0294236195543185,-0.016369727175848982,-0.7772285086632703
409,5.436775927889407,-7.037590469919409,-0.016467361922972993,-0.7822445350400368
410,5.450068778568843,-7.052284911347258,-0.016513792359960183,-0.7874522186964015
411,5.463361629248279,-7.0738666959910175,-0.01651994914275405,-0.7930029810029443
412,5.476654479927715,-7.102543727140296,-0.016512513564793777,-0.7990282733015828
413,5.489947330607151,-7.137508769849128,-0.01652390478644204,-0.8055317027986217
414,5.503240181286587,-7.176492576148503,-0.016580941015358154,-0.8123288451346912
415,5.516533031966024,-7.21588367451082,-0.01669609912738267,-0.8190471205179342
416,5.5298258826454605,-7.2513462440681185,-0.01686400575928558,-0.8251817630613751
417,5.543118733324897,-7.278687908927876,-0.017063842018018967,-0.8301906614680673
418,5.556411584004333,-7.294653056286047,-0.01726647026022922,-0.8336024294090818
419,5.569704434683769,-7.29737020679915,-0.017443813635969526,-0.8351098175060507
420,5.582997285363205,-7.2863393851057445,-0.017577548019877622,-0.8346252652139058
421,5.596290136042641,-7.262040521511572,-0.017664488419934964,-0.8322863978205873
422,5.609582986722077,-7.2253950806457246,-0.017717072334082904,-0.8284139804716998
423,5.622875837401513,-7.177357685699677,-0.017758897801981133,-0.8234387647320965
424,5.63616868808095,-7.1188337902689325,-0.017816989759037477,-0.8178217386575779
425,5.649461538760386,-7.050946836995575,-0.01791369427034694,-0.8119910736824529
426,5.662754389439822,-6.9754884612421755,-0.018061180415177028,-0.8063088421297736
427,5.676047240119258,-6.895265711434514,-0.018260296219901693,-0.8010659515240396
428,5.689340090798694,-6.814071976845502,-0.018503546430020675,-0.7964917253754994
429,5.7026329414781305,-6.736157390110481,-0.01878023069722468,-0.7927609427569989
430,5.715925792157567,-6.665299046356716,-0.019081098335359127,-0.7899871896393573
431,5.729218642837003,-6.603772041241493,-0.01940043756940158,-0.7882031011121061
432,5.74251149351644,-6.551608004662051,-0.01973496259435629,-0.7873387715684237
433,5.755804344195876,-6.506457473675623,-0.02008053416299505,-0.7872138234410657
434,5.769097194875312,-6.464171100707104,-0.020428924991624818,-0.7875549197261414
435,5.782390045554748,-6.419959931351135,-0.020766942030781506,-0.7880413721944923
436,5.795682896234184,-6.3697845157507595,-0.02107909309321464,-0.7883711041515592
437,5.80897574691362,-6.311536464973709,-0.02135311665389983,-0.7883311835027866
438,5.822268597593056,-6.245645402796967,-0.021586044126053645,-0.7878536913674313
439,5.835561448272493,-6.174937976890855,-0.021787944483743254,-0.7870398203809773
440,5.848854298951929,-6.103813353309931,-0.02198140194402209,-0.7861424059081775
441,5.862147149631365,-6.036989467707175,-0.02219659414483744,-0.7855074997654875
442,5.875440000310801,-5.978156546604223,-0.022463606517533496,-0.7854858953774105
443,5.8887328509902375,-5.9288463956664685,-0.022804494940581784,-0.7863329340004728
444,5.9020257016696736,-5.88773378916751,-0.023227312541071004,-0.788118421210107
445,5.91531855234911,-5.850491291870976,-0.023723198657053454,-0.7906686350988069
446,5.928611403028546,-5.8102606437190385,-0.024266392483248748,-0.7935601003678354
447,5.941904253707983,-5.7587798176670955,-0.02481632402576308,-0.7961799475623091
448,5.955197104387419,-5.688173579706066,-0.025321015444706652,-0.7978589388874693
449,5.968489955066855,-5.593321623852447,-0.02572168033507074,-0.798069004174296
450,5.981782805746291,-5.474530707296467,-0.02595906040949944,-0.7966572754877608
451,5.995075656425727,-5.33998244998445,-0.02598205364791283,-0.7940663405199275
452,6.008368507105163,-5.207202606186763,-0.02575825436570848,-0.7914730855301356
453,6.021661357784599,-5.102739031055661,-0.025284427305416416,-0.7907761428532004
454,6.034954208464036,-5.059463680143187,-0.024593514059970515,-0.794383287804598
455,6.048247059143472,-5.111458198206234,-0.023754526469751815,-0.8047968559561283
456,6.061539909822908,-5.287196406097979,-0.02286322499826438,-0.8240581805528869
457,6.074832760502344,-5.602465400592783,-0.02202457121399832,-0.8531718669527909
458,6.0881256111817805,-6.054877280278956,-0.021331422249871487,-0.8916640195546764
459,6.101418461861217,-6.621681946773305,-0.02084613249471054,-0.9374168619449453
460,6.114711312540653,-7.261843985671428,-0.02059127859239605,-0.9868607442503152
461,6.128004163220089,-7.922183177079971,-0.020552431636929058,-1.0355072239371084
462,6.141297013899526,-8.546188803293811,-0.02069109342105724,-1.078704630412225
463,6.154589864578962,-9.08333951359941,-0.020961880133481624,-1.112427901863389
464,6.167882715258398,-9.496681532499279,-0.021326759079628634,-1.1339056361105622
465,6.181175565937834,-9.767046597641485,-0.021761155058015583,-1.141943522679653
466,6.19446841661727,-9.893359724138643,-0.022250876843190295,-1.1369017252962832
467,6.207761267296706,-9.889586474307325,-0.02278293820690831,-1.1203851246545768
468,6.221054117976142,-9.779633799973295,-0.023335535987592106,-1.0947731969495698
469,6.234346968655578,-9.591764799529303,-0.023871913028801456,-1.0627331707831662
470,6.247639819335015,-9.353850939385811,-0.02434020661728256,-1.026831413284492
471,6.260932670014451,-9.090251406886427,-0.02467828298554498,-0.9893039759107932
472,6.274225520693888,-8.820503264387956,-0.024820699783257513,-0.9519900968335072
473,6.287518371373324,-8.559503608790399,-0.02470519814601305,-0.9163876441000408
474,6.30081122205276,-8.318561422157087,-0.024278058129240963,-0.8837641318824946
475,6.314104072732196,-8.106619354312384,-0.023499756380524595,-0.855252693741623
476,6.327396923411632,-7.93107288217451,-0.0223530166428986,-0.8318778543223132
477,6.340689774091069,-7.797885780053979,-0.020853837097330043,-0.8144868592428579
478,6.353982624770505,-7.711025380080215,-0.019063123593089277,-0.8036009103865763
479,6.367275475449941,-7.671517061556874,-0.01709388330960544,-0.7992360849591059
480,6.380568326129377,-7.676563716799779,-0.015108280404696518,-0.8007644806359108
481,6.393861176808813,-7.719157907777123,-0.013301013773315124,-0.8068835368182364
482,6.407154027488249,-7.788451577500048,-0.01186987975925439,-0.815733439105298
483,6.420446878167685,-7.870903766915776,-0.010979355725824952,-0.8251562278824728
484,6.433739728847121,-7.951985869277151,-0.010726516738588729,-0.8330415924490642
485,6.447032579526558,-8.01806617090581,-0.011118996355846494,-0.8376724001989798
486,6.4603254302059945,-8.058068054162483,-0.012071643659507652,-0.8379813016097375
487,6.473618280885431,-8.064596685795726,-0.013423063237248033,-0.8336591533064884
488,6.486911131564867,-8.034407072926065,-0.014967416931025842,-0.8251039395014288
489,6.500203982244303,-7.968267983481176,-0.016492872206123152,-0.8132456036544288
490,6.513496832923739,-7.870397043149716,-0.017817174881085793,-0.7993105564036317
491,6.526789683603175,-7.747673088120104,-0.01881288989938574,-0.7845924497725323
492,6.540082534282611,-7.608784555170495,-0.01941863984597842,-0.7702773175860023
493,6.553375384962048,-7.463388665818916,-0.019636589119362686,-0.7573426967722497
494,6.566668235641484,-7.321284881139424,-0.0195193432032835,-0.7465239385491459
495,6.57996108632092,-7.191583444784733,-0.019150968562763118,-0.7383245860503245
496,6.593253937000356,-7.08188288028652,-0.018627095054760588,-0.7330437323172052
497,6.606546787679792,-6.9975347450469965,-0.018038286225864356,-0.730799486646371
498,6.619839638359228,-6.941126682693389,-0.017459328365608623,-0.7315396672060719
499,6.6331324890386645,-6.912316933604593,-0.016945170999810053,-0.7350436751629394
500,6.6464253397181015,-6.908091377373021,-0.016532429508173137,-0.7409285019583833
501,6.6597181903975375,-6.92340739355434,-0.016244087657210412,-0.7486733230196343
502,6.673011041076974,-6.952080540284887,-0.016094595728350505,-0.7576700518767601
503,6.68630389175641,-6.987706232288674,-0.016093004107293595,-0.7672945332388754
504,6.699596742435846,-7.024416106727978,-0.016242943746779523,-0.7769813178106133
505,6.712889593115282,-7.0573429551746285,-0.016539810618768788,-0.7862810963520144
506,6.726182443794718,-7.082775921263416,-0.016966915805398514,-0.7948866805965513
507,6.739475294474154,-7.098084469593751,-0.01749306322815433,-0.8026273182579144
508,6.752768145153591,-7.101540317353647,-0.018073641293183555,-0.8094441103743596
509,6.766060995833027,-7.09215944566454,-0.018655940569427237,-0.8153640222995193
510,6.779353846512463,-7.069634024603908,-0.01918762261974939,-0.8204844004081279
511,6.792646697191899,-7.03435366283315,-0.01962589781730807,-0.8249682544082835
512,6.805939547871335,-6.987455970491269,-0.019944656257252943,-0.8290403234374776
513,6.819232398550772,-6.930819889340717,-0.020137629110667906,-0.8329712371304855
514,6.832525249230208,-6.866931236838197,-0.020217164793177506,-0.83704343127726
515,6.8458180999096445,-6.798603678330226,-0.020209638798074605,-0.8415043524106844
516,6.859110950589081,-6.728610575002869,-0.020149283583168517,-0.8465232310431807
517,6.872403801268517,-6.659343130718731,-0.020072172260529306,-0.8521706766660845
518,6.885696651947953,-6.592624850622485,-0.020011485659372885,-0.8584322883424021
519,6.898989502627389,-6.529761286592368,-0.019994459590072202,-0.8652509312600123
520,6.912282353306825,-6.471795975352017,-0.020040850783791385,-0.8725754522944774
521,6.925575203986261,-6.419821283027529,-0.020162474772018418,-0.8803863725734544
522,6.938868054665697,-6.375119808569828,-0.020363336940688318,-0.8886775255499827
523,6.952160905345134,-6.338941079496622,-0.02064004726977782,-0.8973946139480142
524,6.96545375602457,-6.3118611668564375,-0.020982490090133733,-0.9063574361867572
525,6.978746606704006,-6.292887320716327,-0.021374958994718325,-0.9152094910446059
526,6.992039457383442,-6.278673623019289,-0.021798005643759274,-0.9234378730545947
527,7.005332308062878,-6.263317075799138,-0.022231052159545562,-0.9304866674988317
528,7.0186251587423145,-6.239142427096403,-0.02265552216356282,-0.9359547666899476
529,7.031918009421751,-6.198642489065955,-0.02305806589984017,-0.9398342114113588
530,7.045210860101187,-6.1373594731552625,-0.023433457150842142,-0.9427175481684622
531,7.058503710780624,-6.057066443004289,-0.023786753712539122,-0.9458899400396279
532,7.07179656146006,-5.968270186361482,-0.024134103038293612,-0.9512298222011936
533,7.085089412139496,-5.890951566525964,-0.024501143210880746,-0.9608750445140255
534,7.098382262818932,-5.8526967707581505,-0.02491768114543145,-0.9766700486453195
535,7.111675113498368,-5.883978827183717,-0.025407806807775064,-0.9994861164544037
536,7.124967964177804,-6.011225070617728,-0.02597619190730789,-1.0285827728488797
537,7.13826081485724,-6.249219599086447,-0.0265937823243904,-1.0612261839191675
538,7.151553665536677,-6.595009960867616,-0.02718842729646902,-1.0927693306403068
539,7.164846516216113,-7.025486754654308,-0.027646699337654054,-1.117308035847733
540,7.178139366895549,-7.500007400229766,-0.02783096596893211,-1.1288609653806223
541,7.191432217574985,-7.967959655702992,-0.027610581442391712,-1.1228219569868376
542,7.2047250682544215,-8.379465912757636,-0.02689961531362071,-1.0972751981475277
543,7.218017918933858,-8.696186495786959,-0.025688990647529875,-1.0537317823294963
544,7.443996380484273,-8.898975411205724,-0.024061163180059665,-0.9969869247085762
545,7.45728923116371,-8.990152970798196,-0.022181113175144998,-0.9340802146468228
546,7.470582081843146,-8.990009794453478,-0.020265939533603377,-0.872656747957605
547,7.483874932522582,-8.929076386867354,-0.018542544081352932,-0.8192357160093124
548,7.497167783202018,-8.838911868958313,-0.017205540525511154,-0.7779037846898541
549,7.510460633881454,-8.744288782052946,-0.016385246058045682,-0.7497700537940825
550,7.52375348456089,-8.658787356186812,-0.01613067398767265,-0.7332405225263878
551,7.537046335240326,-8.584432650253225,-0.016407808529001162,-0.7249132334954836
552,7.550339185919762,-8.514672623572721,-0.01711081206341605,-0.7207479791405664
553,7.563632036599199,-8.439129331672412,-0.018082995530183284,-0.7171529429373861
554,7.5769248872786354,-8.34834145418057,-0.019144105594404225,-0.711727571009265
555,7.590217737958071,-8.23709568968113,-0.02011979109267232,-0.7035508095527787
556,7.603510588637508,-8.105684690631032,-0.020868191996134308,-0.6930490463844993
557,7.616803439316944,-7.9592237863037685,-0.021298505458008023,-0.6815773167666093
558,7.63009628999638,-7.805735853677767,-0.021378014930240694,-0.6708839715631894
559,7.643389140675816,-7.653922979829356,-0.02112723376745386,-0.662610382534843
560,7.656681991355252,-7.511391634192276,-0.020606226234890782,-0.6579259463109252
561,7.669974842034689,-7.383720247876763,-0.019897265935941214,-0.6573399518170937
562,7.683267692714125,-7.274343891811601,-0.019088925203300897,-0.660683611375574
563,7.696560543393561,-7.184941034090181,-0.018264753892966223,-0.6672247069845793
564,7.709853394072997,-7.115919443251681,-0.01749704798199794,-0.6758631916509998
565,7.723146244752433,-7.066695850783551,-0.01684412243956552,-0.6853553710269449
566,7.736439095431869,-7.035665536641557,-0.0163487831637057,-0.69452341414427
567,7.7497319461113054,-7.0199626984034165,-0.01603635446837413,-0.7024217088789247
568,7.763024796790742,-7.015240199190849,-0.015912051802327846,-0.7084467185541032
569,7.776317647470178,-7.015710512121183,-0.01595886288239223,-0.7123877448435271
570,7.789610498149615,-7.014596546358536,-0.0161377519089804,-0.7144207701286364
571,7.802903348829051,-7.004985563703799,-0.016391658090577035,-0.7150490641490814
572,7.816196199508487,-6.980923123522021,-0.016653582624683173,-0.7149974016694457
573,7.829489050187923,-6.938482951451881,-0.016857557091981955,-0.7150742776045105
574,7.842781900867359,-6.8765331461608845,-0.016950116202308328,-0.7160259525966853
575,7.856074751546795,-6.796986612572327,-0.016899568775750523,-0.718411301368871
576,7.869367602226232,-6.704447183852749,-0.01670098078927789,-0.7225223982906931
577,7.882660452905668,-6.605307191587179,-0.016376011703251803,-0.7283631717026726
578,7.895953303585104,-6.506484003684437,-0.015968009356246194,-0.7356828947306702
579,7.90924615426454,-6.414073883574637,-0.015533618794681438,-0.7440491738133687
580,7.922539004943976,-6.332229493091377,-0.01513250200704372,-0.7529398480708186
581,7.935831855623412,-6.262522130996885,-0.01481682199753595,-0.7618344604715169
582,7.949124706302848,-6.203937905651093,-0.014622183400734682,-0.770291273953479
583,7.962417556982285,-6.153502035044541,-0.014561765627078919,-0.7780024885210833
584,7.975710407661722,-6.107363410040781,-0.01462515532733558,-0.7848260953211771
585,7.989003258341158,-6.062045088105246,-0.01478255726074011,-0.7907960069823066
586,8.002296109020593,-6.0155162690397255,-0.014993634967426474,-0.7961122617302762
587,8.01558895970003,-5.967791916921783,-0.015218687341587716,-0.8011116469834102
588,8.028881810379467,-5.920908808548002,-0.015428940464729328,-0.8062188874560582
589,8.042174661058903,-5.87831420560071,-0.015612950778570632,-0.8118817656633526
590,8.055467511738339,-5.843866560763581,-0.015777443792283463,-0.8184993968075542
591,8.068760362417775,-5.820728602196227,-0.01594278043232913,-0.8263575411534786
592,8.082053213097211,-5.810413252557071,-0.01613487408803835,-0.8355842590621189
593,8.095346063776647,-5.812150338638269,-0.016376195654446667,-0.8461326123477562
594,8.108638914456083,-5.822635874166455,-0.016678356900306685,-0.8577881282799239
595,8.12193176513552,-5.836166129207505,-0.017037937346188792,-0.8701933688319438
596,8.135224615814955,-5.845176058243561,-0.017436219390477944,-0.882884706591179
597,8.148517466494392,-5.8412735793650326,-0.01784274940007278,-0.8953467375072688
598,8.161810317173828,-5.816911376749453,-0.01822227735267227,-0.9071005317898767
599,8.175103167853264,-5.767767822704323,-0.0185444420148052,-0.9178419556445501
600,8.1883960185327,-5.695657796104908,-0.018795204632102786,-0.9276272375739407
601,8.201688869212136,-5.611399500630015,-0.018988249742529877,-0.9370671323394697
602,8.214981719891574,-5.536676537537274,-0.019173464504357526,-0.9474541275036772
603,8.22827457057101,-5.503774111361202,-0.019438684881078146,-0.9607319166062095
604,8.241567421250446,-5.552320977103586,-0.01990094808776705,-0.9792402660027729
605,8.254860271929882,-5.722883476231088,-0.020685266148369505,-1.0052323765901503
606,8.268153122609318,-6.04828406594328,-0.02189266170781722,-1.0402471103213646
607,8.281445973288754,-6.544521427292454,-0.023564094127185124,-1.0844928585569564
608,8.29473882396819,-7.2037437668703905,-0.025651015228643773,-1.1364306410141554
609,8.308031674647626,-7.991553989919812,-0.028004199835962425,-1.1927119169402385
610,8.321324525327062,-8.849942051906606,-0.030388656892959845,-1.2485354602813268
611,8.334617376006499,-9.70560889052407,-0.03252448472127331,-1.2983657332551253
612,8.347910226685935,-10.481879497462861,-0.034144420192059086,-1.336845462233324
613,8.36120307736537,-11.111355479548152,-0.03505237909134887,-1.35967785105435
614,8.374495928044807,-11.546295685057432,-0.03516623631776307,-1.364269270093834
615,8.387788778724243,-11.764466624191313,-0.034532808459586097,-1.3500029752186293
616,8.401081629403679,-11.769571107701696,-0.033311494342147766,-1.3181261148651184
617,8.414374480083115,-11.586854192183061,-0.03173208508818954,-1.271334841663848
618,8.427667330762553,-11.255625421260879,-0.03003889279972068,-1.2132037136601672
619,8.440960181441989,-10.82093217043831,-0.028435926077988723,-1.1476142794258928
620,8.454253032121425,-10.32642322659314,-0.027046348017120785,-1.0783026592133211
621,8.467545882800861,-9.809715695618019,-0.025895006926292687,-1.0085867956860437
622,8.480838733480297,-9.30060458650735,-0.024916909568335508,-0.9412710695013329
623,8.494131584159733,-8.821549474162312,-0.023988430635987965,-0.8786750481807893
624,8.50742443483917,-8.38930794408458,-0.02297288271071232,-0.8227057465858609
625,8.520717285518606,-8.01650973824269,-0.02176871510527169,-0.7748954971947526
626,8.534010136198042,-7.7123473584485245,-0.020347823264127006,-0.7363590021036732
627,8.547302986877478,-7.482194429701383,-0.018773633744436684,-0.7076719011839463
628,8.560595837556914,-7.32656546699701,-0.017193550867392462,-0.6887203858920237
629,8.57388868823635,-7.240159903605341,-0.015806998111224855,-0.6785981303560497
630,8.587181538915786,-7.211693964355332,-0.014816982714764235,-0.6756220564288559
631,8.600474389595222,-7.224884431169341,-0.014377911972275741,-0.677503406876373
632,8.613767240274658,-7.260486888222343,-0.014553706002098798,-0.681658334954557
633,8.627060090954096,-7.298908368997085,-0.015297498533026805,-0.6855929437739606
634,8.640352941633532,-7.322751601470594,-0.016458167880828004,-0.6872709560887809
635,8.653645792312968,-7.318738663109947,-0.01781152987982322,-0.6853782684438797
636,8.666938642992404,-7.2787310970210415,-0.019107605854459243,-0.6794335549612924
637,8.68023149367184,-7.199873318813988,-0.020121787610263304,-0.6697416412368618
638,8.693524344351276,-7.084103730262774,-0.020697656822214524,-0.6572268647544837
639,8.706817195030712,-6.937335859416812,-0.020772218908604815,-0.6432038249883595
640,8.720110045710149,-6.768530109834542,-0.020379207765526035,-0.6291410504765443
641,8.733402896389585,-6.588738858428095,-0.019631550535048174,-0.6164568324659987
642,8.74669574706902,-6.410106961484505,-0.018688841831693035,-0.6063665395019288
643,8.759988597748457,-6.244797716596824,-0.01771880581674234,-0.5997851668749077
644,8.773281448427893,-6.103879478205687,-0.016862550129791334,-0.5972805501689211
645,8.786574299107329,-5.996293037586752,-0.016211687289685816,-0.5990699814164883
646,8.799867149786765,-5.928061976666839,-0.01580150565544334,-0.6050522837566348
647,8.813160000466201,-5.901877168354509,-0.015619430088788064,-0.6148658951531214
648,8.826452851145639,-5.917097191458363,-0.015623608655761623,-0.6279609701632863
649,8.839745701825075,-5.970103835955229,-0.01576406747345757,-0.643672022949509
650,8.853038552504511,-6.054883608208365,-0.015999223381004315,-0.6612794817324888
651,8.866331403183947,-6.163698097239254,-0.016303311040609277,-0.6800540730043303
652,8.879624253863383,-6.287751980258046,-0.016664245232249,-0.6992851656610061
653,8.89291710454282,-6.417833262968815,-0.01707501085301694,-0.7182997938229732
654,8.906209955222256,-6.544942213555021,-0.01752355665951102,-0.7364803932133716
655,8.919502805901692,-6.660916041271089,-0.01798587280438741,-0.753285915396373
656,8.932795656581128,-6.7590050294265085,-0.018424905485343795,-0.7682751559051528
657,8.946088507260564,-6.834305279722303,-0.018795289316592717,-0.7811264679687138
658,8.95938135794,-6.883950405002136,-0.019051714789929106,-0.7916472906328675
659,8.972674208619436,-6.907025555320334,-0.019157824348267696,-0.7997703932369783
660,8.985967059298872,-6.904263771441664,-0.019092953370345923,-0.8055394710591619
661,8.999259909978308,-6.877662064994392,-0.018855373292401584,-0.8090918926605206
662,9.012552760657744,-6.830166461516926,-0.018462224427028124,-0.8106483645909516
663,9.02584561133718,-6.765510714065469,-0.017947318703359923,-0.8105161020891627
664,9.039138462016618,-6.688182459289142,-0.017358042052027563,-0.8091035047514744
665,9.052431312696054,-6.603388952957495,-0.016751821074546955,-0.8069332667909347
666,9.06572416337549,-6.516857950443738,-0.016191648217280027,-0.8046335384641219
667,9.079017014054926,-6.43436670903164,-0.015739733029792636,-0.8028896271305138
668,9.092309864734364,-6.361027260551537,-0.015448905671845859,-0.8023534816514596
669,9.1056027154138,-6.300508783910774,-0.015352786276354486,-0.803529193706217
670,9.118895566093236,-6.254469205354703,-0.015457240270635154,-0.8066695023947186
671,9.13218841677267,-6.222440462562622,-0.015736367258849873,-0.8117215865721898
672,9.145481267452109,-6.202261338978148,-0.016135613122347254,-0.8183473954509881
673,9.158774118131545,-6.190934009449117,-0.01658256151242471,-0.8260188561084839
674,9.17206696881098,-6.185586882924493,-0.017003208017798727,-0.8341607688628477
675,9.185359819490415,-6.184145483121888,-0.017339126242077167,-0.8422945106761633
676,9.198652670169851,-6.185394650462273,-0.017560009862048222,-0.850132204682041
677,9.211945520849287,-6.188348689687772,-0.017667274226800398,-0.8575873058506345
678,9.225238371528723,-6.191158491312018,-0.01768751309818007,-0.8647000610209037
679,9.23853122220816,-6.19006129502658,-0.01765849092642175,-0.8715140252839733
680,9.251824072887596,-6.179001873382636,-0.01761338452239054,-0.87796716806795
681,9.265116923567032,-6.1504480934737895,-0.0175698140793004,-0.883864098246251
682,9.27840977424647,-6.097588239379731,-0.017528375864649552,-0.8889692098907745
683,9.291702624925906,-6.017611827534074,-0.017481570370913403,-0.8932112260790105
684,9.304995475605342,-5.91528035687673,-0.01742968345375803,-0.8969355570500683
685,9.318288326284778,-5.805654486357926,-0.017396996112209594,-0.9011040312807638
686,9.331581176964214,-5.714804222049958,-0.017440903489575915,-0.9073393073080708
687,9.34487402764365,-5.67766526448811,-0.017648485703730527,-0.9177489867346349
688,9.358166878323086,-5.732885508861638,-0.018119209090895327,-0.9345318923883591
689,9.371459729002522,-5.915375641425905,-0.01893742680500753,-0.9594432222926621
690,9.384752579681958,-6.248086511961285,-0.020142548446631717,-0.9932498553437413
691,9.398045430361394,-6.735008466549925,-0.021706660715490225,-1.0353228075428922
692,9.41133828104083,-7.357319237108641,-0.023528089671899774,-1.0834855756797757
693,9.424631131720266,-8.073950294797534,-0.025444944863722396,-1.1341738932829069
694,9.437923982399704,-8.826750843466215,-0.02726630405327918,-1.1828832228326378
695,9.45121683307914,-9.549226960100597,-0.028812608980513042,-1.2248081989538733
696,9.464509683758576,-10.176903108986018,-0.029953469255663303,-1.255534036729291
697,9.477802534438013,-10.656989721903848,-0.030631874968133237,-1.2716358345135033
698,9.491095385117449,-10.95533908072391,-0.030868498146367104,-1.2710771051841385
699,9.504388235796885,-11.059501055462032,-0.030746374917024588,-1.2533604712665587
700,9.51768108647632,-10.97775638187186,-0.030382171386042975,-1.2194500038715321
701,9.530973937155755,-10.734968292107219,-0.02989333055568309,-1.17153432130844
702,9.544266787835191,-10.36668735973204,-0.029369941756908095,-1.1127175537166953
703,9.557559638514627,-9.913057161637946,-0.028857005492717663,-1.0467096698970804
704,9.570852489194063,-9.413755582720942,-0.028348742056741552,-0.9775501558808619
705,9.5841453398735,-8.904640694459852,-0.027793563086981173,-0.9093595776831035
706,9.597438190552936,-8.416156947651036,-0.027107186443379352,-0.8460908289533878
707,9.610731041232372,-7.973068273599749,-0.026191729677906422,-0.7912549517091247
708,9.62402389191181,-7.594826928211237,-0.0249592184745132,-0.7476219444989227
709,9.637316742591247,-7.295899056007508,-0.02335759078462083,-0.7169318075254097
710,9.650609593270683,-7.085617324778155,-0.021395604085891792,-0.6996782328648962
711,9.66390244395012,-6.967514982494911,-0.01916082792366445,-0.6950326881505785
712,9.677195294629556,-6.938465801994685,-0.016823681568284524,-0.7009546134260425
713,9.690488145308992,-6.988168342649371,-0.014621800029650247,-0.7144899192318716
714,9.703780995988428,-7.099492034382993,-0.012823484037356154,-0.7322103078197836
715,9.717073846667864,-7.249961650255757,-0.011675665346554401,-0.7507084017669373
716,9.7303666973473,-7.414292906378721,-0.01134830980735244,-0.7670511645294247
717,9.743659548026736,-7.567542280953677,-0.011890582758681587,-0.7791089999846869
718,9.756952398706172,-7.688223949554275,-0.013212386393750204,-0.7857126969981802
719,9.770245249385608,-7.760746501824398,-0.015098048345034058,-0.7866326693413939
720,9.783538100065044,-7.776724780204926,-0.017249263262983847,-0.7824129011560707
721,9.79683095074448,-7.7350472694170245,-0.01934550024841398,-0.774117261827743
722,9.810123801423916,-7.640904871288322,-0.021105366632815533,-0.7630541220528448
723,9.823416652103353,-7.504198392747559,-0.022333456749657556,-0.7505364597465626
724,9.836709502782789,-7.337779474967553,-0.022943169258258816,-0.7377134018359249
725,9.850002353462228,-7.155858047473315,-0.02295410077782268,-0.725483591426315
726,9.863295204141664,-6.972706098212069,-0.022469674936672353,-0.7144795730749135
727,9.8765880548211,-6.801604023592221,-0.021644404513035023,-0.7051005964064195
728,9.889880905500537,-6.65389279157839,-0.020650156814571042,-0.6975685218473276
729,9.90317375617997,-6.538040000216403,-0.01964810293669014,-0.6919843858222492
730,9.916466606859409,-6.458765577337996,-0.01876943887448612,-0.6883689131650924
731,9.929759457538845,-6.416423113768468,-0.01810495266581001,-0.6866785861024346
732,9.94305230821828,-6.406906998438682,-0.017701798909559547,-0.6868000178674881
733,9.956345158897715,-6.4222972422788684,-0.01756542652577558,-0.6885368081322605
734,9.969638009577151,-6.4522660520667765,-0.01766505654409781,-0.6916089527110113
735,9.982930860256587,-6.486017132121522,-0.017941844316355676,-0.6956798324256533
736,9.996223710936023,-6.514312100171089,-0.018319337235877704,-0.7004101120252788
737,10.00951656161546,-6.53105595672482,-0.0187157037891541,-0.7055195666270514
738,10.022809412294896,-6.534015167910081,-0.019056475707745112,-0.710828677436483
739,10.036102262974332,-6.5245034106596655,-0.019285643970915815,-0.7162593652361948
740,10.04939511365377,-6.50619873206436,-0.019372560007817327,-0.7217957798574909
741,10.062687964333206,-6.483528304815654,-0.019312768135867898,-0.7274294583964621
742,10.075980815012642,-6.460170660218695,-0.019122666280333978,-0.7331241093626074
743,10.089273665692078,-6.438140148872748,-0.018830110236095435,-0.7388262218803529
744,10.102566516371514,-6.417670861652153,-0.018464659066947175,-0.7445223495513669
745,10.11585936705095,-6.397805088061325,-0.018051177789990724,-0.7503151806200374
746,10.129152217730386,-6.377336357589515,-0.0176087945398307,-0.7564736498933347
747,10.142445068409822,-6.355657600060294,-0.017154534188639933,-0.7634171964308051
748,10.155737919089258,-6.333154916426191,-0.01670866910927294,-0.7716201080473855
749,10.169030769768694,-6.311020261588745,-0.01629809749250134,-0.7814576074261655
750,10.18232362044813,-6.290624691064731,-0.015955195482238636,-0.7930448542372099
751,10.195616471127568,-6.272778194010119,-0.01571193374764226,-0.8061300305325667
752,10.208909321807004,-6.2572244130619294,-0.015591391684540826,-0.8200882242141168
753,10.22220217248644,-6.242575734030036,-0.015600043100497861,-0.8340288168086539
754,10.235495023165877,-6.226659202404585,-0.015723853007105288,-0.8469880366674019
755,10.248787873845313,-6.207034321554123,-0.0159296114872237,-0.85814615692567
756,10.262080724524749,-6.1813712590771805,-0.016170874203042467,-0.8669991780833558
757,10.275373575204185,-6.147493389451614,-0.0163963335046152,-0.8734333127657861
758,10.28866642588362,-6.103149995864228,-0.016558061716768352,-0.8776910364737567
759,10.301959276563055,-6.045867787158262,-0.016617936900875242,-0.8802633324832676
760,10.315252127242491,-5.973375188519599,-0.016552169012077098,-0.8817737183224558
761,10.32854497792193,-5.884983145626452,-0.016355275269807526,-0.8829207017823041
762,10.341837828601363,-5.783925008471145,-0.01604516850961908,-0.8845138927126742
763,10.3551306792808,-5.6801160120052705,-0.01566973091705032,-0.8875865932489768
764,10.368423529960236,-5.59229922021551,-0.015312706797935621,-0.8935156934679996
765,10.381716380639674,-5.548339026577951,-0.015094242687994783,-0.9040513764850752
766,10.39500923131911,-5.582681248037396,-0.015160666377148779,-0.9211706876456979
767,10.408302081998546,-5.73074231349892,-0.01566039292624124,-0.9467224735575177
768,10.421594932677982,-6.0210382850883315,-0.016708051481236507,-0.981911669505896
769,10.434887783357418,-6.466864081449359,-0.018345211038400564,-1.02675014280951
770,10.448180634036856,-7.059876689290481,-0.020510510018901185,-1.0796472148534173
771,10.461473484716292,-7.767732629280823,-0.023031876995198177,-1.1373022557982644
772,10.474766335395728,-8.536953860039603,-0.02564794023422374,-1.194990313615235
773,10.488059186075164,-9.300732153485576,-0.02805631030204276,-1.2472187592520247
774,10.5013520367546,-9.989928488351929,-0.02997686634335958,-1.288615761260083
775,10.514644887434036,-10.544592700978216,-0.03121242534017683,-1.314832395918665
776,10.527937738113472,-10.923233297664398,-0.03168948651430727,-1.3232298151672737
777,10.541230588792908,-11.107807501182235,-0.03146780977741967,-1.313186645976128
778,10.554523439472344,-11.103687160783105,-0.03071700959803343,-1.285977589260909
779,10.56781629015178,-10.935242036324027,-0.029667867666496053,-1.244301271515219
780,10.581109140831217,-10.638736399144676,-0.028552760242753553,-1.1916301079008726
781,10.594401991510653,-10.254674134674035,-0.027551649110711528,-1.1315863477188735
782,10.607694842190089,-9.821487242592028,-0.026757212445134407,-1.067508913433825
783,10.620987692869525,-9.371700283715391,-0.02616615796257856,-1.0022831271435582
784,10.63428054354896,-8.930732025786568,-0.02569593797225961,-0.9383969276293691
785,10.647573394228395,-8.517663632080367,-0.02521955821712514,-0.8781043859124593
786,10.660866244907837,-8.146863668341405,-0.024607715886704608,-0.8235502805121797
787,10.674159095587273,-7.829391901276143,-0.023767481256843956,-0.7767454342983283
788,10.687451946266709,-7.573509351304706,-0.022669252119781637,-0.7393640266263402
789,10.700744796946145,-7.384194574699963,-0.021357337613509796,-0.7124264038803869
790,10.71403764762558,-7.2620762955579155,-0.019943129744629817,-0.6959954383764145
791,10.727330498305015,-7.202464485633352,-0.018582924939180064,-0.6890243100979633
792,10.740623348984451,-7.195124100415306,-0.017445078369378437,-0.6894449066837117
793,10.753916199663887,-7.225136270712359,-0.016673311849022578,-0.694499896594724
794,10.767209050343324,-7.27477333318178,-0.01635425774493762,-0.701234229761887
795,10.78050190102276,-7.325951339717663,-0.01649698974721386,-0.7070085212966618
796,10.793794751702196,-7.3626508675570035,-0.017029848041156155,-0.7098964152492916
797,10.807087602381632,-7.372757932747313,-0.017815575791941096,-0.7088765712967625
798,10.820380453061068,-7.349018176047528,-0.018680854875822675,-0.7038042133464695
799,10.833673303740504,-7.2891022625005535,-0.01945246253189811,-0.6952164335580535
800,10.84696615441994,-7.1950228735981545,-0.019990850604096045,-0.6840645049519627
801,10.860259005099378,-7.072240897425779,-0.020213378109164994,-0.6714652826647562
802,10.873551855778814,-6.928739513150207,-0.02010299633413382,-0.6585297195569516
803,10.88684470645825,-6.77418793050769,-0.019702491265741435,-0.6462790900170697
804,10.900137557137686,-6.619156573373753,-0.019097993178679426,-0.6356205456079088
805,10.913430407817122,-6.474267759764646,-0.018397408433170385,-0.6273377626542965
806,10.926723258496558,-6.349206388182529,-0.01770943272895005,-0.6220620858867941
807,10.940016109175994,-6.251645911102672,-0.01712721998703314,-0.620215766912302
808,10.95330895985543,-6.186290331824859,-0.01671841458324943,-0.6219467473296101
809,10.966601810534868,-6.154307626755946,-0.01652108121489322,-0.6270901034976827
810,10.979894661214304,-6.153380433790873,-0.016543846975082776,-0.635187548956142
811,10.99318751189374,-6.178431577251586,-0.01676853465719765,-0.6455750730829174
812,11.006480362573177,-6.2228588402930995,-0.01715435712237697,-0.6575195268453325
813,11.019773213252613,-6.279929025484227,-0.017643653883099998,-0.670361258455711
814,11.033066063932049,-6.343916812738065,-0.018169518631498422,-0.6836133919008074
815,11.046358914611483,-6.410662014152519,-0.018665205004081743,-0.6969833012645186
816,11.05965176529092,-6.47743099720686,-0.01907414006750666,-0.7103126853400986
817,11.072944615970355,-6.5422265395902786,-0.01935835449876755,-0.7234662218992761
818,11.086237466649791,-6.602897570947289,-0.019502864942484047,-0.736220356862763
819,11.09953031732923,-6.656474635393999,-0.01951441512003627,-0.7482038745016821
820,11.112823168008664,-6.699065175962851,-0.019414820291476117,-0.7589205961691419
821,11.1261160186881,-6.726416217913702,-0.01923122625061123,-0.7678513751049584
822,11.139408869367536,-6.734977123454759,-0.01898691130794617,-0.7746016270035585
823,11.152701720046974,-6.72307872318441,-0.018696099303330677,-0.7790437594372798
824,11.16599457072641,-6.691771151597302,-0.01836454400258323,-0.7814054791541992
825,11.179287421405846,-6.644960515040413,-0.017995084422273804,-0.7822719304950281
826,11.192580272085282,-6.588720959436313,-0.017595125531925077,-0.7824949049516311
827,11.205873122764718,-6.529950945592774,-0.017182141879972124,-0.783028779157309
828,11.219165973444154,-6.474784778615771,-0.016784253633938224,-0.7847343067235824
829,11.23245882412359,-6.42726953059251,-0.016435234725077467,-0.7882025693538968
830,11.245751674803026,-6.388730075465309,-0.016165897920262854,-0.7936482515567356
831,11.259044525482464,-6.358000595613136,-0.01599548807926832,-0.8009032465510548
832,11.2723373761619,-6.332394573492427,-0.01592677634243366,-0.8095126500824513
833,11.285630226841336,-6.309036897787445,-0.015946980350923554,-0.8189039380716235
834,11.298923077520772,-6.286082768123354,-0.01603410702603254,-0.8285766063087496
835,11.312215928200208,-6.2634239849278215,-0.01616589756380856,-0.8382520527703055
836,11.325508778879644,-6.242688846485493,-0.01632734318861344,-0.8479356024853132
837,11.33880162955908,-6.226587229625776,-0.016513387426064337,-0.8578713374655382
838,11.352094480238517,-6.217843251442057,-0.01672573175644621,-0.8684062049547289
839,11.365387330917953,-6.21803534090448,-0.016965503725328304,-0.8798094545427343
840,11.378680181597389,-6.226628301218125,-0.017225457487971062,-0.8921057383705713
841,11.391973032276823,-6.2403902638580195,-0.017485426799390705,-0.9049724436657617
842,11.40526588295626,-6.253315093955926,-0.017713136013112293,-0.917731123891839
843,11.418558733635695,-6.257160487798172,-0.017870292445076034,-0.9294408392529152
844,11.431851584315131,-6.242736726491239,-0.017922298658886504,-0.9390850985333762
845,11.44514443499457,-6.202053091124693,-0.01784941928055071,-0.9458322500950309
846,11.458437285674004,-6.1312562105709745,-0.017657465248068438,-0.9493346308199212
847,11.471730136353443,-6.0339534316111765,-0.017386272178657746,-0.950010746106753
848,11.48502298703288,-5.924094344113552,-0.017113944701546997,-0.9492325692703013
849,11.498315837712315,-5.827275039511017,-0.016954197182451752,-0.9493304103184214
850,11.511608688391751,-5.779351266968903,-0.017044003313629572,-0.9533460532168075
851,11.524901539071188,-5.821739166220785,-0.017520205349526013,-0.964518802417634
852,11.538194389750624,-5.99370979049819,-0.01848714630810274,-0.9855712085148846
853,11.55148724043006,-6.323093458677641,-0.019981966587451043,-1.0179466614816304
854,11.564780091109496,-6.8176913764556,-0.02194795822125352,-1.061204493469439
855,11.578072941788932,-7.459933850022849,-0.02422696963744673,-1.1127693930931644
856,11.591365792468368,-8.20671188123944,-0.026577938704699235,-1.1681519354437544
857,11.604658643147804,-8.9949580875624,-0.02872083037655765,-1.2216265753854898
858,11.61795149382724,-9.751898849991647,-0.030396253286950062,-1.2672167163928199
859,11.631244344506676,-10.407526760959701,-0.03142446868743948,-1.2997431368012067
860,11.644537195186112,-10.906236131951044,-0.03174625906540032,-1.3156761583648215
861,11.657830045865548,-11.214909594776174,-0.03143295763930282,-1.3135976345617597
862,11.671122896544986,-11.325869262066085,-0.030662247015801426,-1.2941996603080062
863,11.684415747224422,-11.25458569195844,-0.029666896224158145,-1.2598783718462068
864,11.697708597903858,-11.033381820267307,-0.028671836237719815,-1.214079876404496
865,11.711001448583296,-10.703199534478086,-0.02783815258528909,-1.1605948100655674
866,11.72429429926273,-10.305646537699996,-0.027229720453181824,-1.1029752383254054
867,11.737587149942168,-9.877065203677331,-0.02681041698461955,-1.0441795380345247
868,11.750880000621605,-9.445490543162528,-0.02646993561109581,-0.9864654767831554
869,11.76417285130104,-9.030405307168467,-0.026067726693880692,-0.9314775346066165
870,11.777465701980477,-8.644453206683908,-0.02548034524078872,-0.8804318645560388
871,11.790758552659913,-8.295922119118812,-0.02463850158752211,-0.8342978566470014
872,11.804051403339349,-7.990888499380893,-0.023545245577013808,-0.7939025364925667
873,11.817344254018783,-7.734316138044587,-0.02227344936640408,-0.7599285086438344
874,11.83063710469822,-7.5299458857929125,-0.02094650796355574,-0.732821868517297
875,11.843929955377655,-7.379308809158396,-0.019709392881605142,-0.7126603512174238
876,11.857222806057091,-7.280497148302245,-0.018697694866672065,-0.6990456427896372
877,11.87051565673653,-7.227364603363441,-0.018010932564850687,-0.6910747773924032
878,11.883808507415964,-7.209618841822805,-0.017694369134446945,-0.6874180010803751
879,11.8971013580954,-7.213913206883717,-0.01773170031303987,-0.6864943408750626
880,11.910394208774838,-7.225682132785712,-0.01804940633041212,-0.6867039784183212
881,11.923687059454274,-7.2312258198377055,-0.01853194773489662,-0.6866591330867586
882,11.93697991013371,-7.219507258716269,-0.019045037211964887,-0.6853576783511338
883,11.950272760813146,-7.183272828593703,-0.019462197142704193,-0.6822643109309958
884,11.963565611492582,-7.119370633654022,-0.01968855583994972,-0.6772948484647011
885,11.976858462172018,-7.028406563180057,-0.019676235272325104,-0.6707287888174187
886,11.990151312851454,-6.91404396591633,-0.019427987741665525,-0.6630926215410397
887,12.00344416353089,-6.78226512890493,-0.018989237062923336,-0.6550551617871657
888,12.016737014210326,-6.640786062697073,-0.018432017259583117,-0.6473577926380709
889,12.030029864889762,-6.498624004253633,-0.017836195520558755,-0.6407762228493101
890,12.043322715569198,-6.365658405687261,-0.01727322784317813,-0.6360894759687519
891,12.056615566248636,-6.251981141555816,-0.01679583763754142,-0.6340273050998658
892,12.069908416928072,-6.166925253120276,-0.01643441001171956,-0.6351819923802606
893,12.083201267607508,-6.117850328550628,-0.01619869840180468,-0.6398972497769568
894,12.096494118286945,-6.108953021258907,-0.01608240621121473,-0.6481712778401691
895,12.10978696896638,-6.140464044946876,-0.016068416217839714,-0.6596187369708897
896,12.123079819645817,-6.208532750215372,-0.01613339580561182,-0.6735211243701047
897,12.136372670325253,-6.305902322795342,-0.016251507405433095,-0.6889621320684651
898,12.149665521004689,-6.423219923239562,-0.016397494042771084,-0.7050085823043479
899,12.162958371684123,-6.550609985439828,-0.01654938044709688,-0.7208754769028799
900,12.17625122236356,-6.679052686373418,-0.01669068680813922,-0.736016939134426
901,12.189544073042995,-6.801192231775767,-0.01681178873092127,-0.7501136278606401
902,12.202836923722431,-6.911425782872065,-0.01691010862954454,-0.762970056259613
903,12.21612977440187,-7.005408794120515,-0.016989111679849907,-0.7743736958737076
904,12.229422625081304,-7.079340852689617,-0.017056339728385467,-0.7839847623067826
905,12.24271547576074,-7.129469329473164,-0.01712079713297044,-0.7913134727324687
906,12.256008326440178,-7.152130748813674,-0.017190005006501485,-0.7958054432604014
907,12.269301177119614,-7.144388782743893,-0.017267146824213316,-0.7970110823746092
908,12.282594027799052,-7.105033914401506,-0.017348929647131382,-0.7947797780670047
909,12.295886878478488,-7.035509831795896,-0.017424848160102414,-0.7894077921621498
910,12.309179729157924,-6.9403145410377665,-0.01747825691606587,-0.7816831912750516
911,12.32247257983736,-6.826603715674364,-0.0174890960851146,-0.7728046753028843
912,12.335765430516796,-6.70303026167673,-0.017437589741250946,-0.7641908242910016
913,12.349058281196232,-6.578160375916922,-0.01730803794230467,-0.7572290265865658
914,12.362351131875668,-6.458981075684308,-0.017091998952006197,-0.7530300553717322
915,12.375643982555104,-6.349981120621577,-0.01679050397516023,-0.7522512772870881
916,12.38893683323454,-6.253062127820372,-0.01641522075699439,-0.7550305974990883
917,12.402229683913976,-6.168219048134676,-0.015988589815065245,-0.7610408387470189
918,12.415522534593412,-6.094653415709178,-0.015542953874172493,-0.7696397523428832
919,12.428815385272848,-6.03185624310259,-0.015118663785538389,-0.7800646588726925
920,12.442108235952285,-5.98025807849449,-0.014761104561491139,-0.7916114882481496
921,12.45540108663172,-5.941252387669851,-0.014516589302658214,-0.8037495456635086
922,12.468693937311157,-5.916660213687187,-0.014427210784939373,-0.8161518284145848
923,12.481986787990596,-5.907907053960992,-0.014525066072638166,-0.8286543001605817
924,12.49527963867003,-5.91524384856419,-0.014826672660018567,-0.8411806892720841
925,12.508572489349469,-5.937248414471235,-0.015328666369781632,-0.8536714405311219
926,12.521865340028905,-5.9706588094920825,-0.016005855219844302,-0.8660378934992262
927,12.53515819070834,-6.010433621536487,-0.016812384899463247,-0.8781390235150182
928,12.548451041387777,-6.049907562560319,-0.01768624241673122,-0.8897647882916373
929,12.561743892067213,-6.081035758638858,-0.018556720343112457,-0.9006160060140245
930,12.575036742746647,-6.094919499633186,-0.019353943014202814,-0.9102913267678509
931,12.588329593426083,-6.082941120076804,-0.020019271136251033,-0.9183130544046073
932,12.60162244410552,-6.038777109971825,-0.02051540108014163,-0.9242295243900613
933,12.614915294784955,-5.9612558830791444,-0.020835097380489515,-0.9278125246475899
934,12.628208145464392,-5.857546016826366,-0.021007419735543296,-0.929324627905172
935,12.641500996143828,-5.745679950787473,-0.021099824526956842,-0.9297771630952987
936,12.654793846823264,-5.6551731552806475,-0.021213878723143693,-0.9310601915859242
937,12.6680866975027,-5.624690172668335,-0.021472276632106314,-0.9358286833717016
938,12.681379548182138,-5.696396773106477,-0.021996268472600902,-0.9470878881502733
939,12.694672398861574,-5.907675416489204,-0.02287577906535474,-0.9675230974054159
940,12.70796524954101,-6.281934652519481,-0.024138579945374564,-0.9987268523213375
941,12.721258100220446,-6.820900798807295,-0.025728019947715664,-1.0405438445367323
942,12.734550950899882,-7.5007215111226975,-0.027498959622548075,-1.0907475851251216
943,12.747843801579318,-8.273357401154108,-0.029237617929665106,-1.1451795337071993
944,12.761136652258754,-9.073317344614374,-0.03070379561636424,-1.19834757791204
945,12.77442950293819,-9.828272742522628,-0.03168592585202249,-1.244343380822276
946,12.787722353617626,-10.470993012603289,-0.03205381125296105,-1.2778460212226372
947,12.801015204297062,-10.949752345248093,-0.031793094171949865,-1.2949643616595736
948,12.814308054976498,-11.234938736887408,-0.03101003628186584,-1.293734915713082
949,12.827600905655936,-11.320807201553384,-0.02990375414348733,-1.2742079721493618
950,12.84089375633537,-11.222712819122012,-0.02871302408768915,-1.2381770517683415
951,12.854186607014809,-10.971265388226671,-0.027652888727808907,-1.1886915213798663
952,12.867479457694245,-10.605346446694972,-0.026859680088917252,-1.1295145160329438
953,12.88077230837368,-10.165757741397652,-0.02636030219684978,-1.0646514251697055
954,12.894065159053117,-9.690615246328123,-0.026073556919733447,-0.9980054577036379
955,12.907358009732553,-9.212791821996012,-0.025840973249834677,-0.9331522284367233
956,12.920650860411987,-8.759053910198661,-0.02547591874069367,-0.8731907081016548
957,12.933943711091423,-8.350205604693366,-0.024815724460998657,-0.8206281311172986
958,12.94723656177086,-8.001554683962233,-0.02376293578119839,-0.7772785632106123
959,12.960529412450295,-7.723242771966799,-0.022307150791959485,-0.7441799640841729
960,12.973822263129732,-7.520289069506779,-0.020525564000776222,-0.7215491938020249
961,12.98711511380917,-7.392456585518697,-0.018565823309206027,-0.7087944835537
962,13.000407964488604,-7.334186311445783,-0.016617791178088624,-0.7045942136242295
963,13.013700815168042,-7.3348467589726845,-0.014881222110112243,-0.7070370255085432
964,13.026993665847478,-7.379455033618809,-0.013535035400149826,-0.7138086321520154
965,13.040286516526914,-7.449904111062653,-0.012711868436702582,-0.722408627753925
966,13.05357936720635,-7.5266271481287434,-0.012479898705260553,-0.7303840356739426
967,13.066872217885786,-7.59055670048883,-0.01283307808457031,-0.7355691009892769
968,13.080165068565222,-7.625181354248141,-0.01369088783599426,-0.736317104872273
969,13.09345791924466,-7.618450504301729,-0.014908807408271513,-0.7316990489693597
970,13.106750769924096,-7.564236558107261,-0.016299890282765843,-0.721632116505775
971,13.120043620603532,-7.463062136905991,-0.017665550147109,-0.7068979363471287
972,13.133336471282968,-7.3218728235602155,-0.018830339351791243,-0.6890245635705401
973,13.146629321962404,-7.152799023085709,-0.019672704677831696,-0.6700365347683394
974,13.15992217264184,-6.9710797299877525,-0.020143290794990755,-0.652114962656161
975,13.173215023321276,-6.792550306534177,-0.020265300970155192,-0.6372396470894596
976,13.186507874000712,-6.63123703006289,-0.020117012456883916,-0.6268942997095882
977,13.199800724680149,-6.497580913847838,-0.019802580045451046,-0.6218987419571638
978,13.213093575359585,-6.397617846170134,-0.01942112959760329,-0.6223935963195389
979,13.22638642603902,-6.333134290146744,-0.019044139754416416,-0.6279575070795788
980,13.239679276718457,-6.30251805149434,-0.018707269451584522,-0.6378010084450626
981,13.252972127397893,-6.301856201226789,-0.018416827387772547,-0.6509673003522445
982,13.266264978077327,-6.325863477068494,-0.01816554905424057,-0.6664818687706537
983,13.279557828756763,-6.368426891279049,-0.017949458317819623,-0.6834236730457994
984,13.292850679436205,-6.422816729461289,-0.017778276635543648,-0.7009272013541119
985,13.30614353011564,-6.481806103052401,-0.017675475860177627,-0.7181522772299049
986,13.319436380795077,-6.537970363012815,-0.01766889177346691,-0.7342665450538418
987,13.332729231474511,-6.584301752892312,-0.01777678401280868,-0.7484719278827159
988,13.346022082153947,-6.6150551787037495,-0.017995852128242812,-0.7600784702309926
989,13.359314932833383,-6.626556949462993,-0.01829654752876348,-0.7686010081409234
990,13.37260778351282,-6.617656117929301,-0.018627711892149408,-0.7738402197563976
991,13.385900634192256,-6.589606829464366,-0.018928587460283364,-0.7759163035505396
992,13.399193484871692,-6.545390949292306,-0.019143302403111868,-0.7752457715801176
993,13.412486335551128,-6.488720161343024,-0.01923230668371327,-0.7724760479299482
994,13.425779186230564,-6.423086631559082,-0.019177122961254404,-0.7684049295939005
995,13.43907203691,-6.351198143141055,-0.018978148361682566,-0.7639069150632418
996,13.452364887589436,-6.274952243093036,-0.018648342287222903,-0.759871643266898
997,13.465657738268872,-6.195861081682281,-0.01820695546662894,-0.7571439382098096
998,13.478950588948308,-6.11564936492495,-0.01767653575639184,-0.7564513701574799
999,13.492243439627746,-6.036697749735731,-0.01708401085236923,-0.7583164740584726
1000,13.505536290307182,-5.962108127576839,-0.016464080881118077,-0.7629700626282607
1001,13.518829140986618,-5.895366070648559,-0.015861718917484998,-0.7702978820947197
1002,13.532121991666054,-5.839766919967254,-0.015330839937290022,-0.7798549113916438
1003,13.54541484234549,-5.797860204404823,-0.014927881889125829,-0.7909652504417471
1004,13.558707693024926,-5.771109948889242,-0.014701288565116911,-0.8028939611914389
1005,13.572000543704362,-5.759800259229307,-0.014679712000782002,-0.8150418263911589
1006,13.5852933943838,-5.763035917817445,-0.01486248138550867,-0.8270916730539263
1007,13.598586245063236,-5.778614255676197,-0.015215362218252678,-0.8390409644083302
1008,13.61187909574267,-5.802648263153576,-0.015673200786276716,-0.8510944442842978
1009,13.625171946422109,-5.829077436560868,-0.01614933005328344,-0.863451333337295
1010,13.638464797101545,-5.8494908276737405,-0.016550187401280225,-0.8760790839051976
1011,13.65175764778098,-5.853838452236038,-0.01679279807937145,-0.8885918167321024
1012,13.665050498460417,-5.832487592251719,-0.016822616497382828,-0.900327842718459
1013,13.678343349139851,-5.779656905544449,-0.016629393370856494,-0.910648536541638
1014,13.691636199819287,-5.697634710740721,-0.01625879813515616,-0.919383897483864
1015,13.704929050498723,-5.600575025824336,-0.01581717528251631,-0.9272667287372317
1016,13.71822190117816,-5.516332844937703,-0.015466269305676877,-0.9361653084443681
1017,13.731514751857596,-5.48496738805788,-0.015404860849352067,-0.9489642816837395
1018,13.744807602537032,-5.553276756693605,-0.01583608249271536,-0.9690479693178519
1019,13.75810045321647,-5.765884238014021,-0.016923198087505423,-0.999475140504104
1020,13.771393303895906,-6.1546317245548074,-0.01874199739791635,-1.0420512543351539
1021,13.784686154575342,-6.7289103295377615,-0.021242500602938565,-1.0965602244490957
1022,13.797979005254778,-7.469698814216363,-0.024233742458684756,-1.1603918215074078
1023,13.811271855934214,-8.329337379246383,-0.02740133322041545,-1.228700396609303
1024,13.82456470661365,-9.237600276175895,-0.030358741842937246,-1.2950870443324058
1025,13.837857557293086,-10.112889820021394,-0.03272258562587206,-1.3526541305890698
1026,13.851150407972522,-10.875930622761182,-0.03419359226486569,-1.3951805802517787
1027,13.864443258651958,-11.46268179989097,-0.03462168498576164,-1.4181378366299364
1028,13.877736109331394,-11.83351531298679,-0.03403717748059915,-1.4193181028650226
1029,13.89102896001083,-11.976887489254064,-0.032639276595027716,-1.398961975119617
1030,13.904321810690268,-11.90732890613261,-0.030745022287508934,-1.3594146961940807
1031,13.917614661369704,-11.659051294254777,-0.02871270963890045,-1.3044623781481663
1032,13.93090751204914,-11.277366437936156,-0.026860455999868554,-1.2385623312550817
1033,13.944200362728576,-10.810230461152628,-0.025401080652005317,-1.1661689015169765
1034,13.957493213408013,-10.301666006454843,-0.024408963061883237,-1.09128164101484
1035,13.970786064087449,-9.787889681789581,-0.023824896295568127,-1.0172424316165998
1036,13.984078914766885,-9.296052301193079,-0.023494122980335173,-0.9467231766292076
1037,13.99737176544632,-8.844861339687723,-0.02322395524745683,-0.8818033812323723
1038,14.010664616125757,-8.446114843909617,-0.022843186597155465,-0.8240431711307503
1039,14.023957466805191,-8.10630073783981,-0.022246946884374588,-0.7744988262932226
1040,14.037250317484627,-7.827769987376452,-0.02141686094718654,-0.7336813285248525
1041,14.050543168164063,-7.60939520414559,-0.020414883250686744,-0.7015001120174188
1042,14.0638360188435,-7.446913491762551,-0.01935694952160329,-0.6772487607502727
1043,14.077128869522936,-7.333238245203549,-0.018377199332460663,-0.6596745873018736
1044,14.090421720202372,-7.258933372835234,-0.017594017697713786,-0.6471402835866097
1045,14.103714570881811,-7.212881202191072,-0.017086116385409002,-0.6378503168713077
1046,14.117007421561247,-7.18305853944253,-0.016882014265195477,-0.6300930072400083
1047,14.130300272240683,-7.157322660206709,-0.01696161830597372,-0.6224485120968956
1048,14.14359312292012,-7.124179024189436,-0.017265778896540043,-0.6139300333165085
1049,14.156885973599556,-7.0735816703223655,-0.017709314110430995,-0.6040496735858987
1050,14.170178824278992,-6.997831563690448,-0.01819449154213203,-0.5928193006922222
1051,14.183471674958428,-6.892557149504211,-0.018623948843829383,-0.5807031336642797
1052,14.196764525637864,-6.757615687661804,-0.018913176039670358,-0.568533435225402
1053,14.2100573763173,-6.597622484917764,-0.019002407805858785,-0.5573918687516697
1054,14.223350226996736,-6.421787143078465,-0.018866526224369344,-0.5484567696561485
1055,14.236643077676172,-6.242862839590554,-0.018520431139762445,-0.542825567626419
1056,14.249935928355608,-6.075274690828124,-0.01801732347528438,-0.5413376586891364
1057,14.263228779035044,-5.9327906309165135,-0.01743885576175247,-0.544435560517399
1058,14.27652162971448,-5.826302647679932,-0.01687866244241857,-0.5521012893156749
1059,14.289814480393916,-5.7622951708506855,-0.016423274899558096,-0.5638877074306891
1060,14.303107331073354,-5.742369550015473,-0.016135635784753154,-0.5790368549119642
1061,14.31640018175279,-5.763844350187364,-0.01604565784162456,-0.5966500459908123
1062,14.329693032432226,-5.82110136876536,-0.016149749812065933,-0.6158586615994601
1063,14.342985883111664,-5.907138762515886,-0.0164180501348928,-0.6359462091349288
1064,14.3562787337911,-6.0148040410154575,-0.016805690458680737,-0.6563907323276239
1065,14.369571584470537,-6.137393284887938,-0.017263751960389657,-0.6768255334852898
1066,14.38286443514997,-6.268617385978207,-0.017746746468638046,-0.696945553687342
1067,14.396157285829409,-6.402213790421736,-0.018215662729239652,-0.7164063283350341
1068,14.409450136508845,-6.53160824250693,-0.018637749820186227,-0.734764380030439
1069,14.42274298718828,-6.649960087233805,-0.018985386757694518,-0.7514900945225919
1070,14.436035837867715,-6.750699451099379,-0.019236256952124258,-0.7660524655065117
1071,14.449328688547151,-6.828396737201413,-0.019375797690409362,-0.7780426746380616
1072,14.462621539226587,-6.879623071935157,-0.019401149093943512,-0.7872851574598065
1073,14.475914389906023,-6.903447816778767,-0.019324432526330686,-0.7938895772943658
1074,14.48920724058546,-6.90137348408863,-0.019172886524284786,-0.7982228521942769
1075,14.502500091264896,-6.876746623596586,-0.018984433235310186,-0.8008145749236527
1076,14.515792941944332,-6.833889171591318,-0.018799215239793995,-0.8022355297279616
1077,14.52908579262377,-6.777277302506752,-0.018649599982666396,-0.8029958014246719
1078,14.542378643303206,-6.711027408941262,-0.018552129464776645,-0.8034945122449042
1079,14.555671493982642,-6.63877450410642,-0.01850438864827517,-0.8040259210693332
1080,14.568964344662078,-6.563835087943161,-0.018487971598978106,-0.8048202748108846
1081,14.582257195341514,-6.489426032091536,-0.01847642051207823,-0.806084955305205
1082,14.59555004602095,-6.418716458312837,-0.018445186050332227,-0.8080176954593837
1083,14.608842896700386,-6.354610080318084,-0.018380053060075424,-0.8107848543005597
1084,14.622135747379822,-6.299322826855156,-0.018281278766200573,-0.8144818613520591
1085,14.635428598059258,-6.2539474829904655,-0.018162466933379584,-0.8191060314616184
1086,14.648721448738694,-6.218225115879275,-0.01804513365773642,-0.8245662552766471
1087,14.66201429941813,-6.190669121202273,-0.01795122982729206,-0.8307330286012601
1088,14.675307150097566,-6.1690547924034655,-0.01789619691099504,-0.8375085513485415
1089,14.688600000777004,-6.151152280703266,-0.017884560099635398,-0.8448839446959763
1090,14.70189285145644,-6.135486493775147,-0.01790901288953719,-0.8529553198663398
1091,14.715185702135877,-6.121874068453098,-0.017952848594339536,-0.8618884133508252
1092,14.728478552815313,-6.111518700791492,-0.017994731662341466,-0.8718421646769706
1093,14.741771403494749,-6.1065368026171996,-0.01801429019010172,-0.8828748986906223
1094,14.755064254174185,-6.108925552953336,-0.01799686212034275,-0.8948588179444043
1095,14.76835710485362,-6.119159750046152,-0.017935947540382285,-0.9074228357157571
1096,14.781649955533055,-6.134788391785219,-0.017832561362503684,-0.9199377839105293
1097,14.794942806212491,-6.14955493727608,-0.017691776308545723,-0.9315569458476626
1098,14.808235656891927,-6.153620949567128,-0.01751813529968578,-0.9413271138788
1099,14.821528507571363,-6.135353059593054,-0.017312806970159158,-0.9483828594402774
1100,14.8348213582508,-6.084785513417766,-0.01707561289947645,-0.9522204896998699
1101,14.848114208930236,-5.998318698233507,-0.01681371342694088,-0.9530159473350965
1102,14.861407059609672,-5.88358799306478,-0.016555727743883038,-0.9519111176387479
1103,14.87469991028911,-5.762956617709963,-0.016366251360943464,-0.9511627336376905
1104,14.887992760968546,-5.67399328334067,-0.01635284278316733,-0.9540462143329439
1105,14.901285611647982,-5.665758833248599,-0.016657516748157478,-0.9644458674341427
1106,14.91457846232742,-5.79074573224059,-0.017428755954273813,-0.9861422474047156
1107,14.927871313006856,-6.09366826145677,-0.018777505749278514,-1.0219093493495977
1108,14.941164163686292,-6.599571076272963,-0.02072902757686828,-1.072625772669571
1109,14.954457014365728,-7.304418223759964,-0.023188006564881035,-1.1366467191312504
1110,14.967749865045164,-8.171076662748442,-0.02593340620671014,-1.2096504225260911
1111,14.9810427157246,-9.13236351246181,-0.028651102021646627,-1.28506241428133
1112,14.994335566404036,-10.100920307498429,-0.030998850284069547,-1.3550045386252472
1113,15.007628417083472,-10.98373736929121,-0.03268521338394031,-1.4115653707185898
1114,15.020921267762908,-11.697848642162763,-0.0335375875734971,-1.4480977886515345
1115,15.034214118442344,-12.183488990100225,-0.03353760101026796,-1.4602487802307234
1116,15.04750696912178,-12.411881136664176,-0.03281358649468874,-1.4465120741409434
1117,15.060799819801217,-12.386433662001567,-0.03159466610067687,-1.4082308548755504
1118,15.074092670480653,-12.13790733985273,-0.03014321454806306,-1.349117321584504
1119,15.087385521160089,-11.715495882244726,-0.028687765151763696,-1.2744572061330646
1120,15.100678371839525,-11.176430820998508,-0.027375705437058945,-1.190209531617946
1121,15.113971222518964,-10.576592618977722,-0.026256446324869665,-1.1021946310291753
1122,15.1272640731984,-9.963856538058256,-0.02529498244797528,-1.015501474611709
1123,15.140556923877837,-9.374832330463569,-0.024406755092619012,-0.9341621997188502
1124,15.153849774557273,-8.834627683518365,-0.02350002836849235,-0.8610643202211703
1125,15.167142625236709,-8.358576806482715,-0.02251226359064013,-0.7980224485158165
1126,15.180435475916145,-7.954679961884075,-0.02143119473826572,-0.7459220013141414
1127,15.19372832659558,-7.625756311340052,-0.020297394608475697,-0.7048708046265549
1128,15.207021177275015,-7.37082170894004,-0.019190839633413035,-0.6743317940970943
1129,15.220314027954451,-7.18571130296021,-0.018207739601117306,-0.6532409073543426
1130,15.233606878633887,-7.0632832746066345,-0.017435162968513843,-0.6401274211182901
1131,15.246899729313323,-6.9936038646173895,-0.016930135391063424,-0.6332497217260412
1132,15.26019257999276,-6.964385846854498,-0.016707695884405387,-0.6307459444693461
1133,15.273485430672196,-6.961754497728694,-0.016739603887288772,-0.6307860365413243
1134,15.286778281351632,-6.971258271027839,-0.016962607942982332,-0.6317067500663138
1135,15.300071132031068,-6.9789796422032655,-0.017292988928763988,-0.6321157133765589
1136,15.313363982710504,-6.97262243152947,-0.017643023555243876,-0.6309613589712062
1137,15.326656833389942,-6.942501798274951,-0.017935363864974886,-0.6275751616964501
1138,15.339949684069378,-6.882388227755819,-0.01811285489360865,-0.6216953671224703
1139,15.353242534748814,-6.790136409892798,-0.018143247297666656,-0.6134758433999691
1140,15.36653538542825,-6.6679855760721525,-0.018019697205984817,-0.6034740059350165
1141,15.379828236107686,-6.522397021568975,-0.017758382099763766,-0.5926048682658556
1142,15.393121086787122,-6.363338310074988,-0.017394183804466834,-0.5820495722012394
1143,15.406413937466558,-6.203037822176868,-0.016974834737548104,-0.5731170157490888
1144,15.419706788145994,-6.054379703283562,-0.016553748909116525,-0.5670723977537881
1145,15.43299963882543,-5.929224278434847,-0.016182076506173433,-0.5649601856058158
1146,15.446292489504868,-5.836969234150578,-0.015901052874601675,-0.5674554504573165
1147,15.459585340184304,-5.783599421484088,-0.01573609742981418,-0.5747739906173444
1148,15.47287819086374,-5.771340405908793,-0.0156941162097842,-0.5866592958036105
1149,15.486171041543177,-5.79888795929453,-0.015764959617549795,-0.6024473252819214
1150,15.499463892222613,-5.862078677586957,-0.015926973691884,-0.6211934698304353
1151,15.512756742902049,-5.954814854884636,-0.016155251363032287,-0.641834162554835
1152,15.526049593581485,-6.070054156889087,-0.016430034611347514,-0.6633505035066751
1153,15.53934244426092,-6.200704125659152,-0.016742385838406613,-0.6849028717995322
1154,15.552635294940355,-6.340304281594279,-0.017095107912433235,-0.7059122709178671
1155,15.565928145619791,-6.483420958187878,-0.01749867487492155,-0.7260743624853946
1156,15.57922099629923,-6.625719383241805,-0.017963807208684637,-0.7453048982223002
1157,15.592513846978663,-6.763723226702432,-0.018493423529863637,-0.7636301745608524
1158,15.6058066976581,-6.894334586879631,-0.01907665779812501,-0.7810515067653226
1159,15.619099548337536,-7.014261744374738,-0.019686682561105902,-0.7974238954612188
1160,15.632392399016974,-7.119558857240027,-0.02028275926010199,-0.8123895112138595
1161,15.64568524969641,-7.205482766794718,-0.020815730141267544,-0.8253923229985914
1162,15.658978100375846,-7.2667972471872595,-0.021235374980019543,-0.8357741596869748
1163,15.672270951055282,-7.298520322951798,-0.021497833662080048,-0.8429248851518379
1164,15.685563801734718,-7.296960959126495,-0.02157164882179071,-0.8464419739581609
1165,15.698856652414154,-7.260778999085047,-0.021441706916165343,-0.8462540360986395
1166,15.71214950309359,-7.191763798570263,-0.02111107235380952,-0.8426769357842407
1167,15.725442353773028,-7.095076638754222,-0.020601078859076652,-0.8363925068023531
1168,15.738735204452464,-6.978829411817037,-0.01994999420433199,-0.8283599606283953
1169,15.7520280551319,-6.853043292726624,-0.019210314640617347,-0.8196830711572397
1170,15.765320905811336,-6.7281948654878825,-0.018444545187672228,-0.8114603992049253
1171,15.778613756490772,-6.61366233586148,-0.01771932517134004,-0.8046433464788535
1172,15.791906607170208,-6.516402296799352,-0.017097980316210494,-0.799921902417885
1173,15.805199457849644,-6.440122552929665,-0.01663200519901042,-0.7976538827309285
1174,15.81849230852908,-6.385097518715897,-0.016352558621857086,-0.7978502769161864
1175,15.831785159208517,-6.348633528745893,-0.016263646588500456,-0.8002238812149597
1176,15.845078009887953,-6.326059121324599,-0.016339022271656067,-0.8042974114090118
1177,15.858370860567389,-6.312011124404164,-0.01652467281959021,-0.8095511405126555
1178,15.871663711246825,-6.301729842339291,-0.016747877155658328,-0.8155742254205757
1179,15.88495656192626,-6.2920783992735085,-0.016932163896522957,-0.8221762483001552
1180,15.898249412605695,-6.282061849487189,-0.017015372748994912,-0.829421832554467
1181,15.911542263285131,-6.272727071598852,-0.016966184089747188,-0.8375714846105357
1182,15.924835113964573,-6.266454782489987,-0.016793934589114493,-0.846940254561092
1183,15.938127964644009,-6.265790178635751,-0.01654794406622222,-0.8577133770656685
1184,15.951420815323443,-6.272076752284576,-0.016305687965426648,-0.8697756092110003
1185,15.96471366600288,-6.284232231922,-0.016152763712892763,-0.8826119688863682
1186,15.978006516682315,-6.298012493373739,-0.016160213251529696,-0.8953204471801182
1187,15.991299367361751,-6.306041879153793,-0.016365426811847366,-0.9067469082211316
1188,16.004592218041186,-6.298762895935423,-0.016761611394585797,-0.9157188440841911
1189,16.017885068720624,-6.2663019611845545,-0.017298459334410887,-0.9213287792884165
1190,16.03117791940006,-6.201079579058818,-0.017894091918728813,-0.9232066686086928
1191,16.044470770079496,-6.100817277160058,-0.0184560668402658,-0.9217240654134575
1192,16.057763620758934,-5.971413920836204,-0.018907296347614882,-0.9180867784296505
1193,16.071056471438368,-5.829007086550931,-0.019211149995683977,-0.9142911171492158
1194,16.084349322117806,-5.700461159454458,-0.019389132915373246,-0.9129367139748348
1195,16.09764217279724,-5.621615827487065,-0.019524953443292525,-0.9169045156627293
1196,16.110935023476678,-5.632959270468498,-0.019751095941968097,-0.9289241007359823
1197,16.124227874156112,-5.772972078846864,-0.02021827892708857,-0.9510745066932211
1198,16.13752072483555,-6.07012531912938,-0.021053662343438084,-0.9842889078126684
1199,16.150813575514984,-6.535192196655466,-0.02231872238373836,-1.0279592437465328
1200,16.164106426194422,-7.155862214761697,-0.02398012129388058,-1.0797473745199497
1201,16.177399276873857,-7.8953972071003795,-0.025904778075771896,-1.1356888172277437
1202,16.190692127553294,-8.696198036358254,-0.027883396296070905,-1.1906183525487342
1203,16.20398497823273,-9.487876828468579,-0.029677032576001943,-1.238866070160261
1204,16.217277828912167,-10.19817086784243,-0.031072847461395745,-1.2750946944035946
1205,16.230570679591604,-10.764237043853573,-0.03193180083382537,-1.2951038141255713
1206,16.24386353027104,-11.141806770487587,-0.03221427343442849,-1.2964316738403496
1207,16.257156380950477,-11.31035359879014,-0.031977804300700706,-1.2786382330870978
1208,16.27044923162991,-11.273562717707712,-0.03135056476260647,-1.24323452319687
1209,16.28374208230935,-11.055601428872455,-0.03049098784280428,-1.1933063165806435
1210,16.297034932988783,-10.69461571400098,-0.02954604879143648,-1.1329425506606325
1211,16.31032778366822,-10.23530493838173,-0.028618416156196154,-1.066608326705511
1212,16.323620634347655,-9.722308721010736,-0.027748203153914835,-0.9985951497556103
1213,16.336913485027093,-9.195577855995548,-0.026910749219518682,-0.9326410870945111
1214,16.350206335706527,-8.688103433007468,-0.026029063503095806,-0.8717520137443727
1215,16.363499186385965,-8.22561026510658,-0.02499808578333469,-0.8181911801225632
1216,16.3767920370654,-7.827328665452964,-0.023716752333044593,-0.7735600258244232
1217,16.390084887744838,-7.506880717941457,-0.022122259373532373,-0.7388838312210954
1218,16.403377738424272,-7.272626145200896,-0.020219170669323723,-0.7146420705213067
1219,16.41667058910371,-7.127331147984901,-0.01809530080911171,-0.7007309304434164
1220,16.429963439783148,-7.067508647709616,-0.015917920831623078,-0.6963927913794457
1221,16.443256290462582,-7.083031635447697,-0.013908254010008851,-0.7001753901921348
1222,16.45654914114202,-7.1575658526278065,-0.012298549099410685,-0.7099820384548533
1223,16.469841991821454,-7.270064206756009,-0.011282072675314666,-0.7232455389734559
1224,16.483134842500892,-7.397167623551226,-0.010969582976302688,-0.7372145929216782
1225,16.496427693180326,-7.516038022063063,-0.01136452811392245,-0.7493003490307305
1226,16.509720543859764,-7.607025920670102,-0.012363532050194042,-0.7574083522589847
1227,16.5230133945392,-7.655668710998056,-0.013780854440633018,-0.7601849274257139
1228,16.536306245218636,-7.65375623734391,-0.015388564343813351,-0.7571332652280248
1229,16.54959909589807,-7.599471873043141,-0.016960700810886235,-0.7485912180757125
1230,16.56289194657751,-7.4968138413344825,-0.018310521905940617,-0.7355959081920915
1231,16.576184797256943,-7.354569163437563,-0.01931400565788535,-0.7196790678687991
1232,16.58947764793638,-7.1850620718299565,-0.019917907611394146,-0.7026379888007881
1233,16.602770498615815,-7.002790272399364,-0.02013480631066197,-0.6863143472522765
1234,16.616063349295253,-6.822973131374731,-0.02002953590747515,-0.6723968235601399
1235,16.629356199974687,-6.660021909389887,-0.019701293877324246,-0.6622532841747009
1236,16.642649050654125,-6.5260109995991735,-0.019264492820547915,-0.6567983979031086
1237,16.655941901333563,-6.429335325611714,-0.018830272647593228,-0.6564088681925501
1238,16.669234752012997,-6.373808864316243,-0.01849019817148837,-0.6609023884961412
1239,16.682527602692435,-6.358431963353206,-0.018303934883238525,-0.669591289274095
1240,16.69582045337187,-6.3779182892174395,-0.01829293268196815,-0.681407203625435
1241,16.709113304051307,-6.4238714628423494,-0.0184416363060046,-0.6950745566678761
1242,16.72240615473074,-6.4863197362162035,-0.01870624453675493,-0.7092966618559285
1243,16.73569900541018,-6.555234309544418,-0.01902896044184201,-0.7229157486251789
1244,16.748991856089614,-6.621709269053782,-0.019353861174204283,-0.7350196088156975
1245,16.76228470676905,-6.678641812515805,-0.01963986534091112,-0.7449883614920336
1246,16.775577557448486,-6.7209438707991955,-0.01986727479993384,-0.7524953568575893
1247,16.788870408127924,-6.745453502360744,-0.020036748487226134,-0.7574861270784496
1248,16.802163258807358,-6.750742940436196,-0.02016232504597946,-0.7601537492201612
1249,16.815456109486796,-6.73694436864729,-0.02026199285680287,-0.7609124008093949
1250,16.82874896016623,-6.705591207393485,-0.02034950275549209,-0.7603549500184509
1251,16.842041810845668,-6.659379770154409,-0.020429720035182435,-0.7591771224336089
1252,16.855334661525106,-6.601751669212837,-0.0204977145501692,-0.7580644874746162
1253,16.86862751220454,-6.536288593146161,-0.02054015559099334,-0.7575624617188211
1254,16.881920362883978,-6.466048598156797,-0.02053720216998137,-0.7579694985252242
1255,16.895213213563412,-6.393074737242715,-0.02046397653137262,-0.759296413549744
1256,16.90850606424285,-6.318302003938057,-0.020292157351974555,-0.7613161041759794
1257,16.921798914922284,-6.241959179405452,-0.01999319838493185,-0.7636948689077292
1258,16.935091765601722,-6.164357248406936,-0.01954441700106183,-0.7661636382075381
1259,16.948384616281157,-6.086769341540672,-0.018937676246717695,-0.7686692077163493
1260,16.961677466960595,-6.012030041244141,-0.018188358395087235,-0.7714500460049625
1261,16.97497031764003,-5.944557005861089,-0.017340954157416617,-0.7750070095510598
1262,16.988263168319467,-5.889697566410762,-0.016467784882678114,-0.779976304601776
1263,17.0015560189989,-5.852542741693462,-0.015659278164560128,-0.7869456490773316
1264,17.01484886967834,-5.836531205791603,-0.015007111607218607,-0.7962716864546745
1265,17.028141720357773,-5.842220135275263,-0.014584229652616607,-0.8079516560391966
1266,17.04143457103721,-5.866527660595297,-0.014427145218209493,-0.8215796513551032
1267,17.05472742171665,-5.902612578673768,-0.014525563472386255,-0.8363896562327242
1268,17.068020272396083,-5.9404321563259845,-0.014822435811524063,-0.8513670722073508
1269,17.08131312307552,-5.96795911801102,-0.015224835614124004,-0.8654045899371174
1270,17.094605973754955,-5.97303304580933,-0.01562347012117919,-0.8774843684963447
1271,17.107898824434393,-5.9458050087654115,-0.015916896971304748,-0.8868768535089043
1272,17.121191675113828,-5.881633974226417,-0.016035824944246786,-0.8933470183165815
1273,17.134484525793265,-5.784079980235304,-0.015963023929291414,-0.8973469534024971
1274,17.1477773764727,-5.6673587183316485,-0.015744932575182967,-0.9001533729194278
1275,17.161070227152138,-5.557394408051541,-0.015491779637100345,-0.9038903091924204
1276,17.174363077831572,-5.49058652841199,-0.015364072502963481,-0.9113745062277562
1277,17.18765592851101,-5.509715566368116,-0.015545126328561722,-0.9257449155961744
1278,17.200948779190444,-5.65707589748908,-0.016202312187144786,-0.9498907365708389
1279,17.214241629869882,-5.96580910613734,-0.017443686304516565,-0.9857635650034436
1280,17.227534480549316,-6.4512397165394635,-0.0192804369486332,-1.0337242224948135
1281,17.240827331228754,-7.104445853866026,-0.021607139546234236,-1.0921045641169362
1282,17.254120181908192,-7.890070238127845,-0.02420922591979888,-1.1571382759094921
1283,17.267413032587626,-8.749455599905989,-0.026799916737492824,-1.2233318610857227
1284,17.280705883267064,-9.608815785532055,-0.029079124857904634,-1.2842306866496036
1285,17.2939987339465,-10.390775479685692,-0.03079843083355101,-1.3334238204003535
1286,17.307291584625936,-11.026694819203545,-0.0318130855812429,-1.3655640278995846
1287,17.32058443530537,-11.46703342450404,-0.03210586584999932,-1.377177986491286
1288,17.33387728598481,-11.68761487873134,-0.03177709378658779,-1.3671039486270224
1289,17.347170136664243,-11.690787645532549,-0.031006383936176826,-1.3364955744450209
1290,17.36046298734368,-11.501770113217354,-0.030000239771518385,-1.2884376005685165
1291,17.373755838023115,-11.161549842007393,-0.028942367126809965,-1.2273010405430573
1292,17.387048688702553,-10.71831876306349,-0.027959968722433722,-1.1580042830943011
1293,17.400341539381987,-10.21946162156852,-0.027111490179801436,-1.0853381118173286
1294,17.413634390061425,-9.70563728585007,-0.026393081086009455,-1.0134672236874012
1295,17.42692724074086,-9.207702737591063,-0.02575596418668757,-0.9456571028608834
1296,17.440220091420297,-8.746391302485197,-0.02512654293770686,-0.8842134454894373
1297,17.453512942099735,-8.334002008452574,-0.024424366660716523,-0.8305765615956863
1298,17.46680579277917,-7.9770211062315735,-0.02357721971957629,-0.7854919816619222
1299,17.480098643458607,-7.678607272941076,-0.022534910443402573,-0.7491813032290163
1300,17.49339149413804,-7.4401726296549695,-0.02128274809246099,-0.7214606968693453
1301,17.50668434481748,-7.261767940404599,-0.019853112233089082,-0.7017909505508074
1302,17.519977195496914,-7.141479552726885,-0.018330949552437054,-0.6892801784367923
1303,17.53327004617635,-7.074409763105087,-0.016848358453757283,-0.68268426221592
1304,17.546562896855786,-7.0519294779402015,-0.015565501627789703,-0.6804515496573237
1305,17.559855747535224,-7.061741983287927,-0.01463946347426054,-0.6808383277946813
1306,17.573148598214658,-7.088957667047583,-0.014187740053158935,-0.6820905085052394
1307,17.586441448894096,-7.117991214401456,-0.014256604482538805,-0.6826584237414934
1308,17.59973429957353,-7.134797488400435,-0.01480469424345901,-0.6813959413537664
1309,17.613027150252968,-7.128855104385092,-0.015708168510334245,-0.6776962843055601
1310,17.626320000932402,-7.094408911907578,-0.016786918122996725,-0.6715331075264923
1311,17.63961285161184,-7.030740597115792,-0.0178443299734712,-0.6634005864254086
1312,17.652905702291278,-6.941544084483939,-0.01870895148100963,-0.6541722562731596
1313,17.666198552970712,-6.833721537096089,-0.01926665956332275,-0.6449168454974328
1314,17.67949140365015,-6.7160050269757585,-0.019476097064578844,-0.6367148325703273
1315,17.692784254329585,-6.597736556359577,-0.019366054941931738,-0.630511238127096
1316,17.706077105009022,-6.487963778842397,-0.01901866289606818,-0.6270225859277913
1317,17.719369955688457,-6.394826618972506,-0.018545072313547677,-0.6266965599202433
1318,17.732662806367895,-6.325105273061329,-0.018060474592177987,-0.6297093459499001
1319,17.74595565704733,-6.283805998986609,-0.0176635514547969,-0.6359825672978061
1320,17.759248507726767,-6.273750040620898,-0.017422969239883415,-0.6452082486867018
1321,17.7725413584062,-6.295236500713277,-0.01737130879745555,-0.656880332172141
1322,17.78583420908564,-6.345905705149359,-0.01750541630978851,-0.6703373402818205
1323,17.799127059765073,-6.420903580746128,-0.017791640928361566,-0.6848188206372167
1324,17.81241991044451,-6.513355021428123,-0.01817449663295481,-0.6995304688866385
1325,17.825712761123945,-6.61504675777539,-0.018587465843268005,-0.7137059315684213
1326,17.839005611803383,-6.717158707103387,-0.018964561082974896,-0.7266533180139199
1327,17.85229846248282,-6.810905109723974,-0.019250879139995604,-0.737782720409867
1328,17.865591313162255,-6.888044072292149,-0.01941017225920817,-0.7466229877845827
1329,17.878884163841693,-6.941328994449476,-0.019427970174821486,-0.7528434914196995
1330,17.892177014521128,-6.9650299458372364,-0.019310106654301617,-0.7562928645760028
1331,17.905469865200565,-6.955597429879132,-0.01907804342344127,-0.7570514666171622
1332,17.91876271588,-6.912391923155431,-0.01876323620447741,-0.7554757292622042
1333,17.932055566559438,-6.838242764831983,-0.018402409388499914,-0.7522029205842509
1334,17.945348417238872,-6.739531626961567,-0.01803426021645433,-0.7480926769288768
1335,17.95864126791831,-6.625577786972179,-0.017696732961557268,-0.744105231075753
1336,17.971934118597744,-6.507313236192086,-0.01742356254690587,-0.7411441056147022
1337,17.985226969277182,-6.395485910903255,-0.017239606063813646,-0.7399085898132537
1338,17.998519819956616,-6.298811613713132,-0.01715597476436817,-0.7407994690125055
1339,18.011812670636054,-6.222536935822413,-0.01716706071625815,-0.7439013333650294
1340,18.02510552131549,-6.167766599011384,-0.017251396667481596,-0.7490364137776262
1341,18.038398371994926,-6.131697104010958,-0.01737688507989895,-0.7558616024066408
1342,18.05169122267436,-6.108663304338083,-0.017509053973733313,-0.7639719774665831
1343,18.0649840733538,-6.091719520203857,-0.017619667365901488,-0.7729824305883752
1344,18.07827692403324,-6.074382396300201,-0.017692898253839514,-0.782576789173786
1345,18.09156977471267,-6.052158386243318,-0.017727337609988267,-0.7925296998875095
1346,18.10486262539211,-6.023540425382318,-0.017733752390836566,-0.8027120500693334
1347,18.118155476071543,-5.990263715465248,-0.017729919329608067,-0.8130857037344614
1348,18.13144832675098,-5.956749239050171,-0.017734496162994304,-0.8236850853905899
1349,18.14474117743041,-5.9288258920743795,-0.01776166892905425,-0.8345800301315379
1350,18.158034028109853,-5.911983538206815,-0.01781755904710992,-0.8458194766586286
1351,18.171326878789287,-5.909532504679218,-0.017898560848697048,-0.8573656597649965
1352,18.184619729468725,-5.921098194264126,-0.01799127788033459,-0.8690374308438799
1353,18.19791258014816,-5.941851482961707,-0.018073669941022035,-0.8804849360309189
1354,18.2112054308276,-5.96277419601684,-0.01811731588009165,-0.8912149409949417
1355,18.22449828150703,-5.972098880379171,-0.018091095311272634,-0.9006772796353791
1356,18.23779113218647,-5.9578584402486765,-0.017966816389548237,-0.9084097055509153
1357,18.251083982865904,-5.911252422436901,-0.017727144336335116,-0.914223239959024
1358,18.26437683354534,-5.830308132705429,-0.01737549624198337,-0.9183959975455575
1359,18.27766968422478,-5.723118386216415,-0.016946376280138696,-0.9218328612894798
1360,18.290962534904214,-5.609815129730398,-0.016513167210203093,-0.9261424859653222
1361,18.30425538558365,-5.522448345839802,-0.016189240243059042,-0.9335835927202352
1362,18.31754823626309,-5.502155743774074,-0.016118263214045202,-0.946843542053599
1363,18.330841086942524,-5.593483521331445,-0.01645156826338398,-0.9686391721780236
1364,18.34413393762196,-5.836423259526602,-0.017314494591106896,-1.0011740845851318
1365,18.3574267883014,-6.257509320443931,-0.018768719784770346,-1.045539460665084
1366,18.37071963898083,-6.861912740352588,-0.02078165491574165,-1.1011890755283082
1367,18.384012489660268,-7.628599879260051,-0.023214651428988233,-1.1656330941826207
1368,18.397305340339702,-8.510147179280256,-0.025837670186891103,-1.234466835949908
1369,18.41059819101914,-9.437782164226284,-0.028369889288769195,-1.3017819951584833
1370,18.42389104169857,-10.33093396903395,-0.03053641407036628,-1.3609162652167088
1371,18.43718389237801,-11.109417059874895,-0.03212479065030444,-1.4054101554947194
1372,18.450476743057447,-11.705695865620624,-0.03302444782887792,-1.4299838870864894
1373,18.463769593736885,-12.074677513104971,-0.03323798183201829,-1.4313388680981154
1374,18.477062444416323,-12.199129797522044,-0.032863041626596805,-1.4086279572843434
1375,18.49035529509576,-12.08991123299935,-0.03205346710293015,-1.3635135163024397
1376,18.503648145775195,-11.78141447643965,-0.030974346845248548,-1.2998216711082546
1377,18.51694099645463,-11.3236397313454,-0.02976559929173228,-1.2228833188238764
1378,18.530233847134067,-10.772887136121673,-0.02852303688942157,-1.1387086553413364
1379,18.5435266978135,-10.183088223918686,-0.027297620859668588,-1.0531615259115792
1380,18.55681954849294,-9.599350302130953,-0.02610673543574506,-0.9712820848027373
1381,18.570112399172373,-9.054546466100508,-0.024948724104702683,-0.8968590595729717
1382,18.58340524985181,-8.568969015281867,-0.023814027380231795,-0.832288616456867
1383,18.59669810053125,-8.152368232933144,-0.02269096338763285,-0.7786891179778569
1384,18.609990951210683,-7.807258879572547,-0.02156842344994349,-0.7361849308903785
1385,18.62328380189012,-7.532269062592183,-0.0204392732477174,-0.7042430420635692
1386,18.63657665256956,-7.3245345139806695,-0.019306694095335454,-0.681953633580172
1387,18.64986950324899,-7.18062493855045,-0.01819241761936815,-0.6681880588722912
1388,18.663162353928428,-7.0960720564430755,-0.017142871452489983,-0.6616289897429734
1389,18.676455204607866,-7.064066635682616,-0.016228365788015457,-0.6607240630050284
1390,18.6897480552873,-7.074155000646325,-0.015532252521941698,-0.6636449042506307
1391,18.703040905966738,-7.111728843063247,-0.01513088022112589,-0.668327889545111
1392,18.71633375664617,-7.1587975699986925,-0.015069555292134062,-0.6726355490112286
1393,18.72962660732561,-7.196070492608003,-0.01534261296574382,-0.6746238542122702
1394,18.742919458005044,-7.205908611050344,-0.015885553311201926,-0.6728516677746605
1395,18.75621230868448,-7.175380815621224,-0.016583685299205227,-0.6666424814267506
1396,18.76950515936392,-7.098579266991033,-0.01729605104205992,-0.6562142083204947
1397,18.782798010043354,-6.977538932837038,-0.01788785158906689,-0.6426278538258149
1398,18.79609086072279,-6.821505560774964,-0.01826146281774684,-0.6275585145551726
1399,18.809383711402223,-6.64477444679112,-0.01837663701434897,-0.6129451651705194
1400,18.82267656208166,-6.463721919022366,-0.018254273783455413,-0.6006116133661514
1401,18.8359694127611,-6.293842234602184,-0.017963607201426805,-0.5919574727106232
1402,18.849262263440533,-6.1475274664250295,-0.017597794523483437,-0.5877923727517861
1403,18.86255511411997,-6.033022829965953,-0.01724609513650268,-0.5883376316467733
1404,18.87584796479941,-5.954569261012488,-0.01697126367669001,-0.5933646360180023
1405,18.889140815478843,-5.913359585084272,-0.016798472918615973,-0.6023978243442694
1406,18.90243366615828,-5.90871760276395,-0.016717869052175403,-0.6148969493316379
1407,18.915726516837715,-5.938930778796227,-0.016698201765740148,-0.6303522271743304
1408,18.929019367517157,-6.001409121462197,-0.016705482584288254,-0.648269153600881
1409,18.942312218196587,-6.092204492551728,-0.01671946800413334,-0.6680701503244426
1410,18.955605068876025,-6.205257876400091,-0.016742188020866088,-0.6889779706419631
1411,18.96889791955546,-6.331909240364473,-0.016796058172275332,-0.7099560176322627
1412,18.982190770234897,-6.461135489224357,-0.016913064105200545,-0.729759379568176
1413,18.99548362091433,-6.580704001943373,-0.0171197306909466,-0.7471058173088035
1414,19.00877647159377,-6.6790539456100895,-0.01742399375712022,-0.7609253175448885
1415,19.022069322273204,-6.747393668640194,-0.0178091625543954,-0.77060943917492
1416,19.03536217295264,-6.781358471173095,-0.01823720251465558,-0.776172084303696
1417,19.04865502363208,-6.7816713162443,-0.01865974802025031,-0.7782565714794061
1418,19.061947874311517,-6.753562569065618,-0.019032191372706033,-0.7779736018748905
1419,19.07524072499095,-6.705122529772343,-0.019325199265451298,-0.7766142470070531
1420,19.088533575670382,-6.6451242353373505,-0.01952943126581911,-0.7753292248643132
1421,19.101826426349824,-6.5810202291075015,-0.01965232800111445,-0.7748806733664432
1422,19.115119277029255,-6.517719063651206,-0.019709192034096275,-0.7755469280474415
1423,19.128412127708696,-6.457426928673083,-0.019713013614853274,-0.7772027733625368
1424,19.14170497838813,-6.400429768251651,-0.019667761595440925,-0.7795303537780299
1425,19.154997829067568,-6.346357507425962,-0.019568123420174877,-0.782267618051473
1426,19.168290679747003,-6.295343519925654,-0.019405677052504764,-0.7853921608984514
1427,19.18158353042644,-6.248609685439571,-0.019178491823487274,-0.7891715020803493
1428,19.194876381105875,-6.2083083113255295,-0.018899497018412967,-0.7940705580966098
1429,19.208169231785316,-6.176799828087292,-0.018599359624411182,-0.8005667718755787
1430,19.221462082464747,-6.1557860173086425,-0.01832187808623253,-0.8089577671384321
1431,19.234754933144185,-6.14574965303193,-0.018113037552309804,-0.8192423960190579
1432,19.24804778382362,-6.145966463074898,-0.018007588881047826,-0.8311179776546876
1433,19.261340634503057,-6.155046117868281,-0.01801821927882187,-0.8440833315562526
1434,19.27463348518249,-6.171671378487008,-0.018131554299076084,-0.857592922645633
1435,19.28792633586193,-6.19507193723503,-0.018312613516403845,-0.8711898873535248
1436,19.301219186541367,-6.224857752259756,-0.018515939356351627,-0.8845597092202195
1437,19.3145120372208,-6.260122242806207,-0.01869887023738678,-0.8974841025475357
1438,19.32780488790024,-6.298106989251047,-0.018831609383935233,-0.9097212723510136
1439,19.341097738579677,-6.33305067686088,-0.018900351309681034,-0.9208775959402944
1440,19.35439058925911,-6.3559813850529485,-0.01890320426221129,-0.9303525072037198
1441,19.367683439938546,-6.356059142235223,-0.01884250292568823,-0.9374237139750166
1442,19.380976290617983,-6.323632674709778,-0.018719464228033084,-0.9414935195934551
