,time,Red,Green,Blue
0,0.0,-2.965381497203267,-0.13475436238957197,-0.3017809969263734
1,0.0132931154165136,-2.70713118287111,-0.1303612651617972,-0.3268528351393789
2,0.0265862308330272,-2.4424844387953377,-0.12656787630396021,-0.3503278383637759
3,0.0398793462495408,-2.167064403043417,-0.12391563963858912,-0.37092664193142394
4,0.0531724616660544,-1.8806932576001152,-0.12279909060355607,-0.387906180281741
5,0.0664655770825681,-1.588164777548627,-0.12342158700623251,-0.4011488965236535
6,0.0797586924990817,-1.2987692557934867,-0.1257791030271834,-0.4110983091871767
7,0.0930518079155953,-1.02478231015533,-0.12967400863479447,-0.4185821099707136
8,0.1063449233321089,-0.7793861438710675,-0.13475590754715372,-0.4245921148055935
9,0.1196380387486226,-0.5745802686629806,-0.1405817525579868,-0.43008904423504707
10,0.1329311541651362,-0.4195491384264643,-0.14668386165879277,-0.4358737535773855
11,0.1462242695816498,-0.31974249006057043,-0.15263342646616776,-0.4425296012627795
12,0.1595173849981634,-0.27668330302571775,-0.15808907398731226,-0.4504106623412543
13,0.1728105004146771,-0.2883355452323552,-0.162824162504662,-0.4596403205598266
14,0.1861036158311907,-0.3497873319222642,-0.16673121784350275,-0.47009710152799206
15,0.1993967312477043,-0.4540328320419659,-0.1698060420695918,-0.481390813347079
16,0.2126898466642179,-0.5927272450096116,-0.17211711433893365,-0.4928560574728162
17,0.2259829620807316,-0.7568860479847316,-0.17376787065970636,-0.5035965275779942
18,0.2392760774972452,-0.9375538683480359,-0.17486006858780437,-0.5125964821161471
19,0.2525691929137588,-1.1264605061478845,-0.17546543032523237,-0.5188837015720998
20,0.2658623083302724,-1.316629154044324,-0.17561025163305652,-0.5216992399824911
21,0.2791554237467861,-1.5028467940453007,-0.17527442085440106,-0.5206201744875925
22,0.2924485391632997,-1.6818903324354404,-0.1744033161138978,-0.5155976517976775
23,0.3057416545798133,-1.8524413002549942,-0.17292900218838475,-0.506905253741583
24,0.3190347699963269,-2.014702340132672,-0.1707960693391128,-0.49502579784172157
25,0.3323278854128406,-2.169814510135302,-0.1679869867090766,-0.4805236279782441
26,0.3456210008293542,-2.3192283553751722,-0.16454174373600028,-0.46394794083868984
27,0.3589141162458678,-2.4641824896882794,-0.16056703877467485,-0.4457937437685134
28,0.3722072316623814,-2.6053940491165464,-0.15623183545447278,-0.4265199243822804
29,0.3855003470788951,-2.7429890408004627,-0.1517489344007505,-0.40659970316755994
30,0.3987934624954087,-2.8766278718228753,-0.14734572594806145,-0.3865663842937032
31,0.4120865779119223,-3.0057358518063997,-0.1432302803431519,-0.3670210510784841
32,0.4253796933284359,-3.129739084145532,-0.13956021819553804,-0.3485869189112844
33,0.4386728087449495,-3.2482278507381133,-0.1364209534315834,-0.33181991012141066
34,0.4519659241614632,-3.361009417589252,-0.13381739405767185,-0.31710576530481926
35,0.4652590395779768,-3.46805545807302,-0.1316800010373799,-0.30458133759945194
36,0.4785521549944904,-3.5693837488375664,-0.12988317743455352,-0.2941089437367049
37,0.491845270411004,-3.664932279527247,-0.12827192524600045,-0.2853131447968981
38,0.5051383858275177,-3.754484192645951,-0.12669179107857953,-0.27766870073962935
39,0.5184315012440314,-3.8376825957287553,-0.1250169539005855,-0.2706142561013558
40,0.5317246166605449,-3.9141358986425243,-0.12317139935405824,-0.26366112304285744
41,0.5450177320770586,-3.983570100051502,-0.12113891477549137,-0.2564699118190361
42,0.5583108474935722,-4.045958465799973,-0.11896000807229691,-0.2488783514027589
43,0.5716039629100859,-4.101566450932333,-0.11671740540251584,-0.24087844295254163
44,0.5848970783265994,-4.150886150369748,-0.11451488096829088,-0.23255563274589025
45,0.5981901937431131,-4.194483159638849,-0.1124554792182001,-0.22401305432321209
46,0.6114833091596267,-4.2328187624926095,-0.11062437879455968,-0.21530772496688086
47,0.6247764245761404,-4.266124298462122,-0.1090792545281811,-0.20642180473550845
48,0.6380695399926539,-4.294385820670219,-0.10784811703877095,-0.19728066246429593
49,0.6513626554091676,-4.317453563393686,-0.1069324192447252,-0.18781244865830288
50,0.6646557708256812,-4.335240643867911,-0.10631241535325339,-0.17802598299937833
51,0.6779488862421948,-4.347939319582453,-0.10595233069127365,-0.16807227845174966
52,0.6912420016587084,-4.356175400109662,-0.10580428516854058,-0.15825658352491706
53,0.7045351170752221,-4.361044911603327,-0.10581134581775625,-0.14898439409739994
54,0.7178282324917357,-4.364021433845168,-0.10591092081233439,-0.14065149217367867
55,0.7311213479082493,-4.366767300247941,-0.10603961576379614,-0.1335141258492277
56,0.7444144633247629,-4.370905656344935,-0.10613972212259946,-0.12758932995691405
57,0.7577075787412766,-4.3778022807096,-0.10616616034235213,-0.12262998983975384
58,0.7710006941577902,-4.38837273224992,-0.1060916567144146,-0.11819548056673666
59,0.7842938095743038,-4.402893133314907,-0.1059078216722736,-0.11380508608181271
60,0.7975869249908174,-4.420776098551563,-0.10562085833480823,-0.109130260244411
61,0.8108800404073311,-4.440291173476256,-0.10524257950510188,-0.10416446970178356
62,0.8241731558238446,-4.458258263600004,-0.10477956809753204,-0.09931241049028268
63,0.8374662712403583,-4.4698031330295285,-0.10422485845374517,-0.095363653113966
64,0.8507593866568719,-4.468307969556062,-0.1035567136225617,-0.09335221509204596
65,0.8640525020733856,-4.4456917573355135,-0.10274749253200056,-0.09434103101642007
66,0.8773456174898991,-4.393102384549276,-0.10178235824503504,-0.0991952751427317
67,0.8906387329064128,-4.30200246085648,-0.10068354920212873,-0.1084110906175391
68,0.9039318483229264,-4.165511070754697,-0.09953263323433538,-0.12204455096628722
69,0.91722496373944,-3.9797633808328174,-0.09848214816881534,-0.13974750636908623
70,0.9305180791559536,-3.7450056923807136,-0.097750089140959,-0.1608780560752215
71,0.9438111945724672,-3.4661737307467693,-0.09759532847359052,-0.18463088947113812
72,0.9571043099889808,-3.152799343393638,-0.0982776353058064,-0.21013654107555987
73,0.9703974254054946,-2.818226614941324,-0.10001057006544353,-0.2365055061215102
74,0.983690540822008,-2.4782564030717897,-0.10291781047080353,-0.2628285163173125
75,0.9969836562385218,-2.149447839034302,-0.10700304545221317,-0.28817025318272826
76,1.0102767716550354,-1.8473662325996534,-0.11214080696823156,-0.31159842441938684
77,1.023569887071549,-1.5850672788943607,-0.1180911119886698,-0.33227198443818695
78,1.0368630024880627,-1.3720440960055866,-0.12453529942602173,-0.3495796916627334
79,1.0501561179045762,-1.2137478948576212,-0.13112510287706264,-0.3632873495702069
80,1.06344923332109,-1.1116569018858435,-0.1375334154951404,-0.37363363734216165
81,1.0767423487376035,-1.0637568131847908,-0.14349487807943015,-0.38132005084528897
82,1.0900354641541172,-1.06524712730823,-0.14882775150346564,-0.3873708243449478
83,1.103328579570631,-1.1093096705095458,-0.15343435307974373,-0.39288465498916714
84,1.1166216949871444,-1.1878432810680597,-0.1572834932391802,-0.3987451291975126
85,1.129914810403658,-1.2921392154026459,-0.16038283966964043,-0.40538211274829056
86,1.1432079258201715,-1.4135100865060015,-0.16275088247115174,-0.4126678982598632
87,1.1565010412366852,-1.543880510378496,-0.16439709273901448,-0.4199881111332313
88,1.1697941566531989,-1.6763153935582946,-0.16531555505740367,-0.426463542950593
89,1.1830872720697123,-1.8054302138487166,-0.16549280840805095,-0.43124235203099776
90,1.1963803874862262,-1.927620418791019,-0.1649260777470772,-0.43375797292744045
91,1.2096735029027397,-2.0410711134854886,-0.16364478073451946,-0.43386678763268016
92,1.2229666183192534,-2.145552739109258,-0.161727143537986,-0.43183112644207394
93,1.236259733735767,-2.2420536545899106,-0.15930533706791686,-0.4281735801142908
94,1.2495528491522807,-2.3323288972843836,-0.15655627554724377,-0.4234724285491488
95,1.2628459645687942,-2.418448020693333,-0.1536798174446477,-0.41817955585977523
96,1.2761390799853078,-2.5024069501168236,-0.15086992989182962,-0.41252133308183425
97,1.2894321954018215,-2.5858401966609312,-0.14828613318736747,-0.4065029052724758
98,1.3027253108183352,-2.6698431943042205,-0.14603186955834316,-0.39999581547868657
99,1.3160184262348489,-2.754898021251404,-0.14414396274979555,-0.39286275624663125
100,1.3293115416513623,-2.840889486729974,-0.14259421251134488,-0.3850673513810525
101,1.342604657067876,-2.9271968422808614,-0.1413014930668902,-0.3767289822523432
102,1.3558977724843897,-3.0128434812916955,-0.14015111067266484,-0.3681061375571339
103,1.3691908879009032,-3.096681628454393,-0.1390176573484887,-0.35951853220158114
104,1.3824840033174168,-3.1775840523536893,-0.13778778996644067,-0.3512401247409433
105,1.3957771187339305,-3.254613591389121,-0.13637978436774928,-0.34340504663181
106,1.4090702341504442,-3.3271449395231683,-0.13475713550739124,-0.3359626538258541
107,1.4223633495669576,-3.394921291237533,-0.13293407168260082,-0.328698523658679
108,1.435656464983471,-3.4580405479982175,-0.13097198689801054,-0.3213131168736539
109,1.448949580399985,-3.5168804694999873,-0.12896756679289073,-0.31352929672801677
110,1.462242695816499,-3.5719854781752214,-0.1270353107283338,-0.30519168524807344
111,1.475535811233012,-3.6239441636103606,-0.12528835825404996,-0.29632666292007187
112,1.4888289266495258,-3.6732826692007294,-0.1238213528555948,-0.28714747239082977
113,1.5021220420660395,-3.7203876045386095,-0.12269765040468347,-0.27800728107062755
114,1.5154151574825532,-3.7654598347930097,-0.1219414263209035,-0.2693178349394986
115,1.5287082728990666,-3.808493802452484,-0.12153422757468253,-0.26145892639264173
116,1.5420013883155803,-3.8492777330531576,-0.1214156897922331,-0.25470351701904853
117,1.555294503732094,-3.887415262190671,-0.12148898469470522,-0.24917596040071757
118,1.5685876191486077,-3.922373660919652,-0.12163201214415739,-0.24484849844746145
119,1.5818807345651211,-3.9535635095294173,-0.12171456351131925,-0.24156768286042957
120,1.5951738499816348,-3.9804474450916203,-0.12161966043811351,-0.23909258439576175
121,1.6084669653981485,-4.002663202271667,-0.1212649206062924,-0.23712511424931965
122,1.6217600808146622,-4.020134027882944,-0.12061843266367754,-0.235320848809385
123,1.6350531962311756,-4.033134925386495,-0.11970422184670676,-0.2332832408289609
124,1.6483463116476893,-4.042291175255763,-0.11859505204065174,-0.23055838021643538
125,1.661639427064203,-4.048505146074184,-0.11739413931897832,-0.22665420132490943
126,1.6749325424807169,-4.052830377185511,-0.11621085276621126,-0.22110230174014686
127,1.68822565789723,-4.056326521036562,-0.11513726633269437,-0.21356244432620505
128,1.7015187733137438,-4.059926239521046,-0.11423185212483712,-0.2039456674206023
129,1.7148118887302577,-4.064325444613436,-0.11351397912766846,-0.19251272775699926
130,1.7281050041467712,-4.069881036588298,-0.11296923386746333,-0.1799014654844574
131,1.7413981195632846,-4.076480949402807,-0.11256220890433773,-0.16705493425657264
132,1.7546912349797985,-4.083353830204882,-0.1122514430119341,-0.1550572526781418
133,1.767984350396312,-4.088815407414101,-0.11200128086044592,-0.14492226528145624
134,1.7812774658128256,-4.089998186453249,-0.11178746665947456,-0.1374037946950483
135,1.794570581229339,-4.08266152062848,-0.11159645067262668,-0.1328929229123182
136,1.8078636966458528,-4.061206056959018,-0.11142132937797639,-0.13143644347455305
137,1.8211568120623665,-4.019000465927722,-0.11125876548566631,-0.13286344249937715
138,1.83444992747888,-3.9490640299924005,-0.11111048122444726,-0.13696383713819557
139,1.8477430428953936,-3.8450504071059104,-0.11099029567175307,-0.14364238959019737
140,1.8610361583119075,-3.7023768815705314,-0.11093437141844703,-0.15298309089612178
141,1.874329273728421,-3.5192767708655053,-0.11100989610249445,-0.16519676755071563
142,1.8876223891449344,-3.2975476916672766,-0.11131702593950982,-0.1804730167970917
143,1.900915504561448,-3.0428292994045325,-0.11198077664565445,-0.19879663543821374
144,1.9142086199779615,-2.764348804913872,-0.11313282916208783,-0.21980425859602437
145,1.9275017353944757,-2.474182876317587,-0.1148865360189306,-0.24274425866904553
146,1.940794850810989,-2.1861650167767164,-0.11731058325933309,-0.266566786449907
147,1.9540879662275024,-1.9146018586524687,-0.12040729989702513,-0.29012293304323705
148,1.9673810816440165,-1.672957112938994,-0.12410070057264555,-0.31240851585814006
149,1.98067419706053,-1.472639130048045,-0.1282374771183972,-0.3327658527210028
150,1.993967312477044,-1.3220060880370323,-0.13260176350732358,-0.3509677352143508
151,2.007260427893557,-1.2256870111541762,-0.13694191852708265,-0.3671511574874452
152,2.0205535433100708,-1.1842984170155404,-0.141005118307286,-0.3816284763438395
153,2.0338466587265844,-1.1946023667521466,-0.14457362411030203,-0.39465453296580705
154,2.047139774143098,-1.2500966049108078,-0.1474956744569065,-0.40624586576736244
155,2.060432889559612,-1.341959099238304,-0.14970449064551658,-0.41612375882801156
156,2.073726004976125,-1.4602052358586721,-0.1512210454365104,-0.4237984110039011
157,2.0870191203926387,-1.5948752760558205,-0.1521396978119183,-0.428753043836102
158,2.1003122358091524,-1.7370655700532451,-0.15259973419689146,-0.4306503240566317
159,2.113605351225666,-1.8796528026056922,-0.1527492509553949,-0.4294821880458272
160,2.12689846664218,-2.0176289028683794,-0.15270975303991485,-0.4256137792496039
161,2.1401915820586934,-2.148048672478489,-0.15254978204939562,-0.41971598141794253
162,2.153484697475207,-2.26967120223985,-0.15227377065069667,-0.41261949471771797
163,2.166777812891721,-2.3824297374278167,-0.15182861399294256,-0.40514335326435186
164,2.1800709283082345,-2.486880269924646,-0.15112602984490178,-0.3979492443483345
165,2.193364043724748,-2.5837551535948795,-0.15007472399822142,-0.3914555491673523
166,2.2066571591412614,-2.6736941960049436,-0.14861372744061668,-0.38582101763155274
167,2.219950274557775,-2.757160611980636,-0.14673783017794462,-0.38098611288428297
168,2.2332433899742887,-2.8344945868140736,-0.14450814394549388,-0.37674632201833697
169,2.2465365053908024,-2.9060292729155015,-0.14204509437267435,-0.3728289758158698
170,2.259829620807316,-2.972196969870094,-0.13950632308222757,-0.3689526822626627
171,2.2731227362238298,-3.0335785930639867,-0.1370562506390648,-0.36486204146916346
172,2.2864158516403434,-3.0908826986297635,-0.13483580285489907,-0.3603432821918895
173,2.2997089670568567,-3.1448685488459307,-0.13293952320022906,-0.35523296681069966
174,2.3130020824733704,-3.1962441915760142,-0.13140390078464198,-0.34942970576014915
175,2.326295197889884,-3.2455737035117296,-0.13020702528735878,-0.3429102543594806
176,2.3395883133063977,-3.293219127798503,-0.12927720060963138,-0.33574196258434286
177,2.3528814287229114,-3.3393263815590055,-0.12850740611722922,-0.3280790920596983
178,2.366174544139425,-3.3838474128505682,-0.12777289528942173,-0.320134036827256
179,2.3794676595559388,-3.4265806888494517,-0.1269497638450225,-0.3121247014069079
180,2.3927607749724524,-3.4672127068250793,-0.1259323876580284,-0.304211374453959
181,2.4060538903889657,-3.5053523760552014,-0.12464735086219729,-0.2964445890183636
182,2.41934700580548,-3.540560869707007,-0.1230614889532516,-0.28874555962334403
183,2.432640121221993,-3.5723850113037883,-0.12118253938573605,-0.280931824027125
184,2.4459332366385067,-3.600399749996475,-0.1190526639062337,-0.2727850933556419
185,2.4592263520550204,-3.6242571292129115,-0.11673716339527043,-0.2641414598191653
186,2.472519467471534,-3.6437306830830245,-0.11431208297573686,-0.2549730610347941
187,2.485812582888048,-3.658740723647601,-0.11185437640509738,-0.245430755546379
188,2.4991056983045614,-3.669350388682073,-0.10943684978584213,-0.2358304115915921
189,2.5123988137210747,-3.6757337550912714,-0.10712794583841469,-0.22658624093030605
190,2.5256919291375883,-3.678131384975024,-0.10499455467378319,-0.21811444580791875
191,2.538985044554102,-3.6768191131633245,-0.10310519123231295,-0.21074066129462338
192,2.552278159970616,-3.672117161863674,-0.10153128555333413,-0.20464090555492603
193,2.5655712753871294,-3.664456042339703,-0.10034568788098913,-0.19983004804270035
194,2.578864390803643,-3.654494117475792,-0.09961909825168576,-0.1961916671076529
195,2.5921575062201567,-3.6432539088690343,-0.09941612075471903,-0.1935277510802985
196,2.6054506216366704,-3.6322189318357507,-0.099792366214963,-0.19160225699024733
197,2.618743737053184,-3.623321864206971,-0.10079251112286658,-0.1901598199681955
198,2.6320368524696973,-3.618769252943196,-0.102447358558703,-0.18891579126392222
199,2.645329967886211,-3.620690859462254,-0.10476712010940302,-0.18753012486780946
200,2.6586230833027247,-3.6306623246172793,-0.10772937201652875,-0.1855897920370607
201,2.6719161987192384,-3.6492046773505713,-0.11126331073430497,-0.18262811478944413
202,2.685209314135752,-3.675387967260871,-0.11523560649357177,-0.1782018320334879
203,2.6985024295522657,-3.706646190225757,-0.11944525267788116,-0.17202741136658206
204,2.7117955449687794,-3.738854984389586,-0.12363378513389793,-0.16415103561103175
205,2.7250886603852926,-3.766657478166084,-0.12751303350791093,-0.15510091641021
206,2.7383817758018063,-3.783974485796555,-0.1308067224128913,-0.14595797198892843
207,2.75167489121832,-3.7846169090526938,-0.13329715551403137,-0.1382909978148934
208,2.7649680066348337,-3.762925400977284,-0.13486588477551864,-0.1339372302808863
209,2.778261122051348,-3.7143775934581087,-0.13551836776849638,-0.13466024035991492
210,2.791554237467861,-3.6361110479968315,-0.13538643363568698,-0.1417668963199013
211,2.8048473528843747,-3.527308210165122,-0.1347074775716973,-0.155792885895551
212,2.8181404683008884,-3.3893892782253565,-0.13378432385996014,-0.17635666508270378
213,2.8314335837174016,-3.2259750884038456,-0.1329337046204967,-0.20223324185544936
214,2.8447266991339157,-3.0426206930452464,-0.13243366927168407,-0.23162766053973952
215,2.858019814550429,-2.8463705688473953,-0.1324804737681082,-0.26256142172191566
216,2.8713129299669427,-2.645225074965543,-0.13316333892555945,-0.29325112594340574
217,2.8846060453834563,-2.447612668022462,-0.13446119897380399,-0.322370981193645
218,2.89789916079997,-2.2619274703446193,-0.13626020065851144,-0.3491418587986573
219,2.911192276216484,-2.0961338691469993,-0.13838581190836416,-0.37325502814026523
220,2.9244853916329974,-1.9573909392635025,-0.140640484386986,-0.3946908101401979
221,2.9377785070495106,-1.8516388163543844,-0.142837720088331,-0.4135135458985897
222,2.9510716224660243,-1.7831255480077794,-0.14482587321029783,-0.42971327922975017
223,2.964364737882538,-1.7539194014594603,-0.14649891913893406,-0.4431334968061063
224,2.977657853299052,-1.7635148693059999,-0.14779529726670299,-0.45348952097933054
225,2.9909509687155653,-1.8086689470481607,-0.1486886852401338,-0.4604556073014396
226,3.004244084132079,-1.8835819057525194,-0.14917571179409758,-0.46378447231354836
227,3.0175371995485927,-1.9804683702279418,-0.14926521358845374,-0.46341947734999445
228,3.0308303149651064,-2.0904703840669274,-0.14897206144135466,-0.45956472184934594
229,3.04412343038162,-2.204772010476688,-0.14831639011658876,-0.45269062673639326
230,3.0574165457981333,-2.315711915159755,-0.14732694004617355,-0.443470708567627
231,3.070709661214647,-2.417676003072481,-0.14604579951094254,-0.4326655014186734
232,3.0840027766311606,-2.5075937362549823,-0.14453152133365132,-0.4209863134362439
233,3.0972958920476743,-2.5849510544326137,-0.1428583894035264,-0.40897905127187373
234,3.110589007464188,-2.651346929612751,-0.1411111535112236,-0.3969633716696401
235,3.1238821228807017,-2.70972716164035,-0.13937623060379686,-0.3850454728262928
236,3.137175238297216,-2.763496231650567,-0.13773157954092577,-0.3731987093212803
237,3.150468353713729,-2.815716472901402,-0.13623781554961795,-0.3613827785529236
238,3.1637614691302423,-2.8685547668212164,-0.13493263148905776,-0.3496578684685076
239,3.177054584546756,-2.92305156124255,-0.13382956477760913,-0.3382506295400042
240,3.1903476999632696,-2.9791961331836143,-0.1329210407582943,-0.327544846933498
241,3.2036408153797837,-3.036222941894155,-0.13218474707467012,-0.317996290858401
242,3.216933930796297,-3.093011068895646,-0.13159181998067696,-0.30999931505966216
243,3.23022704621281,-3.148472075149329,-0.13111498910820896,-0.303752169799695
244,3.2435201616293243,-3.2018407604810064,-0.13073471272196238,-0.2991709076090692
245,3.2568132770458376,-3.2528238673857293,-0.13044153827088062,-0.2958856913562442
246,3.2701063924623512,-3.3016008465834563,-0.13023358402592292,-0.293322769428296
247,3.283399507878865,-3.3487005859518013,-0.1301092063578481,-0.29084165257525657
248,3.2966926232953786,-3.394796523080875,-0.13005644076044964,-0.28787488069364614
249,3.3099857387118923,-3.4404716547389618,-0.13004228274683713,-0.28401882512506244
250,3.323278854128406,-3.486006857329552,-0.13000572692769316,-0.27904946771248457
251,3.33657196954492,-3.531240895142994,-0.12985816537005576,-0.27287515262525686
252,3.3498650849614333,-3.5755371845105812,-0.12949305872053538,-0.26546915148755235
253,3.3631582003779465,-3.617870419510334,-0.12880409086243497,-0.2568318893798123
254,3.37645131579446,-3.6570184231468295,-0.12770815456116344,-0.24701217613528806
255,3.389744431210974,-3.691817375753181,-0.12616750375908314,-0.2361800713046363
256,3.403037546627488,-3.7214197217439264,-0.1242049850327092,-0.2247105545279482
257,3.4163306620440013,-3.745490208686626,-0.12190762107208866,-0.21322386439170146
258,3.429623777460515,-3.7642896496990823,-0.11941661521894767,-0.2025413152838959
259,3.4429168928770286,-3.778625704147411,-0.11690534406224251,-0.19354810914604414
260,3.4562100082935423,-3.7896871061798842,-0.11455015691314571,-0.1869923269194112
261,3.4695031237100555,-3.7988104627984205,-0.11250084078406554,-0.18327620378863257
262,3.482796239126569,-3.807245574172253,-0.11085774493610674,-0.18230214085186536
263,3.496089354543083,-3.8159798678799177,-0.10966068460248941,-0.18342110456510408
264,3.509382469959597,-3.8256564660085854,-0.10889144499890514,-0.1855026759451965
265,3.5226755853761103,-3.8365825021364186,-0.1084880202744866,-0.18711528435333016
266,3.535968700792624,-3.848787752429988,-0.10836570500426526,-0.18678175076113476
267,3.5492618162091376,-3.8620714588392073,-0.10843858112458087,-0.18326358836028056
268,3.5625549316256517,-3.875975955740967,-0.10863523096006669,-0.17582615455020525
269,3.5758480470421645,-3.8896506831528006,-0.1089047061444534,-0.16444105683166116
270,3.589141162458678,-3.90161313146143,-0.10921242322210403,-0.1498885302856788
271,3.602434277875192,-3.909462367306162,-0.10952962104016765,-0.13373124979248685
272,3.6157273932917056,-3.909641711178234,-0.10982276061366907,-0.11814610476582062
273,3.6290205087082192,-3.8973661813751863,-0.11004947248044727,-0.10562499174519742
274,3.642313624124733,-3.866817400848457,-0.11016503057287352,-0.0985872857038432
275,3.655606739541247,-3.8116607148663912,-0.11013879377162734,-0.09897589862250734
276,3.66889985495776,-3.725863671903702,-0.10997544934471033,-0.10792278383038405
277,3.6821929703742735,-3.6047105665110357,-0.10973314280699034,-0.12555893320473557
278,3.695486085790787,-3.445840067858694,-0.10953084097656594,-0.15100865784457415
279,3.708779201207301,-3.2501045367951438,-0.1095404337499224,-0.1825598684994959
280,3.722072316623815,-3.0220693466394333,-0.1099638205621213,-0.2179592563185027
281,3.735365432040328,-2.7700299163794004,-0.1109996567863183,-0.25475919735070346
282,3.748658547456842,-2.5055036891592146,-0.11280699661728247,-0.29064679999902543
283,3.761951662873356,-2.242235233592662,-0.1154732805054083,-0.32370739468698917
284,3.775244778289869,-1.994825586888538,-0.11899264450962141,-0.35260070137367494
285,3.7885378937063834,-1.7771600148750402,-0.12325848462908656,-0.37664576253804
286,3.801831009122896,-1.6008573892928755,-0.12807218466328713,-0.395816977471854
287,3.81512412453941,-1.4739854153763883,-0.13316764992659447,-0.41065375389769854
288,3.828417239955924,-1.4002597538008177,-0.13824830667780147,-0.4220898156051525
289,3.841710355372437,-1.3788628969430157,-0.14302984947578876,-0.4312211608327016
290,3.855003470788951,-1.4048957521861147,-0.14727965789806993,-0.4390518396281566
291,3.868296586205465,-1.4703479297263806,-0.15084407798723595,-0.4462737695665646
292,3.881589701621978,-1.5653808573102177,-0.153658124231618,-0.45313807112018417
293,3.894882817038492,-1.6796826302243912,-0.15573729348524304,-0.4594542758928627
294,3.908175932455005,-1.8036732269264288,-0.15715580632999795,-0.4647152194298858
295,3.921469047871519,-1.9293973501263877,-0.15801796326412787,-0.4683045299621894
296,3.934762163288033,-2.0510211368348292,-0.15842921434533005,-0.46971770929317547
297,3.948055278704546,-2.1649319957707176,-0.15847207116477444,-0.4687274306032224
298,3.96134839412106,-2.269512634003645,-0.15819041685665972,-0.4654476345828232
299,3.9746415095375736,-2.364706671886401,-0.1575845919647982,-0.46028777222210693
300,3.9879346249540872,-2.451505065766378,-0.1566184115876935,-0.45382285397245237
301,4.0012277403706005,-2.5314612822258575,-0.1552372891356146,-0.4466254576732622
302,4.014520855787114,-2.606301580225651,-0.1533938133670118,-0.43910938349402373
303,4.027813971203628,-2.677653266273186,-0.1510743621371614,-0.43142518794234264
304,4.0411070866201415,-2.746883062053286,-0.14831908932683033,-0.4234317099419812
305,4.054400202036655,-2.815024052721147,-0.1452289063366767,-0.4147494746778697
306,4.067693317453169,-2.8827677689817306,-0.14195674433627042,-0.4048835703372133
307,4.0809864328696825,-2.950499835147475,-0.13868512503347777,-0.3933867293634332
308,4.094279548286196,-3.0183592171202123,-0.13559610531281696,-0.38002081465322685
309,4.10757266370271,-3.0863030577665778,-0.1328415737046963,-0.364871113849454
310,4.120865779119224,-3.1541628790653347,-0.13052115759490265,-0.3483766881225626
311,4.134158894535737,-3.2216829820865125,-0.12867215777320243,-0.33126191270422
312,4.147452009952251,-3.2885366325259238,-0.12727218124735235,-0.31438408475299207
313,4.160745125368764,-3.3543200727803266,-0.1262518772351635,-0.29853955496941414
314,4.174038240785277,-3.4185300021136067,-0.12551337601436133,-0.28428554953154617
315,4.187331356201791,-3.480537092056556,-0.12494992473936903,-0.27183043008133473
316,4.200624471618305,-3.539573567513612,-0.1244633310885963,-0.261022828503464
317,4.213917587034818,-3.594752912453005,-0.12397732031850182,-0.2514380556447383
318,4.227210702451332,-3.645132634232779,-0.12344604165793606,-0.24253009943307713
319,4.240503817867846,-3.6898187502320527,-0.12285743055146808,-0.233799931672586
320,4.25379693328436,-3.728097379410588,-0.12223116022941431,-0.2249309304061593
321,4.267090048700873,-3.759568341708986,-0.12161100853382463,-0.21585802601601495
322,4.280383164117387,-3.7842505180759107,-0.12105206210926356,-0.2067611189567244
323,4.2936762795339005,-3.8026305073032898,-0.12060435044325285,-0.19799606892849117
324,4.306969394950414,-3.815635521601936,-0.12029588713475005,-0.1899908357373749
325,4.320262510366928,-3.8245273754425324,-0.12011909036658666,-0.18313713783846677
326,4.333555625783442,-3.8307333249245747,-0.12002460247749196,-0.17770096239675956
327,4.346848741199955,-3.8356462972385077,-0.11992536095309146,-0.17376358820440796
328,4.360141856616469,-3.840436752053432,-0.11971151893685185,-0.17119458055886277
329,4.373434972032982,-3.8459176308974388,-0.1192739809427032,-0.16965354901653756
330,4.386728087449495,-3.8524913606464337,-0.11853166185052322,-0.16861842964658114
331,4.400021202866009,-3.8601851618125,-0.1174558736118451,-0.1674410880795261
332,4.413314318282523,-3.868752790041191,-0.1160850886597325,-0.165431393050445
333,4.426607433699036,-3.877795366696859,-0.11452499817560363,-0.16196604033103476
334,4.43990054911555,-3.8868404936759617,-0.112932138775858,-0.15660989500604497
335,4.453193664532064,-3.895324616904415,-0.11148374081034519,-0.1492300154503559
336,4.4664867799485775,-3.9024505362235526,-0.11034066484133151,-0.14007993202437816
337,4.479779895365091,-3.90693547020621,-0.10961291013371074,-0.12983509242044922
338,4.493073010781605,-3.9067146557494343,-0.10933709398282554,-0.11956757882042682
339,4.506366126198119,-3.8987061771671905,-0.10947227641595371,-0.11065669540749506
340,4.519659241614632,-3.878757989506785,-0.10991537975691364,-0.10464088235661133
341,4.532952357031146,-3.8418748555961644,-0.11053187943810432,-0.1030260980461619
342,4.54624547244766,-3.7827589139723714,-0.1111932552897083,-0.10707616711472337
343,4.559538587864173,-3.69660711847516,-0.11181118594616846,-0.11761911946547576
344,4.572831703280687,-3.580021423781246,-0.1123599524753267,-0.13490587153698647
345,4.5861248186972,-3.4318375489877018,-0.11288232847102236,-0.15855030149459248
346,4.599417934113713,-3.253687742834524,-0.11347906035660071,-0.1875635524102392
347,4.612711049530227,-3.050179295000075,-0.1142863088903083,-0.22047575790589496
348,4.626004164946741,-2.8286649493613663,-0.11544773664028514,-0.2555225076805403
349,4.639297280363254,-2.5986645834958386,-0.11708765251377624,-0.2908653779212646
350,4.652590395779768,-2.3710420422506258,-0.11928935430195402,-0.3248144505784831
351,4.665883511196282,-2.157045731137351,-0.122080166057555,-0.35602155150980636
352,4.679176626612795,-1.9673075362132064,-0.12542327755949004,-0.3836135311101727
353,4.692469742029309,-1.810885727732213,-0.12921679567012775,-0.40723798510464726
354,4.705762857445823,-1.694441864249111,-0.13330131638860726,-0.4270052604427015
355,4.7190559728623365,-1.6216483087283013,-0.1374770989432599,-0.44333373095834305
356,4.73234908827885,-1.5929137899777144,-0.1415296854786687,-0.45673580806588204
357,4.745642203695364,-1.605479853084224,-0.14525936059506175,-0.46760773887381973
358,4.7589353191118775,-1.6538857190254355,-0.14850721412689458,-0.4760923913762758
359,4.772228434528391,-1.730736958909956,-0.1511706285135394,-0.4820626359677274
360,4.785521549944905,-1.827659579240551,-0.15320419436489977,-0.48522825324663826
361,4.798814665361418,-1.9362878120234626,-0.15460709518368518,-0.4853194213664241
362,4.812107780777931,-2.049129949721771,-0.15540271198338965,-0.48226812342309294
363,4.825400896194445,-2.160185960407901,-0.15561864917360274,-0.47631148974833903
364,4.838694011610959,-2.265248865638934,-0.1552746949906005,-0.4679773211295114
365,4.851987127027472,-2.3618941762229184,-0.15438276241221732,-0.457963807442629
366,4.865280242443986,-2.449226932687935,-0.1529579542480077,-0.4469678536980165
367,4.8785733578605,-2.5274951275292654,-0.15103541056712902,-0.43553139563110327
368,4.891866473277013,-2.5976825734844176,-0.14868526765459583,-0.423959609977018
369,4.905159588693527,-2.6611674643961423,-0.1460188292112525,-0.4123298301572916
370,4.918452704110041,-2.7194884152312784,-0.1431825699723056,-0.400572472316601
371,4.931745819526554,-2.774214439699065,-0.14034125815550097,-0.38858077221651866
372,4.945038934943068,-2.8268832033062323,-0.13765520466306574,-0.37630271603935617
373,4.958332050359582,-2.878960644447163,-0.1352579636378665,-0.3637847309608878
374,4.971625165776096,-2.931784698135874,-0.1332396374558725,-0.3511626910251219
375,4.984918281192609,-2.986479450855797,-0.13163840652923192,-0.3386184182655989
376,4.998211396609123,-3.0438522080647403,-0.1304404573358745,-0.3263293227776468
377,5.011504512025636,-3.104303021637655,-0.1295870074433253,-0.31443335331598016
378,5.024797627442149,-3.1677772377910394,-0.1289866595712865,-0.3030169630710091
379,5.038090742858663,-3.2337776143194557,-0.12853133746352413,-0.2921196011469432
380,5.051383858275177,-3.301431825363559,-0.12811399246573046,-0.2817416998822478
381,5.06467697369169,-3.369594523923249,-0.12764588135694693,-0.2718464032874802
382,5.077970089108204,-3.436958023999822,-0.12707071405362128,-0.26235489192814
383,5.091263204524718,-3.5021529480142224,-0.12637285067235066,-0.2531443103698988
384,5.104556319941231,-3.5638346496636153,-0.12557742352770662,-0.24405983467653797
385,5.117849435357745,-3.620764542552032,-0.12474182510377985,-0.2349463353654103
386,5.131142550774259,-3.6718998458920664,-0.12394003753783037,-0.22569367986869013
387,5.144435666190772,-3.7164970358793186,-0.12324311281994364,-0.21627958158779031
388,5.157728781607286,-3.7542165790967883,-0.12270011112735592,-0.20679114215373914
389,5.1710218970238,-3.7851988975958615,-0.12232363918130952,-0.19741304639768262
390,5.1843150124403135,-3.8100754451686107,-0.12208292175804995,-0.1883839040162852
391,5.197608127856827,-3.8298908418940307,-0.12190560009617035,-0.17993609497544974
392,5.210901243273341,-3.8459394524938406,-0.12168781232441528,-0.17224192588846346
393,5.224194358689854,-3.8595514459431213,-0.12131096580938329,-0.16538608827813325
394,5.237487474106367,-3.8718851567230095,-0.12066292019959828,-0.15937213838563008
395,5.250780589522881,-3.883784035741456,-0.11966072639859968,-0.15415421894913722
396,5.264073704939395,-3.89573544084411,-0.11827135452853435,-0.14967225923984437
397,5.277366820355908,-3.907932119494005,-0.11652615364593778,-0.14586663514101558
398,5.290659935772422,-3.920399075228363,-0.1145247183202141,-0.14265978244523186
399,5.303953051188936,-3.933122778323181,-0.1124250805422567,-0.1399136668527862
400,5.317246166605449,-3.946115133284636,-0.11041994550930173,-0.13739303451763465
401,5.330539282021963,-3.9593616451032925,-0.10870249611107903,-0.13477279616370796
402,5.343832397438477,-3.9726354896879714,-0.10742885941592463,-0.1317160805646957
403,5.35712551285499,-3.98519803991852,-0.1066862590972067,-0.12801916298137864
404,5.370418628271504,-3.9954444695067446,-0.10647526174984794,-0.12378239924867984
405,5.383711743688018,-4.000584539541748,-0.1067113439487573,-0.1195400767086361
406,5.397004859104531,-3.9964670285864177,-0.10724614242282116,-0.11628222074361619
407,5.410297974521045,-3.9776529611873106,-0.10790366321658386,-0.11533269999487268
408,5.423591089937559,-3.937809984465193,-0.10852293641005537,-0.11810019944576507
409,5.436884205354072,-3.870436869412354,-0.10899715039172767,-0.12576974059817161
410,5.450177320770585,-3.769844120936257,-0.10930042885734917,-0.13902884410677702
411,5.463470436187099,-3.6322366628549485,-0.10949661656071674,-0.15791102221773037
412,5.476763551603613,-3.456694127592538,-0.10972873982195465,-0.18179469879200702
413,5.490056667020126,-3.245842436860728,-0.11019206335377987,-0.2095387818662699
414,5.50334978243664,-3.0060596032407485,-0.11109682512506266,-0.23969380185363182
415,5.516642897853154,-2.7471444414227197,-0.11262813443639591,-0.2707182440668517
416,5.529936013269667,-2.4814755616977777,-0.11491018135692421,-0.30115310176297366
417,5.543229128686181,-2.2227776580779883,-0.11798048461549436,-0.3297449502897167
418,5.556522244102695,-1.984678175631328,-0.12177816644636254,-0.3555338177619703
419,5.569815359519208,-1.7792717603261525,-0.12614843822420505,-0.377921931164291
420,5.583108474935722,-1.6159073279555702,-0.13086328050422846,-0.39671823842330023
421,5.596401590352236,-1.5003714123320109,-0.1356554079407979,-0.4121322123887452
422,5.609694705768749,-1.4345674076243595,-0.140259423193809,-0.4246897157593023
423,5.622987821185263,-1.4166989565989778,-0.14445170957205092,-0.43506962012901024
424,5.636280936601777,-1.4418788293513976,-0.1480802920954222,-0.4438992047985558
425,5.6495740520182895,-1.5030222631415588,-0.1510781180043573,-0.4515752351745861
426,5.662867167434803,-1.5918571715978342,-0.1534574416421205,-0.4581766526542422
427,5.676160282851317,-1.6998927626321005,-0.15528790839250664,-0.463501196721779
428,5.689453398267831,-1.819223643213542,-0.1566649468073581,-0.4672075967778124
429,5.702746513684344,-1.9430951681654103,-0.15767700192670295,-0.4690019796830957
430,5.716039629100858,-2.0662057350115326,-0.15837957360254853,-0.46879186673151535
431,5.729332744517372,-2.1847653760397274,-0.1587814381495758,-0.4667489590662641
432,5.742625859933885,-2.296363562864191,-0.1588449115038037,-0.46326270631650396
433,5.755918975350399,-2.3997200955002516,-0.15849872903986958,-0.45881146323262534
434,5.769212090766913,-2.4943984043447958,-0.1576598341843439,-0.4538081214558193
435,5.782505206183426,-2.5805483644217495,-0.15625922213832502,-0.4484812558971158
436,5.79579832159994,-2.658717495707139,-0.1542666613723808,-0.442831338819282
437,5.809091437016454,-2.7297332724807584,-0.1517092761471856,-0.43666594371160733
438,5.822384552432967,-2.7946285119406986,-0.14867962840711155,-0.4296856198931114
439,5.835677667849481,-2.8545693805827934,-0.14533045156837984,-0.42157821499107845
440,5.848970783265995,-2.9107564247684286,-0.14185585395414932,-0.412088435605675
441,5.862263898682508,-2.964296044852865,-0.1384622903900139,-0.4010533672726892
442,5.875557014099021,-3.016067014768896,-0.13533577265530541,-0.3884178310428929
443,5.888850129515535,-3.0666188390092666,-0.13261325562422943,-0.3742517217882355
444,5.902143244932049,-3.1161307866707566,-0.13036509889432488,-0.35878075714256524
445,5.915436360348562,-3.1644390861387457,-0.12859229838221853,-0.34242077518505204
446,5.928729475765076,-3.2111174935071487,-0.127238056800345,-0.32578919560013636
447,5.94202259118159,-3.2555831893363503,-0.1262096652794232,-0.3096674150195114
448,5.955315706598103,-3.297198863189371,-0.12540461425172247,-0.29490541591312736
449,5.968608822014617,-3.335350366417491,-0.12473465960462163,-0.2822845732740569
450,5.981901937431131,-3.369492400957057,-0.12414292129689423,-0.2723731650310026
451,5.995195052847644,-3.3991672522635343,-0.12361126565239174,-0.26541325051736336
452,6.008488168264158,-3.424009770775063,-0.12315745182121952,-0.26126787656532224
453,6.021781283680672,-3.4437540463566205,-0.12282333812514147,-0.2594407390748953
454,6.035074399097185,-3.4582540774263815,-0.12265679050739757,-0.25916406375723955
455,6.048367514513699,-3.467523773234568,-0.12269096982957935,-0.2595385407018053
456,6.061660629930213,-3.4717921732109014,-0.12292543290964097,-0.25970094352760675
457,6.0749537453467255,-3.4715592831588866,-0.12331371979393202,-0.25898803297815687
458,6.088246860763239,-3.467629511559774,-0.12376143048775518,-0.2570596779916816
459,6.101539976179753,-3.4610981338305016,-0.12413698194721046,-0.25394497945037126
460,6.1148330915962665,-3.453275143119366,-0.124294414521107,-0.24998941252516543
461,6.12812620701278,-3.445549010110794,-0.12410433247816828,-0.24570994493695678
462,6.141419322429294,-3.439213408475925,-0.12348617401286482,-0.2415995513998597
463,6.154712437845808,-3.4352940341639746,-0.12243349384219422,-0.23794584323560564
464,6.168005553262321,-3.434414731716505,-0.12102462519555145,-0.23472677920805105
465,6.181298668678835,-3.4367326902558917,-0.11941423976916654,-0.23161845029430445
466,6.194591784095349,-3.441956276620033,-0.11780633225398014,-0.22810883001820623
467,6.207884899511862,-3.4494415044004882,-0.1164145207604397,-0.22367630538625663
468,6.221178014928376,-3.4583476545975915,-0.11541939883633993,-0.21797621334835357
469,6.23447113034489,-3.4678207836112342,-0.1149335794129093,-0.21098356850885908
470,6.247764245761403,-3.4771670017139975,-0.11498273851723952,-0.203056990844241
471,6.261057361177917,-3.48597738422551,-0.11550631384889973,-0.19490782082439462
472,6.274350476594431,-3.4941754249983803,-0.1163761975258178,-0.1874757401046535
473,6.287643592010944,-3.5019766903126808,-0.11742747058616841,-0.18172967395452017
474,6.300936707427457,-3.5097753381908467,-0.11849308099543514,-0.17843177226182105
475,6.314229822843971,-3.517995220012926,-0.11943463380926196,-0.17791882272553722
476,6.3275229382604845,-3.5269543206732736,-0.12016360820530232,-0.17996069951946392
477,6.340816053676998,-3.5367839888003174,-0.1206503426032189,-0.1837419108423342
478,6.354109169093512,-3.5474205717022147,-0.1209210291624102,-0.18798080613171722
479,6.3674022845100255,-3.558656376509019,-0.12104507442226407,-0.1911625875870273
480,6.380695399926539,-3.570211829953399,-0.12111630471148464,-0.19183261237437524
481,6.393988515343053,-3.5817804136766456,-0.12123173905180913,-0.1888863287307919
482,6.407281630759567,-3.5930048821873695,-0.12147128255058258,-0.18180134063296416
483,6.42057474617608,-3.6033643086135054,-0.12188102025791357,-0.17077643105858567
484,6.433867861592594,-3.6119811347490405,-0.12246212536046137,-0.1567616205320949
485,6.447160977009108,-3.6173898174944954,-0.12316696218911226,-0.1413774910080945
486,6.460454092425621,-3.6173374165712757,-0.12390375893410063,-0.12673201957745114
487,6.473747207842135,-3.6087032166712683,-0.12455089824106663,-0.11515241303104791
488,6.487040323258649,-3.587619584188582,-0.12498081419894506,-0.10886026973089405
489,6.5003334386751614,-3.5498425876750135,-0.1250911944671113,-0.10963095533483266
490,6.513626554091675,-3.4913594082598225,-0.12483784747578833,-0.11849019737683025
491,6.526919669508189,-3.409143301072093,-0.12426043129220145,-0.1355079561033133
492,6.540212784924703,-3.301900132616118,-0.12349122484633875,-0.15974510929747132
493,6.553505900341216,-3.170621352442165,-0.12273991259332255,-0.18938667900508563
494,6.56679901575773,-3.0187861314299975,-0.12225402418260357,-0.22205564326270674
495,6.580092131174244,-2.8521395326053502,-0.12226315714702461,-0.2552518634732323
496,6.593385246590757,-2.678088897913226,-0.12292194332872491,-0.28681754307404456
497,6.606678362007271,-2.5048655138456786,-0.1242687183425862,-0.3153124680749199
498,6.619971477423785,-2.3406523150434944,-0.1262127757742629,-0.34020076019243994
499,6.633264592840298,-2.1928601430685677,-0.12855428170680966,-0.3618034346802682
500,6.646557708256812,-2.0676550842498305,-0.1310306998523741,-0.3810401816283337
501,6.659850823673326,-1.9697350123925603,-0.13337572100371492,-0.3990442501905911
502,6.673143939089839,-1.9022713838410577,-0.1353738811611497,-0.4167647767890588
503,6.686437054506353,-1.8669057622144043,-0.1368968587796577,-0.4346634536828628
504,6.699730169922867,-1.8637237857284343,-0.13791430182702966,-0.4525745876407403
505,6.713023285339379,-1.89119830417957,-0.1384801462574349,-0.469746196612715
506,6.726316400755893,-1.946160543371199,-0.13870197232831474,-0.4850318844656036
507,6.739609516172407,-2.023891050369184,-0.1387042557227179,-0.4971700998591049
508,6.7529026315889205,-2.1184069493281426,-0.13859605064750175,-0.5050739088895948
509,6.766195747005434,-2.222966361059618,-0.13845049369212015,-0.5080609611677358
510,6.779488862421948,-2.3307382306459856,-0.13829896097212707,-0.5059765501856444
511,6.7927819778384615,-2.4355249209837355,-0.13813824757882368,-0.4991951604330372
512,6.806075093254975,-2.53239817595442,-0.1379459608125309,-0.48851752280367383
513,6.819368208671489,-2.61812480176976,-0.13769807481526217,-0.47500199723487396
514,6.8326613240880025,-2.691309439581407,-0.1373832729232856,-0.45977702553766664
515,6.845954439504516,-2.7522497268649886,-0.13701069495491747,-0.4438768482979032
516,6.85924755492103,-2.8025621310005824,-0.1366100790348909,-0.428129893891287
517,6.872540670337544,-2.844677308566756,-0.13622520432864754,-0.413112418268956
518,6.885833785754057,-2.8813142985361107,-0.1359026061726977,-0.39916237089491713
519,6.899126901170571,-2.915026445486757,-0.13567789423202142,-0.38643331594554575
520,6.912420016587085,-2.947879325242278,-0.13556214055663743,-0.3749595051320865
521,6.925713132003597,-2.981284079144154,-0.13553111765516745,-0.3647045925140928
522,6.939006247420111,-3.015977093157003,-0.13552057554496177,-0.3555787666693394
523,6.952299362836625,-3.0521133968597725,-0.13543062384821367,-0.34742765038107476
524,6.965592478253138,-3.0894284873054403,-0.13514087733392866,-0.3400120777160454
525,6.978885593669652,-3.127421853011062,-0.1345351288196639,-0.333002319128527
526,6.992178709086166,-3.165523469928203,-0.13353070215047155,-0.3260016623343469
527,7.00547182450268,-3.2032179921984847,-0.13210483369811965,-0.31859878577281353
528,7.018764939919193,-3.240115870968624,-0.1303099351444102,-0.3104355855047459
529,7.032058055335707,-3.2759733113361618,-0.1282720348441028,-0.30127262624952883
530,7.0453511707522205,-3.3106725395542056,-0.1261714328554946,-0.291036889188012
531,7.058644286168734,-3.3441793754232587,-0.12420995492235588,-0.2798410350847264
532,7.071937401585248,-3.376495597141902,-0.12257317959357569,-0.26796709708552247
533,7.0852305170017615,-3.407619182541279,-0.1213972228935694,-0.25581202010392956
534,7.098523632418275,-3.43751854205623,-0.1207477953481499,-0.24380100716290334
535,7.111816747834789,-3.466120896053189,-0.12061516607969126,-0.23228695451103573
536,7.125109863251303,-3.4933123148899585,-0.1209239922415837,-0.22146493977401185
537,7.138402978667815,-3.518947114639256,-0.12155335729006754,-0.21133272856784452
538,7.151696094084329,-3.542864862244227,-0.12236083438559403,-0.20171805482701638
539,7.164989209500843,-3.564912405554713,-0.12320500563769929,-0.1923731732883191
540,7.178282324917356,-3.584966603546773,-0.1239628661546038,-0.18311314188372207
541,7.19157544033387,-3.602952822570775,-0.12454087147569497,-0.173954130028558
542,7.204868555750384,-3.6188561116390714,-0.12488020966165587,-0.16519917869498674
543,7.218161671166897,-3.632725401941346,-0.12495779754365452,-0.15742707371253803
544,7.231454786583411,-3.6446736430507287,-0.12478451768867026,-0.1513669024195563
545,7.244747901999925,-3.654876509336699,-0.12440160570622343,-0.14768062487818073
546,7.2580410174164385,-3.6635692225366228,-0.12387530553616784,-0.1467149512276115
547,7.271334132832952,-3.67103690351678,-0.1232893994566403,-0.1483050837656717
548,7.284627248249466,-3.677590522220822,-0.12273529008494342,-0.1517046591691116
549,7.2979203636659795,-3.683518681136471,-0.12229993935125233,-0.15567913344717224
550,7.311213479082493,-3.6890052749179687,-0.12205283346037846,-0.15874798425773037
551,7.324506594499007,-3.694005530639927,-0.12203385486759645,-0.15951514937810685
552,7.33779970991552,-3.6980804606544395,-0.12224428447864923,-0.1570035907323899
553,7.351092825332033,-3.7002046687197776,-0.1226431194531509,-0.15091361589961697
554,7.364385940748547,-3.6985841860595277,-0.12315051037203696,-0.14174895801744647
555,7.377679056165061,-3.690543907489113,-0.12365932251525942,-0.13078771486044125
556,7.390972171581574,-3.672557533805651,-0.12405445562494472,-0.11990696142580534
557,7.404265286998088,-3.6404843313080257,-0.12423759194299847,-0.11129526584013141
558,7.417558402414602,-3.5900387201397206,-0.12415282571697078,-0.1071055285368214
559,7.430851517831115,-3.5174542642572493,-0.12380692838766806,-0.1091109673162677
560,7.444144633247629,-3.4202311284640627,-0.12327778857594995,-0.11842730115438323
561,7.457437748664143,-3.2978039150091942,-0.12270651169804873,-0.13535156101924534
562,7.470730864080656,-3.1519618628442534,-0.12227265824785817,-0.1593431633006995
563,7.48402397949717,-2.9869062598756555,-0.12215707100128322,-0.18914186953991394
564,7.497317094913684,-2.8089259298237343,-0.12250100445866162,-0.22298916096512902
565,7.510610210330197,-2.6257747979139014,-0.12337222083332755,-0.2589022206000496
566,7.523903325746711,-2.445904741776654,-0.12474748299924848,-0.2949462532312422
567,7.537196441163225,-2.2777161882596566,-0.126516627777791,-0.3294593689188558
568,7.550489556579738,-2.128939833428522,-0.12850731396848294,-0.36119994801593
569,7.563782671996251,-2.0061830802923595,-0.13052347790204358,-0.3894042754536394
570,7.577075787412765,-1.914603995126384,-0.13238653842100429,-0.41375861113586765
571,7.590368902829279,-1.857646704938428,-0.13396796275282236,-0.4343029560966573
572,7.603662018245792,-1.8367961758126776,-0.13520516526662363,-0.4512932678619514
573,7.616955133662306,-1.8513709744648261,-0.13609858759978755,-0.4650546827645172
574,7.63024824907882,-1.8984338868450952,-0.13669391334234302,-0.47585917477377065
575,7.643541364495333,-1.9729242916258791,-0.13705742585153766,-0.48385475905869657
576,7.656834479911847,-2.0680834350470807,-0.13725324424451632,-0.4890588799368481
577,7.670127595328361,-2.176163974445245,-0.13732874901327813,-0.4914090094564727
578,7.683420710744874,-2.289322204844195,-0.1373103510708104,-0.4908456862135593
579,7.696713826161388,-2.4005251958030627,-0.13720777907935966,-0.48739475071224647
580,7.710006941577902,-2.504292034188189,-0.1370227695556726,-0.4812200501431375
581,7.723300056994415,-2.5971309542751,-0.1367579197886212,-0.47263300048150836
582,7.736593172410929,-2.6776134057636716,-0.1364228991661631,-0.46206381097367455
583,7.749886287827443,-2.74611312120708,-0.13603704279118944,-0.45001238066429045
584,7.763179403243956,-2.804306851048644,-0.13562858313400308,-0.43699947636882425
585,7.776472518660469,-2.8545685542141648,-0.13523109384725562,-0.4235312158962377
586,7.789765634076983,-2.8993882343448,-0.13487748975006653,-0.4100777294170479
587,7.803058749493497,-2.9409178561019997,-0.13459182606309916,-0.3970574866377435
588,7.81635186491001,-2.9807022340492106,-0.13437968492434896,-0.38481710246497275
589,7.829644980326524,-3.0196050206951437,-0.13421913795089313,-0.3736026035303919
590,7.842938095743038,-3.0578986767540384,-0.13405555016535703,-0.3635277878824609
591,7.856231211159551,-3.095458706623279,-0.13380391130976643,-0.35455238353394547
592,7.869524326576065,-3.131989936482518,-0.13336116569153095,-0.3464831730030614
593,7.882817441992579,-3.1672179005886676,-0.13262807826204137,-0.33900521621235363
594,7.896110557409092,-3.2010004875391966,-0.13153639154561492,-0.33174109937937635
595,7.909403672825606,-3.233347927583422,-0.13007394784177023,-0.32432747202083284
596,7.92269678824212,-3.2643716881323463,-0.12829959254678827,-0.31649214399926984
597,7.935989903658633,-3.2942024122338576,-0.1263417475297916,-0.3081125651000604
598,7.949283019075147,-3.3229169778111363,-0.12437906235741376,-0.2992384715751655
599,7.962576134491661,-3.3504984765678976,-0.12260701793153025,-0.2900688477722048
600,7.9758692499081745,-3.3768316391430973,-0.12119886853184977,-0.2808857846014795
601,7.989162365324687,-3.40172168659591,-0.12027127964415481,-0.27196231261689924
602,8.002455480741201,-3.4249221777353864,-0.11986374548316146,-0.26347257369585037
603,8.015748596157716,-3.446164435461471,-0.11993674771606751,-0.2554354319628652
604,8.029041711574228,-3.4651900686223165,-0.12038798808716383,-0.2477140628821599
605,8.042334826990743,-3.4817919917448665,-0.12108075128013523,-0.24007579975175938
606,8.055627942407256,-3.4958656057328024,-0.12187532203784053,-0.23229457939972392
607,8.06892105782377,-3.5074629325979236,-0.12265447280295176,-0.22426119559985322
608,8.082214173240283,-3.516833986343278,-0.12333721159605936,-0.2160615476520577
609,8.095507288656796,-3.52443676867022,-0.1238798240967729,-0.2079926061997287
610,8.10880040407331,-3.530902398642388,-0.12426769877741078,-0.20050608514266124
611,8.122093519489823,-3.536953683434262,-0.12450377818637895,-0.19409273982530492
612,8.135386634906338,-3.543289836555711,-0.12459914696986744,-0.18913764581296633
613,8.14867975032285,-3.550462130442088,-0.12456890396100632,-0.18578407279151168
614,8.161972865739365,-3.55877088333296,-0.12443344745586389,-0.1838405391053816
615,8.175265981155878,-3.5682108796613043,-0.12422293933513806,-0.1827553686042114
616,8.188559096572392,-3.5784799278536856,-0.12398166338837592,-0.18166942883703507
617,8.201852211988905,-3.5890461768763235,-0.12376917537856952,-0.17954359589719218
618,8.21514532740542,-3.5992488004436067,-0.12365610020102595,-0.17534435094922068
619,8.228438442821933,-3.6083899199629155,-0.12371379071639084,-0.16825956210780002
620,8.241731558238447,-3.615769630612322,-0.12399870891614678,-0.1579080670889661
621,8.25502467365496,-3.620626093693726,-0.12453427175262287,-0.1445029491328261
622,8.268317789071475,-3.621971202214186,-0.12529471137919962,-0.12893124366335265
623,8.281610904487987,-3.618355841490132,-0.12619656520161968,-0.11272312243876005
624,8.294904019904502,-3.60764569220547,-0.12710296885590355,-0.09790070424929957
625,8.308197135321015,-3.5869201415954977,-0.1278435464573156,-0.08671829710310189
626,8.321490250737527,-3.552603385292424,-0.12824860483407888,-0.08132865573189116
627,8.334783366154042,-3.5008873591248517,-0.12819148194418822,-0.08342959456403606
628,8.348076481570555,-3.4284178787640114,-0.12762875354880354,-0.09395751916276793
629,8.36136959698707,-3.333115469681855,-0.12662622551746194,-0.112894536973305
630,8.374662712403582,-3.2149297240023533,-0.12536051286653618,-0.13924007120950269
631,8.387955827820097,-3.076314607466475,-0.12409175887856529,-0.17116586067309397
632,8.40124894323661,-2.9222737028254775,-0.12311137878985576,-0.20633037037068327
633,8.414542058653124,-2.759939996133499,-0.12267695276563881,-0.2422866583961772
634,8.427835174069637,-2.597781606296945,-0.12295145972511907,-0.27689066229358755
635,8.441128289486151,-2.444615591901723,-0.12396380693894647,-0.3086148924798702
636,8.454421404902664,-2.308637041054572,-0.1256018921501483,-0.3366975353390247
637,8.467714520319179,-2.1966301491598816,-0.12764007842187597,-0.3611018699132929
638,8.481007635735692,-2.113448097702595,-0.12979303708689263,-0.3823122385439775
639,8.494300751152206,-2.0617662454163437,-0.1317805884108402,-0.4010351235091559
640,8.507593866568719,-2.0420588010569283,-0.13338571828730464,-0.4178945392250399
641,8.520886981985232,-2.0527352067893307,-0.13449108096309131,-0.43320441131852194
642,8.534180097401746,-2.0903912936072153,-0.13508686163817307,-0.44687055103871715
643,8.54747321281826,-2.1501602733558047,-0.13525213040685746,-0.45843274442440984
644,8.560766328234774,-2.226165886970994,-0.13511941003542724,-0.4672179402551773
645,8.574059443651286,-2.312070962321244,-0.13483550688308352,-0.47255025547403134
646,8.587352559067801,-2.4016831918968435,-0.13452999517179012,-0.47395726076676487
647,8.600645674484314,-2.4895445069901614,-0.1342974541263854,-0.4713221945208634
648,8.613938789900828,-2.5714122875468495,-0.13419326386611366,-0.4649515539850401
649,8.627231905317341,-2.6445517383363484,-0.13423808506465504,-0.4555498736782307
650,8.640525020733856,-2.7077962024722924,-0.13442461400902114,-0.44411360234717134
651,8.653818136150369,-2.7613816314884407,-0.13472185103539489,-0.4317712789326721
652,8.667111251566883,-2.806605749318484,-0.13507571220652617,-0.41960612394303276
653,8.680404366983396,-2.845389904600413,-0.13540849909268532,-0.40849832513620393
654,8.69369748239991,-2.8798291231537205,-0.13562181071487228,-0.3990170684266231
655,8.706990597816423,-2.9118067089967608,-0.1356069909519365,-0.39137818586064
656,8.720283713232938,-2.942729001625885,-0.1352642826909589,-0.3854662406935607
657,8.73357682864945,-2.973407988885888,-0.13452764107414728,-0.3809053784175694
658,8.746869944065963,-3.004088667057834,-0.13338838432895592,-0.37715558139255295
659,8.760163059482478,-3.0345898657185044,-0.13190926019586321,-0.37361120871472375
660,8.77345617489899,-3.064508057691912,-0.13022210691430103,-0.36968502264883096
661,8.786749290315505,-3.093427949961424,-0.12850690015943436,-0.3648700210520635
662,8.800042405732018,-3.1210914418807185,-0.12695611256591713,-0.3587799676630647
663,8.813335521148533,-3.147493439021007,-0.1257336760482174,-0.35117457127902457
664,8.826628636565045,-3.1728929986141345,-0.12494025047541364,-0.3419747981390826
665,8.83992175198156,-3.197746827914142,-0.12459485411016728,-0.3312682616299772
666,8.853214867398073,-3.2225870351482544,-0.1246376922219338,-0.3192979661132433
667,8.866507982814587,-3.2478749090467387,-0.12495217733223744,-0.30642570809350245
668,8.8798010982311,-3.273865762712945,-0.1253982756246259,-0.2930678842933538
669,8.893094213647615,-3.3005154236472745,-0.12584658377937383,-0.27961463020575417
670,8.906387329064128,-3.3274479191945407,-0.12620368786614877,-0.26635603187809836
671,8.919680444480642,-3.3539899509763673,-0.12642348662543113,-0.253442855990677
672,8.932973559897155,-3.37926517592105,-0.12650430938620832,-0.24089894681017954
673,8.946266675313668,-3.402332628555852,-0.12647581117152185,-0.22868132485249054
674,8.959559790730182,-3.422348581398023,-0.12638158578451983,-0.21676277541947406
675,8.972852906146695,-3.438727825531017,-0.12626309614184775,-0.20520235410754056
676,8.98614602156321,-3.4512773629559224,-0.12614859592899244,-0.19417701426759476
677,8.999439136979722,-3.460273745215777,-0.12604826166016514,-0.18396717819068992
678,9.012732252396235,-3.466458110728656,-0.1259547430652459,-0.17490853574503942
679,9.02602536781275,-3.4709341778936946,-0.1258473705272048,-0.1673313707259328
680,9.039318483229264,-3.4749751094492627,-0.12569837169988884,-0.16150487310119194
681,9.052611598645775,-3.479771182241071,-0.12548014650712314,-0.15759262296935653
682,9.065904714062292,-3.486172798357346,-0.12517319155835369,-0.15561537191388491
683,9.079197829478804,-3.4944927836815367,-0.12477413611757192,-0.1554151221691834
684,9.09249094489532,-3.5044221532960917,-0.12430258958644892,-0.15662196273356926
685,9.105784060311832,-3.5150853425967257,-0.12380466101952979,-0.1586380076016739
686,9.119077175728346,-3.5252215864269623,-0.12335080979214613,-0.1606628386796936
687,9.13237029114486,-3.533439969590833,-0.12302656663156179,-0.1617837216930252
688,9.145663406561374,-3.538468889925336,-0.12291654210653832,-0.1611378977901125
689,9.158956521977888,-3.5393163929741585,-0.12308442930172266,-0.15812740026228753
690,9.1722496373944,-3.5352809076186005,-0.12355358420966651,-0.15263933551736053
691,9.185542752810914,-3.5257990608120884,-0.12429352004593326,-0.14520807947487527
692,9.198835868227428,-3.51017623992476,-0.12521693471965262,-0.13705829022050878
693,9.21212898364394,-3.4872978558965118,-0.12618978830921837,-0.12999051139661222
694,9.225422099060454,-3.4554457606882694,-0.12705390599898342,-0.1261096908792142
695,9.238715214476969,-3.4123321425317457,-0.1276582991212997,-0.12744161378760457
696,9.25200832989348,-3.3554110030177546,-0.12789268814929292,-0.13552036377732296
697,9.265301445309996,-3.2824466453248613,-0.12771534949994476,-0.15104833160466807
698,9.278594560726509,-3.1922318263280407,-0.12716794976075113,-0.1737198295211697
699,9.291887676143023,-3.0852823925109623,-0.12637263536913707,-0.20225976599133053
700,9.305180791559536,-2.9643137161519677,-0.12551089561004924,-0.23467074269171026
701,9.31847390697605,-2.8343384500834943,-0.12478854647440739,-0.2686239227613388
702,9.331767022392564,-2.702309143907927,-0.12439507703938582,-0.30189047297292043
703,9.345060137809078,-2.5763404765511617,-0.12446712319872429,-0.3327038555729839
704,9.35835325322559,-2.4646517436107094,-0.125064313307567,-0.35996977715821493
705,9.371646368642104,-2.3744395106489904,-0.12616171467220674,-0.38328981419350433
706,9.384939484058618,-2.3109040256236373,-0.12765823588177908,-0.40281935281694925
707,9.398232599475133,-2.2766105949709936,-0.12939655569033934,-0.41902312388646434
708,9.411525714891646,-2.271285172519766,-0.13118869566037583,-0.43241088052698634
709,9.424818830308158,-2.2920474483272164,-0.1328421713143284,-0.4433292032876315
710,9.438111945724671,-2.333999784354053,-0.13418361660994255,-0.451858705083927
711,9.451405061141186,-2.3910341897722067,-0.1350785191267291,-0.457829478427465
712,9.4646981765577,-2.456700012603084,-0.13544643220892286,-0.4609328309135882
713,9.477991291974211,-2.5249901991602934,-0.13527077623206663,-0.4608834514818545
714,9.491284407390728,-2.5909438801953164,-0.13460171299284207,-0.4575782500374759
715,9.50457752280724,-2.6510132657316636,-0.13355034082314035,-0.45120609133141365
716,9.517870638223757,-2.7031894902492115,-0.13227319855642727,-0.4422816357777353
717,9.531163753640268,-2.7469163470521964,-0.1309479624841733,-0.4315992308084228
718,9.544456869056782,-2.7828408212886977,-0.12974389019153892,-0.4201226140180388
719,9.557749984473295,-2.812458075199921,-0.12879305020777504,-0.40883899968116194
720,9.57104309988981,-2.8377104409224883,-0.12816941597067902,-0.39861054015183334
721,9.584336215306324,-2.8605975370528505,-0.12788154269135107,-0.39005277471351546
722,9.597629330722835,-2.882847763202038,-0.12788081707732876,-0.38346051060504643
723,9.61092244613935,-2.9056891327212946,-0.1280824304931177,-0.37878969448730326
724,9.624215561555864,-2.929739989779953,-0.12839224476158248,-0.37569262964669303
725,9.637508676972375,-2.9550201633987925,-0.1287312490982459,-0.37359593907337224
726,9.65080179238889,-2.9810642980583815,-0.12905083223353914,-0.3718067070757654
727,9.664094907805405,-3.0071046818160125,-0.1293357929492296,-0.36963107855997196
728,9.677388023221916,-3.0322826500358433,-0.1295962930955295,-0.3664892125699163
729,9.690681138638432,-3.055846299957473,-0.12985324229567866,-0.36200967716206855
730,9.703974254054945,-3.0772980244233956,-0.13012293554096194,-0.3560860820951158
731,9.71726736947146,-3.096467722651695,-0.13040603746930698,-0.348881791549866
732,9.730560484887972,-3.1135044894259685,-0.13068382763510855,-0.3407775322881183
733,9.743853600304488,-3.1287976099591934,-0.1309219412119257,-0.3322712464687364
734,9.757146715721,-3.1428526549254387,-0.13107955893925752,-0.3238549802908436
735,9.770439831137514,-3.1561569189616407,-0.13112070466478049,-0.3159026274164634
736,9.783732946554029,-3.169068543802598,-0.13102418140127708,-0.30859923525840827
737,9.79702606197054,-3.181755521773448,-0.13078953178571778,-0.3019274854942978
738,9.810319177387054,-3.1941963509540066,-0.1304378100790956,-0.2957066858027987
739,9.823612292803569,-3.206236973661552,-0.13000739774196124,-0.28966368885278887
740,9.836905408220082,-3.217683364917145,-0.12954620858561103,-0.2835099803822792
741,9.850198523636594,-3.228400215391334,-0.12910226396358382,-0.27700468327693756
742,9.863491639053109,-3.238386343288142,-0.12871479196341729,-0.2699941474917294
743,9.876784754469622,-3.247806546976597,-0.1284077688684683,-0.26242874765720453
744,9.890077869886136,-3.256974193275322,-0.12818720354585245,-0.25436251793707065
745,9.903370985302647,-3.2662936750263944,-0.1280425297005603,-0.245940942206876
746,9.916664100719164,-3.2761820302440277,-0.12795139595330957,-0.23737900500158213
747,9.929957216135676,-3.2869918236797586,-0.12788622110372905,-0.2289290493185915
748,9.943250331552193,-3.298953191872398,-0.12782043635423065,-0.2208388768447704
749,9.956543446968704,-3.3121444219781195,-0.12773260415459664,-0.2133051451347942
750,9.969836562385218,-3.3264911138945306,-0.1276075823270651,-0.20643259759705226
751,9.983129677801733,-3.341786925993982,-0.12743523469457171,-0.20021158509012402
752,9.996422793218246,-3.357725929659873,-0.12720823857941602,-0.19452204379446278
753,10.009715908634758,-3.3739378255154135,-0.12692073605654033,-0.18916311377595507
754,10.023009024051271,-3.3900210424109165,-0.1265688320587951,-0.1838987415497702
755,10.036302139467786,-3.4055722961051087,-0.12615275956823402,-0.1785053744620419
756,10.0495952548843,-3.4202124251807087,-0.12567965399693398,-0.17280924677387408
757,10.062888370300811,-3.433607433573996,-0.12516576096732188,-0.16670552425665539
758,10.076181485717326,-3.4454828787953864,-0.12463742238884921,-0.16015695361177507
759,10.08947460113384,-3.455630872272704,-0.1241307973329685,-0.15317469126141395
760,10.102767716550352,-3.4639109175582727,-0.12369044612906993,-0.14578921218914756
761,10.116060831966868,-3.470244909637269,-0.12336653039147702,-0.1380245698426758
762,10.12935394738338,-3.4746001733477097,-0.12320986725122927,-0.12989270323905958
763,10.142647062799895,-3.4769448027306074,-0.1232640700096149,-0.12142267364586903
764,10.155940178216408,-3.4771546664105077,-0.12355492138343625,-0.11273054499301191
765,10.169233293632924,-3.474860208557883,-0.12407878222535346,-0.1041201183926845
766,10.182526409049435,-3.4692469020958945,-0.12479349097371244,-0.0961872788577014
767,10.19581952446595,-3.4588592884103044,-0.12561592511468042,-0.08988773259027591
768,10.209112639882465,-3.441489643021879,-0.12642954151346023,-0.08652577447261625
769,10.222405755298976,-3.414240699997724,-0.12710274665010407,-0.08763446605160317
770,10.23569887071549,-3.3738257180155555,-0.12751546145793693,-0.09474486177611709
771,10.248991986132005,-3.317109184145781,-0.12758783680744387,-0.10907777835179311
772,10.262285101548516,-3.2418129169742067,-0.12730309304441692,-0.13122524520423615
773,10.27557821696503,-3.1472412146374165,-0.1267170350312764,-0.1609074304996821
774,10.288871332381545,-3.0348424901912705,-0.12595023434817967,-0.19688450177411165
775,10.302164447798058,-2.908441385743457,-0.12516421415853524,-0.23706914446523855
776,10.315457563214572,-2.7740445082032177,-0.12452820047597102,-0.2788320219277115
777,10.328750678631083,-2.639225242655839,-0.12418592963421077,-0.3194355443286242
778,10.3420437940476,-2.512196656873985,-0.12423138670870675,-0.35649025179373345
779,10.355336909464112,-2.4007542003406,-0.12469856217028251,-0.3883181922142404
780,10.368630024880629,-2.3112918848887967,-0.12556514652631354,-0.4141340448410687
781,10.38192314029714,-2.24806611512111,-0.12676582274202788,-0.43400981074893213
782,10.395216255713654,-2.2128161244185134,-0.12820906657988437,-0.4486544067143599
783,10.408509371130169,-2.204771709724335,-0.12979227705639668,-0.45909289911528006
784,10.421802486546682,-2.221006846085202,-0.13141246619484515,-0.4663527888516837
785,10.435095601963194,-2.257043191959029,-0.1329720943995985,-0.4712491360651354
786,10.448388717379707,-2.307575992108158,-0.1343810562230595,-0.47431326222948084
787,10.461681832796222,-2.367189316305433,-0.135556403778033,-0.47585064405970817
788,10.474974948212736,-2.430948244178456,-0.1364217062127682,-0.47606667933134394
789,10.48826806362925,-2.4947977496071028,-0.13690821608845782,-0.4751827513575887
790,10.501561179045762,-2.5557504751965663,-0.13695985944057648,-0.4734837172354251
791,10.514854294462276,-2.6118932187966886,-0.1365429070838744,-0.4712801522262205
792,10.52814740987879,-2.6622713641431353,-0.13565893659544218,-0.4688133967190734
793,10.541440525295304,-2.7067155664105913,-0.13435709792733957,-0.4661583870060943
794,10.554733640711817,-2.745659320771301,-0.132740048853404,-0.4631779747340518
795,10.568026756128331,-2.779970598014543,-0.13095841871302458,-0.45955612174571875
796,10.581319871544844,-2.8107984119291416,-0.12919168066820236,-0.4548999059464132
797,10.59461298696136,-2.839424996643423,-0.1276180826371409,-0.44886915621784856
798,10.607906102377871,-2.8671181027287753,-0.12638100711167352,-0.4412811610559331
799,10.621199217794386,-2.894990724969859,-0.12556167222468045,-0.43215045949566344
800,10.6344923332109,-2.9238883104214892,-0.12516696746410036,-0.4216537423374279
801,10.647785448627411,-2.9543274739370187,-0.12513644062039023,-0.41004299104033265
802,10.661078564043926,-2.9865013924339907,-0.12536576296729354,-0.39755050283694787
803,10.67437167946044,-3.0203481826590863,-0.12573825583667356,-0.3843282768567764
804,10.687664794876952,-3.0556581643174128,-0.12615385303385354,-0.37044349796966225
805,10.700957910293466,-3.0921835803176214,-0.12654708944011142,-0.35592345010209664
806,10.71425102570998,-3.129715682315921,-0.12689100231364156,-0.34082183941176303
807,10.727544141126494,-3.168108114165274,-0.12718943373762887,-0.32527350072841676
808,10.740837256543008,-3.2072459755183447,-0.12746355799794437,-0.3095150788985894
809,10.75413037195952,-3.2469788860329625,-0.12773852558726473,-0.29386668420318474
810,10.767423487376035,-3.2870475704128492,-0.12803376569639494,-0.2786836798116136
811,10.780716602792548,-3.3270342078725887,-0.1283575957175029,-0.2642941211842776
812,10.794009718209065,-3.366358031095957,-0.12870499489400383,-0.250938151457886
813,10.807302833625576,-3.4043232123685367,-0.12905726155409766,-0.23872517807057778
814,10.82059594904209,-3.440210702567538,-0.1293832016410823,-0.22762359234534915
815,10.833889064458605,-3.473393248908149,-0.12964239304915945,-0.21749226885646805
816,10.847182179875118,-3.50344551646014,-0.12979111263840443,-0.20814969024353036
817,10.86047529529163,-3.530220237775959,-0.1297905976896815,-0.19945826635976668
818,10.873768410708143,-3.553867466112784,-0.12961600119739528,-0.19138800614726942
819,10.887061526124658,-3.5747874180297403,-0.12926351638366393,-0.18402534988479935
820,10.90035464154117,-3.5935259639439794,-0.12875331034890453,-0.17751253568574504
821,10.913647756957683,-3.610640342570006,-0.12812720038401254,-0.17193299064883918
822,10.926940872374198,-3.626573977188315,-0.12744189904232434,-0.16718510094571012
823,10.940233987790712,-3.6415775536553343,-0.12676024411616352,-0.16289744087986252
824,10.953527103207223,-3.6556978587653073,-0.1261433069626473,-0.15842756858162102
825,10.96682021862374,-3.6688314424510318,-0.12564536502137466,-0.15295804881518177
826,10.980113334040253,-3.6808159933594746,-0.12531186926569993,-0.1456692480632963
827,10.993406449456767,-3.6915170099246666,-0.12517868519233646,-0.13594252689700126
828,11.00669956487328,-3.700865518946391,-0.1252700451241018,-0.12353946894975161
829,11.019992680289796,-3.7088140100516744,-0.1255933787887741,-0.10871428135343149
830,11.033285795706307,-3.715199027562409,-0.1261312669399763,-0.09224051379530995
831,11.046578911122822,-3.7195257489881777,-0.12683323227299617,-0.07535784093958657
832,11.059872026539336,-3.7207182089254998,-0.12761169997787744,-0.05965902877315619
833,11.073165141955847,-3.716903515428744,-0.12834631708794114,-0.04693757406109493
834,11.086458257372362,-3.7053120975429383,-0.12889876594136915,-0.03900827261650662
835,11.099751372788877,-3.6823698124837203,-0.1291368791733149,-0.03750704736197618
836,11.11304448820539,-3.6440252106355118,-0.1289633828803459,-0.043681333886373255
837,11.126337603621902,-3.5862982527393017,-0.12834216308375254,-0.05819765933509591
838,11.139630719038417,-3.5059690312327745,-0.12731449854711463,-0.08100844437236032
839,11.15292383445493,-3.401269876884621,-0.12599960946256306,-0.11132173190793924
840,11.166216949871444,-3.272425479884035,-0.12457777382104332,-0.14769773369030845
841,11.179510065287957,-3.1219155502536053,-0.12325905441746571,-0.1882594496984026
842,11.192803180704471,-2.954405183842817,-0.12224480660056691,-0.23096705737842008
843,11.206096296120984,-2.7763727495287562,-0.12169117580027243,-0.2738857676001935
844,11.2193894115375,-2.5955303699802728,-0.12168306262665647,-0.31538450984692873
845,11.232682526954012,-2.4201548721930313,-0.12222389491766678,-0.35423373082686954
846,11.245975642370526,-2.2584264115943213,-0.12324218816561752,-0.38960862304780736
847,11.25926875778704,-2.1178278095993317,-0.12461171339877258,-0.42103113985169016
848,11.272561873203554,-2.0046180752104994,-0.12617920934082658,-0.44829028157666145
849,11.285854988620066,-1.9233787002811342,-0.12779251596814964,-0.47136782596090215
850,11.29914810403658,-1.876643957082032,-0.12932283951315304,-0.49037743605008616
851,11.312441219453094,-1.86465370684628,-0.1306772619009224,-0.505511633573407
852,11.325734334869606,-1.8852892835440402,-0.13180085658373608,-0.5169899599371497
853,11.33902745028612,-1.9342525568227797,-0.13267081979641046,-0.5250100263323098
854,11.352320565702634,-2.0055173694520816,-0.1332868302299773,-0.5297122510887466
855,11.365613681119148,-2.092026015179713,-0.13366185425664678,-0.5311709637658646
856,11.37890679653566,-2.1865382741424657,-0.13381605443366448,-0.5294177290086012
857,11.392199911952176,-2.2824902229488107,-0.13377425917509075,-0.5244920679283556
858,11.405493027368689,-2.3747048211132955,-0.13356572446336715,-0.5165064806208114
859,11.418786142785205,-2.4598240952926296,-0.13322436773752197,-0.5057094952841138
860,11.432079258201716,-2.536395910116732,-0.13278823841266738,-0.4925308866759461
861,11.44537237361823,-2.604627351878197,-0.13229805385444948,-0.4775949339651862
862,11.458665489034743,-2.6658887236837145,-0.13179538828346143,-0.4616908179249261
863,11.471958604451258,-2.722098899832842,-0.1313211318612781,-0.44569622063879955
864,11.48525171986777,-2.775135461400285,-0.1309142685355145,-0.4304617958750026
865,11.498544835284283,-2.8263921097486,-0.13061035569755775,-0.41667756676581397
866,11.511837950700798,-2.8765586639193534,-0.13043882679622182,-0.4047518823279055
867,11.52513106611731,-2.925637399120321,-0.1304185872438183,-0.3947344898399528
868,11.538424181533824,-2.973148617679734,-0.13055219443472335,-0.3863064206772029
869,11.551717296950338,-3.018434089016033,-0.13081986084067923,-0.3788435808369714
870,11.565010412366853,-3.060951763561849,-0.1311752318851335,-0.37154302422103647
871,11.578303527783364,-3.100472730374794,-0.13154509252310295,-0.3635855401100073
872,11.59159664319988,-3.1371344804888928,-0.13183469780981044,-0.35429894761984443
873,11.604889758616393,-3.1713572890889554,-0.1319393118033965,-0.3432856610677346
874,11.618182874032907,-3.203674611412039,-0.1317609814389299,-0.3304864350710488
875,11.63147598944942,-3.2345497816996835,-0.13122794276677605,-0.3161682270172988
876,11.644769104865937,-3.2642450673259744,-0.13031278467464702,-0.300843755511765
877,11.658062220282448,-3.292780707872681,-0.12904494612277875,-0.2851478087855796
878,11.671355335698962,-3.319984153874525,-0.12751357052256143,-0.26970511221200066
879,11.684648451115477,-3.34559841879726,-0.125858352058152,-0.2550233066178895
880,11.69794156653199,-3.3694037897736417,-0.12424870749759229,-0.24143269012988355
881,11.711234681948502,-3.3913111899686723,-0.12285485564265089,-0.22907632466074704
882,11.724527797365017,-3.4114026491393723,-0.12181715352614852,-0.21793744249424626
883,11.73782091278153,-3.429915677168771,-0.12122116188000961,-0.20788319573491093
884,11.751114028198042,-3.4471861532107657,-0.12108471196334228,-0.19870757672904515
885,11.764407143614555,-3.4635742461193173,-0.12135996431427179,-0.1901678673377444
886,11.77770025903107,-3.4793984445100223,-0.1219492044383005,-0.18201971937170391
887,11.790993374447584,-3.494894988713278,-0.12272939886532772,-0.17405857790332135
888,11.804286489864095,-3.5102074440123716,-0.1235785571854715,-0.166168336862781
889,11.817579605280612,-3.5253994442437038,-0.12439722221606894,-0.1583669081134469
890,11.830872720697124,-3.540477804845465,-0.12512064252335683,-0.15083029994340308
891,11.84416583611364,-3.5554145839656086,-0.12572045438558135,-0.14387718552260687
892,11.857458951530152,-3.570162255033943,-0.12619785650504964,-0.13790550970827611
893,11.870752066946666,-3.5846613812207933,-0.12657232377052266,-0.13328780094678036
894,11.88404518236318,-3.5988424836467168,-0.1268703913159632,-0.1302467002794313
895,11.897338297779694,-3.6126236372197558,-0.127118022186152,-0.12874155900038003
896,11.910631413196208,-3.625904320786243,-0.12733803796418547,-0.1283982784876857
897,11.92392452861272,-3.6385546987314825,-0.12755173512910362,-0.1285084782870677
898,11.937217644029234,-3.6503970417624183,-0.12778188532426185,-0.12811284187677968
899,11.950510759445748,-3.6611720802442345,-0.12805352400962727,-0.12616893382787717
900,11.96380387486226,-3.6704795213739168,-0.12838972516088587,-0.12178645146806726
901,11.977096990278774,-3.677682678164283,-0.1288018865566815,-0.11449325296995626
902,11.990390105695289,-3.6817763358169273,-0.12927716161837569,-0.1044763955874955
903,12.0036832211118,-3.6812360625343583,-0.1297682589225816,-0.09273041248349467
904,12.016976336528316,-3.673892099313113,-0.13019155522065248,-0.08104921700917331
905,12.030269451944829,-3.656891493667398,-0.13043765980189084,-0.07182533554102927
906,12.043562567361343,-3.6268148932162507,-0.1303946082842755,-0.06766956612037485
907,12.056855682777856,-3.5799896102047386,-0.12997905643972446,-0.07092292190082398
908,12.07014879819437,-3.5129895416558403,-0.1291669208283042,-0.08317888645503013
909,12.083441913610883,-3.4232508981330256,-0.1280134586989103,-0.10494532253736218
910,12.096735029027398,-3.3096852319007644,-0.1266547115669346,-0.13554105636624642
911,12.11002814444391,-3.1731594637342537,-0.1252873517255015,-0.17325111167935847
912,12.123321259860424,-3.0167418497706913,-0.1241307505506498,-0.21568407796177877
913,12.136614375276938,-2.8456680989657666,-0.12338108340109735,-0.2602185543207002
914,12.149907490693453,-2.6670367169857063,-0.1231701312039921,-0.30441506669110646
915,12.163200606109966,-2.489276453007027,-0.12353998510997041,-0.3463042653252097
916,12.176493721526478,-2.3214396092286957,-0.12443972244360021,-0.3845194718623192
917,12.189786836942991,-2.172378302314705,-0.12574331634746766,-0.41829298123688435
918,12.203079952359506,-2.04987391245525,-0.12728202549058978,-0.44736203619182957
919,12.21637306777602,-1.9598160844183228,-0.1288811945370125,-0.47183100428615915
920,12.229666183192531,-1.9055519295974144,-0.13039154654874935,-0.4920233442021535
921,12.242959298609048,-1.8875267332522683,-0.13170819074516535,-0.5083445537460252
922,12.25625241402556,-1.9033016032423695,-0.13277530213451885,-0.521171590906256
923,12.269545529442077,-1.9479655242167542,-0.133578986732399,-0.5307820127295815
924,12.282838644858588,-2.0148780578544625,-0.13413372901486342,-0.5373307904995358
925,12.296131760275102,-2.096608650596158,-0.13446831033023418,-0.5408720517892112
926,12.309424875691615,-2.1858998168118133,-0.13461545416083454,-0.5414109614192992
927,12.32271799110813,-2.2764851954946086,-0.13460673752466734,-0.538964291615094
928,12.336011106524642,-2.363637337347767,-0.13447179418788663,-0.5336103950983425
929,12.349304221941155,-2.4443894146165333,-0.13423946417279978,-0.5255179634593787
930,12.36259733735767,-2.5174485220105547,-0.13393856213014954,-0.5149525642475948
931,12.375890452774184,-2.5828760581964905,-0.13359696163273335,-0.5022661945481628
932,12.389183568190695,-2.641641045096218,-0.13323905723611282,-0.48787713642164743
933,12.40247668360721,-2.695153456298742,-0.13288276266594576,-0.4722466235175816
934,12.415769799023725,-2.7448632650142306,-0.13253764642843457,-0.4558564181540151
935,12.429062914440236,-2.7919778622945888,-0.13220547565251017,-0.4391877690618624
936,12.442356029856752,-2.8373164541735414,-0.1318834928886776,-0.42269838351764155
937,12.455649145273265,-2.881292248372082,-0.13156958579402764,-0.40679249223993713
938,12.46894226068978,-2.923994450271805,-0.1312676138057791,-0.39178228829114753
939,12.482235376106292,-2.965331890359258,-0.13099089475334186,-0.37784671492810995
940,12.495528491522808,-3.005196956110036,-0.13076232230231577,-0.36500169050083847
941,12.50882160693932,-3.0436109950776657,-0.13061059488281462,-0.3530986442216534
942,12.522114722355834,-3.080819468260283,-0.1305632193343937,-0.34186215889273175
943,12.535407837772349,-3.117316125156291,-0.13063790415809243,-0.33096390391902064
944,12.54870095318886,-3.1537897535159254,-0.13083438875512252,-0.3201145741694319
945,12.561994068605374,-3.1910035629826323,-0.1311285986810564,-0.3091451756280267
946,12.575287184021889,-3.2296333977288305,-0.13147044074723413,-0.29804860324692434
947,12.588580299438402,-3.2701023702012173,-0.13178586127558514,-0.2869631764617541
948,12.601873414854914,-3.3124517076974493,-0.13198325299498592,-0.27609905198462176
949,12.615166530271429,-3.35627888987135,-0.13196396727750204,-0.2656305765169349
950,12.628459645687942,-3.40075722121393,-0.13163636062680506,-0.2555947504064745
951,12.641752761104456,-3.4447318540096825,-0.13093215566364827,-0.24583968161023134
952,12.655045876520967,-3.486872213839031,-0.12982279609733618,-0.23605222706535928
953,12.668338991937484,-3.5258533457188257,-0.12833223543575692,-0.22586374237784357
954,12.681632107353996,-3.5605386664172034,-0.12654195721179473,-0.21499877136007528
955,12.694925222770513,-3.590140851067432,-0.12458477834287517,-0.20340955942905992
956,12.708218338187024,-3.6143422116419917,-0.12262645659468457,-0.19134082036497557
957,12.721511453603538,-3.633358742274638,-0.12083776729401477,-0.1792943800835736
958,12.734804569020053,-3.647934100913042,-0.11936321502656874,-0.1679014509688206
959,12.748097684436566,-3.659254978147616,-0.11829438405232844,-0.1577458550588068
960,12.761390799853078,-3.6687910830494492,-0.11765514522391655,-0.1492009382259306
961,12.774683915269591,-3.678080873910449,-0.11740263495803799,-0.1423385825740262
962,12.787977030686106,-3.688502285157627,-0.11744328210180546,-0.13694095320291186
963,12.80127014610262,-3.7010772076024416,-0.1176589163056024,-0.1326037348972347
964,12.814563261519131,-3.7163526420547104,-0.11793563186870419,-0.12888058571132385
965,12.827856376935646,-3.7343799425948063,-0.11818816475919226,-0.12540090850814611
966,12.84114949235216,-3.7547831287331803,-0.11837457246349656,-0.12190751810063208
967,12.854442607768672,-3.776878562903899,-0.11849890198059986,-0.11820290343752687
968,12.867735723185188,-3.7997914708901694,-0.11860229680373993,-0.11404333693131895
969,12.8810288386017,-3.8225158659666447,-0.11874513769901751,-0.10905403792026684
970,12.894321954018215,-3.8438838400968085,-0.11898430539589196,-0.10273784123010463
971,12.907615069434728,-3.8624428320608124,-0.11935060867208869,-0.09461256121217292
972,12.920908184851244,-3.876276241082703,-0.11983179002465569,-0.08445405339926079
973,12.934201300267755,-3.88283285493147,-0.1203660090088742,-0.0725683286341253
974,12.94749441568427,-3.878844386643166,-0.12084894973196975,-0.059990510651364175
975,12.960787531100785,-3.860402008931234,-0.1211546307949929,-0.048522095013629155
976,12.974080646517296,-3.8232317968178564,-0.1211661524825719,-0.04056506934868752
977,12.98737376193381,-3.7631618862375116,-0.1208091772872604,-0.0387726597681676
978,13.000666877350325,-3.6767236724899033,-0.12007931022170669,-0.045588629864926296
979,13.013959992766836,-3.5617910554330257,-0.11905564784621572,-0.06277403973406935
980,13.02725310818335,-3.4181475773475163,-0.11789645635223105,-0.09101903463400168
981,13.040546223599865,-3.247883522181116,-0.11681792886019637,-0.12971568237714012
982,13.053839339016378,-3.0555547642577348,-0.11606135206391174,-0.17693774219720385
983,13.067132454432892,-2.8480682672575366,-0.11585616866868684,-0.22964153326333564
984,13.080425569849403,-2.6342863207586817,-0.11638586695003672,-0.28406870415828683
985,13.09371868526592,-2.424364840642217,-0.11776126274156988,-0.33629454186333896
986,13.107011800682432,-2.228870383292378,-0.12000329631608223,-0.3828279488389853
987,13.120304916098949,-2.0577622224343743,-0.12303635834306287,-0.42114323615618643
988,13.13359803151546,-1.9193716203084321,-0.12669342727650612,-0.4500245216135945
989,13.146891146931974,-1.8195382675061,-0.13073453145476477,-0.4696394282427501
990,13.160184262348489,-1.7610522743502268,-0.13487851779126694,-0.48132481020711926
991,13.173477377765002,-1.7434949823897914,-0.13884437014362877,-0.4871442352426201
992,13.186770493181514,-1.763491414749944,-0.14239391350012656,-0.48933888688834537
993,13.200063608598027,-1.8153101881674767,-0.14536531108408032,-0.48981832763588706
994,13.213356724014542,-1.8916946602870173,-0.1476882373109761,-0.48981642768466827
995,13.226649839431056,-1.9847871441775973,-0.14937684784265223,-0.4897791184453272
996,13.23994295484757,-2.0870100734964403,-0.15050355988104078,-0.4894766788407646
997,13.253236070264082,-2.191787437368638,-0.1511624360840288,-0.48827057780494987
998,13.266529185680596,-2.2940243343311266,-0.15143363216713604,-0.4854330263705759
999,13.27982230109711,-2.390310056674263,-0.15135932800738647,-0.48042149023976644
1000,13.293115416513624,-2.4788628806794173,-0.1509374608346066,-0.4730418867307017
1001,13.306408531930137,-2.559279178761006,-0.15013381336827805,-0.46347769062354466
1002,13.319701647346651,-2.6321732074088233,-0.14890729644490427,-0.45220312012982217
1003,13.332994762763164,-2.698793074808532,-0.14723928859500923,-0.4398270058278616
1004,13.34628787817968,-2.7606789092267205,-0.14515689937740378,-0.42692505740544695
1005,13.359580993596191,-2.8194015831532195,-0.14274236574149685,-0.4139119428995036
1006,13.372874109012706,-2.8763926705269114,-0.14012566854469083,-0.4009849588344207
1007,13.38616722442922,-2.9328521816181934,-0.13746309242702856,-0.38814508132961645
1008,13.399460339845731,-2.989701942245713,-0.13490878874307607,-0.37527664726372284
1009,13.412753455262246,-3.047543291867816,-0.13258798867540794,-0.362250450523938
1010,13.42604657067876,-3.106583798796524,-0.13057909313457736,-0.34901088236061056
1011,13.439339686095272,-3.166521340254588,-0.1289083381170497,-0.3356168910754451
1012,13.452632801511786,-3.2264092064994196,-0.12755661581533617,-0.32222602715060467
1013,13.4659259169283,-3.2845586090914076,-0.12647476185964418,-0.3090339762579927
1014,13.479219032344814,-3.338548759465156,-0.12560204224797655,-0.29620032715599687
1015,13.492512147761328,-3.385399521985567,-0.12488276795004889,-0.28379790868263566
1016,13.50580526317784,-3.421919398999485,-0.12427741976993809,-0.27181503475546503
1017,13.519098378594355,-3.445186014283157,-0.1237666611691093,-0.26021963618082117
1018,13.532391494010868,-3.453067660658825,-0.12334856489534861,-0.2490680469525902
1019,13.545684609427385,-3.4446713422463575,-0.12303094342556586,-0.23861825517607071
1020,13.558977724843896,-3.4206136256226305,-0.12282167714154447,-0.2293969719058632
1021,13.57227084026041,-3.383050707490364,-0.12272023488197194,-0.22217802123010058
1022,13.585563955676925,-3.3354585818916527,-0.12271306015823301,-0.21785598707253248
1023,13.598857071093438,-3.2822060576477674,-0.12277418397968506,-0.21723578998442533
1024,13.61215018650995,-3.2280005209491303,-0.1228706455198717,-0.22079270254353575
1025,13.625443301926463,-3.17730383749785,-0.12297066446163704,-0.22847504312245864
1026,13.638736417342978,-3.1338139870651527,-0.12305167227672731,-0.23961560087122355
1027,13.65202953275949,-3.100089734784666,-0.12310562103215779,-0.2529884943497447
1028,13.665322648176003,-3.0773650743301406,-0.12314025301501921,-0.2670050210616841
1029,13.678615763592518,-3.0655633353156153,-0.1231765829217739,-0.2800000313819222
1030,13.691908879009032,-3.0634854665402798,-0.1232439709392304,-0.29053444343518453
1031,13.705201994425543,-3.0691207370787135,-0.12337441761698652,-0.2976386514694465
1032,13.71849510984206,-3.080015743619421,-0.12359719667143373,-0.30094467384671086
1033,13.731788225258573,-3.0936394777141163,-0.12393420650239763,-0.3006912654397391
1034,13.745081340675087,-3.1076947208833916,-0.1243960598541648,-0.29762083162966124
1035,13.7583744560916,-3.120343909287821,-0.12497914917814727,-0.29280778003858976
1036,13.771667571508114,-3.1303358999777644,-0.12566439064337082,-0.2874612549565285
1037,13.784960686924627,-3.137035410494223,-0.12641846609096297,-0.28273594535205765
1038,13.798253802341142,-3.140368016927413,-0.12719778365948337,-0.27957179153273165
1039,13.811546917757656,-3.1407010007457803,-0.12795426707409763,-0.2785740301098695
1040,13.82484003317417,-3.1386850693005948,-0.1286411441541479,-0.27994105707003447
1041,13.838133148590682,-3.135084227953142,-0.12921682693000458,-0.28344656711596716
1042,13.851426264007197,-3.1306201475525572,-0.12964594150948114,-0.2884805122529624
1043,13.86471937942371,-3.125852866907701,-0.1298980943799878,-0.29414818635339157
1044,13.878012494840222,-3.1211123192253374,-0.12994622199239575,-0.2994181169091285
1045,13.891305610256737,-3.1164861892409497,-0.12976670426177514,-0.3032992204581102
1046,13.90459872567325,-3.111859846549422,-0.1293426905320636,-0.30501856046267956
1047,13.917891841089764,-3.106994432261774,-0.12867064422795396,-0.30416595375603833
1048,13.931184956506277,-3.1016215913416567,-0.12776853649970893,-0.3007733267396153
1049,13.944478071922791,-3.0955308223837057,-0.12668294227680219,-0.29530702086339383
1050,13.957771187339304,-3.088629872679439,-0.12549188808741876,-0.2885698998585894
1051,13.97106430275582,-3.080968684707086,-0.12430086253230338,-0.28153319232361684
1052,13.984357418172332,-3.0727286203036557,-0.1232309107978942,-0.2751381569348623
1053,13.997650533588846,-3.064186293619396,-0.12239993288652176,-0.270116942116818
1054,14.01094364900536,-3.055663456256554,-0.1219006851556006,-0.2668759759042675
1055,14.024236764421874,-3.047472675893357,-0.1217808358173152,-0.2654655057339319
1056,14.037529879838386,-3.0398661627110184,-0.12203094928612458,-0.26563276109333955
1057,14.0508229952549,-3.0329940000343054,-0.12258487049949564,-0.2669332902818299
1058,14.064116110671414,-3.0268781201201747,-0.12333367134623138,-0.268863093882727
1059,14.077409226087926,-3.0214082437196415,-0.12415004177844435,-0.27097582018826794
1060,14.09070234150444,-3.0163641645449086,-0.12491639961558294,-0.2729613029963946
1061,14.103995456920954,-3.0114643047786527,-0.12554865672310744,-0.27467745984188946
1062,14.117288572337468,-3.006433633507575,-0.12600919183330592,-0.27614059453955003
1063,14.13058168775398,-3.001076707614013,-0.12630646454747463,-0.2774861399422971
1064,14.143874803170496,-2.9953370636355285,-0.12648316977131682,-0.27891338377216046
1065,14.157167918587009,-2.989325563584668,-0.12659806670894072,-0.28062658988047295
1066,14.170461034003525,-2.98330824004891,-0.126707577250806,-0.28278353212480245
1067,14.183754149420036,-2.977655965864101,-0.12685203196727876,-0.28546085548230327
1068,14.19704726483655,-2.9727691963420395,-0.1270490195395833,-0.2886422620981968
1069,14.210340380253063,-2.9689971439375884,-0.1272938606518769,-0.2922294459523718
1070,14.223633495669578,-2.9665706985597,-0.12756558379921884,-0.2960686323683569
1071,14.23692661108609,-2.9655634683167587,-0.12783609065437374,-0.29998101778622227
1072,14.250219726502603,-2.9658881019637002,-0.12808014232678863,-0.3037861826265823
1073,14.263512841919118,-2.9673280265180217,-0.12828396093783337,-0.30731356106820223
1074,14.27680595733563,-2.9695991020103443,-0.12845046205419985,-0.3104049763348719
1075,14.290099072752144,-2.9724311715821314,-0.12859958372648675,-0.3129165054796887
1076,14.303392188168658,-2.9756551817289294,-0.12876313334406164,-0.31472750889849854
1077,14.316685303585173,-2.9792775959410402,-0.12897506957965119,-0.31575886056356345
1078,14.329978419001684,-2.983522296773766,-0.1292597791264257,-0.315994521478442
1079,14.3432715344182,-2.9888240542821247,-0.1296219939749371,-0.31549490967393007
1080,14.356564649834713,-2.9957683166644764,-0.13004188697169436,-0.31439023498576174
1081,14.369857765251227,-3.004987355747326,-0.13047741594084875,-0.3128478593204707
1082,14.38315088066774,-3.017037249287806,-0.13087363764184398,-0.311017851749311
1083,14.396443996084257,-3.032287757736747,-0.13117639104134973,-0.30897126016907345
1084,14.409737111500768,-3.0508543369413945,-0.13134632540372443,-0.3066518925194651
1085,14.423030226917282,-3.0725890913251117,-0.13136916007936775,-0.30386177937311887
1086,14.436323342333797,-3.0971299898972777,-0.13125923132613287,-0.3002926237244853
1087,14.44961645775031,-3.123991284876434,-0.1310553819072021,-0.2956022407599967
1088,14.462909573166822,-3.1526678669774166,-0.13081049942171352,-0.2895195314457395
1089,14.476202688583337,-3.1827246141589196,-0.13057786731373894,-0.2819483710574461
1090,14.48949580399985,-3.2138481860054195,-0.1303983505716074,-0.273035192855058
1091,14.502788919416362,-3.245850869864427,-0.13029192752863689,-0.263171573083156
1092,14.516082034832875,-3.2786307079901884,-0.13025532963915723,-0.2529227182200252
1093,14.52937515024939,-3.3121053099813134,-0.1302652818726374,-0.24289999332093623
1094,14.542668265665904,-3.3461443761848506,-0.130285081387408,-0.23361904947567022
1095,14.555961381082415,-3.3805250391720585,-0.13027179143814802,-0.22539235169038124
1096,14.569254496498932,-3.4149246129007933,-0.13018220707470263,-0.21829048444173843
1097,14.582547611915444,-3.4489509075763345,-0.12997727698886924,-0.21217665987555293
1098,14.59584072733196,-3.4821970091308843,-0.1296258928554956,-0.20678848990354917
1099,14.609133842748472,-3.5143007963215935,-0.12910925779612253,-0.20182548656712124
1100,14.622426958164986,-3.5449914826827134,-0.12842638315525634,-0.19700615837032176
1101,14.6357200735815,-3.5741138328479094,-0.12760005422521176,-0.19207939575139835
1102,14.649013188998014,-3.6016303213314207,-0.12668140937433192,-0.18679851042446888
1103,14.662306304414528,-3.6276072352015607,-0.12575057871037867,-0.1808817333201842
1104,14.67559941983104,-3.6521897811874653,-0.12491097448684246,-0.17398650640697896
1105,14.688892535247554,-3.67556418678826,-0.12427597539865519,-0.16571978099673557
1106,14.702185650664068,-3.6978950062511458,-0.12394876771407404,-0.1556976359675622
1107,14.71547876608058,-3.7192185679781535,-0.12399850389566022,-0.1436565291052225
1108,14.728771881497094,-3.7392746122838854,-0.12443795611401634,-0.12960394285592036
1109,14.742064996913609,-3.7572726417412134,-0.12520872103239455,-0.1139779442012172
1110,14.75535811233012,-3.7716185882644866,-0.12617931379907157,-0.09776835701910931
1111,14.768651227746636,-3.779665233223694,-0.12715916770941438,-0.08254625341170574
1112,14.781944343163149,-3.7775822649581055,-0.12792804193999632,-0.07036142450328971
1113,14.795237458579663,-3.760450379773968,-0.12827634571067448,-0.06350016891464229
1114,14.808530573996176,-3.7226542296860186,-0.12804836969144137,-0.06413920551994985
1115,14.82182368941269,-3.6585809441584494,-0.12717849979639242,-0.07396979272085956
1116,14.835116804829203,-3.5635421814038812,-0.12571116774824445,-0.09388274417841218
1117,14.848409920245718,-3.4347590457119006,-0.12379888222466474,-0.12379091122338456
1118,14.86170303566223,-3.2722111747365443,-0.1216783719845758,-0.16262486934737397
1119,14.874996151078744,-3.079168585978423,-0.11963081132933595,-0.2084867519582276
1120,14.888289266495258,-2.862288757629672,-0.11793615061030703,-0.258908178095798
1121,14.901582381911773,-2.6312453864434104,-0.11683230535119418,-0.3111460066938034
1122,14.914875497328286,-2.3979310404313674,-0.11648727665385822,-0.362463886957802
1123,14.928168612744798,-2.1753290233679627,-0.1169874058140415,-0.4103736841937965
1124,14.941461728161311,-1.9761836518151676,-0.11833986472785059,-0.45283054751440593
1125,14.954754843577826,-1.8116246782604377,-0.1204840405530943,-0.48837907363033495
1126,14.96804795899434,-1.6899258451607198,-0.12330576307869331,-0.5162400096514126
1127,14.981341074410851,-1.6155890540886975,-0.12665016135595158,-0.5363201411016636
1128,14.994634189827368,-1.58892337607655,-0.13033199037126514,-0.5491333547395161
1129,15.00792730524388,-1.6062166049510946,-0.13414478855136608,-0.5556395642500679
1130,15.021220420660397,-1.6604821899363518,-0.1378710326261115,-0.5570316076450479
1131,15.034513536076908,-1.7426372976518294,-0.14129455959000062,-0.5545162012513916
1132,15.047806651493422,-1.8428721276894469,-0.14421494768340362,-0.5491356771065301
1133,15.061099766909935,-1.9519409680004385,-0.14646246760143258,-0.5416630222472644
1134,15.07439288232645,-2.0621501073725717,-0.14791209402084185,-0.5325807836115423
1135,15.087685997742962,-2.1679161129104094,-0.14849543713125368,-0.5221331216181313
1136,15.100979113159475,-2.265882639676191,-0.14820949123240987,-0.5104250752440368
1137,15.11427222857599,-2.3546782133683886,-0.1471204772991718,-0.49753557868448034
1138,15.127565343992504,-2.4344495531122248,-0.1453603547111346,-0.4836107695739802
1139,15.140858459409015,-2.506312618078123,-0.14311388186572102,-0.4689113414362013
1140,15.15415157482553,-2.571838722721646,-0.1405961040179472,-0.45380138164906536
1141,15.167444690242045,-2.6326526045113066,-0.13802338727545924,-0.4386837831489402
1142,15.180737805658556,-2.690176883928214,-0.1355840695413658,-0.42390423522088577
1143,15.194030921075072,-2.745520727764312,-0.13341576654126347,-0.40965646878969647
1144,15.207324036491585,-2.799483415234655,-0.13159461346771942,-0.39592172317521157
1145,15.2206171519081,-2.852627962158434,-0.13013794606253135,-0.382464548033751
1146,15.233910267324612,-2.905376864950916,-0.12901781608679605,-0.3688886469099089
1147,15.247203382741128,-2.95809011401523,-0.12817995576604702,-0.3547376167257219
1148,15.26049649815764,-3.011101237707888,-0.12756218090231664,-0.33961360647101874
1149,15.273789613574154,-3.0647055779099652,-0.1271075858463394,-0.32328576559928374
1150,15.287082728990669,-3.1191120039554594,-0.12677043434090488,-0.30576766283181644
1151,15.30037584440718,-3.174381244586842,-0.12651540532664815,-0.28735268105405004
1152,15.313668959823694,-3.2303778435330828,-0.1263129356703837,-0.26860379867861106
1153,15.326962075240209,-3.286756806144179,-0.12613421907834815,-0.25029843198821455
1154,15.34025519065672,-3.342992014611932,-0.12594882314102576,-0.2333327579481576
1155,15.353548306073234,-3.3984369307264,-0.12572624767528445,-0.21859564712937127
1156,15.366841421489749,-3.452396067779814,-0.12544082448442198,-0.2068297628305607
1157,15.380134536906262,-3.50418342123533,-0.12507794340778994,-0.19850368527682383
1158,15.393427652322776,-3.5531523634628126,-0.12463913791620818,-0.19372063658367533
1159,15.406720767739287,-3.598696622936846,-0.12414403848102164,-0.19218442543128494
1160,15.420013883155804,-3.640237111088267,-0.12362821971821926,-0.1932319999024809
1161,15.433306998572316,-3.6772176857052643,-0.12313710137908311,-0.19592745256005933
1162,15.446600113988833,-3.709130466384056,-0.12271705073490172,-0.19919902866714717
1163,15.459893229405344,-3.73557866952684,-0.12240555375088628,-0.20199304516928107
1164,15.473186344821858,-3.756367117761035,-0.12222265806392256,-0.20341877413019302
1165,15.486479460238373,-3.771594938246958,-0.12216569572882402,-0.20286469232944082
1166,15.499772575654886,-3.781718153446346,-0.1222085271504155,-0.20007433832594845
1167,15.513065691071398,-3.7875551593742474,-0.12230541293986859,-0.19517475646664753
1168,15.526358806487911,-3.790224074076349,-0.12239851508343971,-0.18865145124289928
1169,15.539651921904426,-3.791022028561416,-0.12242732568532007,-0.1812649030662203
1170,15.55294503732094,-3.7912746983738708,-0.12233817950412344,-0.17391022135378809
1171,15.566238152737451,-3.7921919563660897,-0.12209234894526469,-0.16743509193589476
1172,15.579531268153966,-3.7947579005542043,-0.12167183540998093,-0.16244792293736432
1173,15.59282438357048,-3.799662208134098,-0.12108260640034156,-0.15916079224904006
1174,15.606117498986992,-3.8072534425152704,-0.12035543165434975,-0.1573140300549947
1175,15.619410614403508,-3.81747666248598,-0.11954444860786875,-0.15621806230115684
1176,15.63270372982002,-3.8297587565256705,-0.11872313398898111,-0.15492416978200058
1177,15.645996845236535,-3.8428286009558814,-0.11797680364783711,-0.15250278982587184
1178,15.659289960653048,-3.8544983546523506,-0.11739072750201937,-0.1483727894222333
1179,15.672583076069564,-3.861472662926264,-0.11703400968781898,-0.14259799436092932
1180,15.685876191486075,-3.8592786058929254,-0.11694159951598605,-0.13605978906034844
1181,15.69916930690259,-3.842408966422831,-0.11709939369206211,-0.1304349964875726
1182,15.712462422319105,-3.8047395399457193,-0.1174389350076637,-0.12795563732778265
1183,15.725755537735616,-3.740221000244471,-0.11784729708130273,-0.1309890684578162
1184,15.73904865315213,-3.6437702771779894,-0.11819385529720407,-0.14153265027472953
1185,15.752341768568645,-3.5122170235366945,-0.11836971950550827,-0.16074604970059442
1186,15.765634883985156,-3.345121481889354,-0.11832983789561208,-0.18863612820264056
1187,15.77892799940167,-3.14528726461708,-0.118124677995189,-0.22396882552194
1188,15.792221114818185,-2.9188466716588573,-0.11790958042811266,-0.26442620816491097
1189,15.805514230234698,-2.674881121886307,-0.11792536657835499,-0.3069735237064773
1190,15.818807345651212,-2.4246305891493813,-0.11845196706613362,-0.34836172626049094
1191,15.832100461067723,-2.180421571336572,-0.11974518578400233,-0.3856673856194474
1192,15.84539357648424,-1.9544891970498957,-0.12197259469656833,-0.41676319439811443
1193,15.858686691900752,-1.7578783129952853,-0.12516597359502654,-0.44062086287739866
1194,15.871979807317269,-1.599577192417927,-0.12920385905317755,-0.4573786062569524
1195,15.88527292273378,-1.4859689322859393,-0.13382943598971977,-0.46815718771467674
1196,15.898566038150294,-1.4205972452697402,-0.13869866712155837,-0.4746709650713199
1197,15.911859153566809,-1.404168872276552,-0.14344476886126412,-0.4787352680056803
1198,15.925152268983322,-1.434689731948321,-0.1477411553350297,-0.48180030306886173
1199,15.938445384399834,-1.5076689931231109,-0.15134713556605417,-0.4846335266408895
1200,15.951738499816347,-1.6163997683167854,-0.1541276836607495,-0.4872273858966379
1201,15.965031615232862,-1.7523857813116066,-0.15604732491064494,-0.48894026861913087
1202,15.978324730649376,-1.9059846387388975,-0.1571452268130981,-0.4888079059096454
1203,15.991617846065887,-2.0672710938574306,-0.1575019780051523,-0.4859150508663227
1204,16.004910961482402,-2.2270216825444407,-0.15720821718727912,-0.4797093306652204
1205,16.018204076898915,-2.377640690121432,-0.15634249541372972,-0.4701707768653253
1206,16.03149719231543,-2.513830502211491,-0.15496203016402924,-0.4578060170729874
1207,16.044790307731944,-2.632866582594754,-0.15310634850848745,-0.4434928789009066
1208,16.058083423148457,-2.7344429551827245,-0.1508106617200244,-0.42824041529183315
1209,16.07137653856497,-2.8201647578411855,-0.14812344865434104,-0.4129424099822731
1210,16.084669653981486,-2.892841394189623,-0.14512161712495203,-0.3981910034903304
1211,16.097962769398,-2.9557573475290972,-0.1419173001984049,-0.38418993755991493
1212,16.11125588481451,-3.0120695705782943,-0.13865296038865912,-0.3707752173197421
1213,16.124549000231024,-3.0644176530452008,-0.13548535612672136,-0.3575242178687755
1214,16.13784211564754,-3.114759888902682,-0.13256272030081503,-0.34391761265898846
1215,16.151135231064053,-3.1643884692260364,-0.1300017704639123,-0.32951249312472514
1216,16.164428346480566,-3.214046327221388,-0.1278710822649391,-0.3140873145670388
1217,16.17772146189708,-3.26407019956251,-0.12618504536419095,-0.29772741227149563
1218,16.19101457731359,-3.3145101952281673,-0.12490905919119671,-0.28083294744607734
1219,16.204307692730108,-3.365209595806453,-0.12397317481233608,-0.26404883909091875
1220,16.21760080814662,-3.415854922747453,-0.12328925804172823,-0.24813569698745086
1221,16.230893923563134,-3.4660174645229316,-0.12276657219883326,-0.2338159906286119
1222,16.244187038979646,-3.5152032950881544,-0.12232232621237683,-0.22163453191646904
1223,16.257480154396163,-3.5629150003713677,-0.12188639799309153,-0.21186483483312
1224,16.270773269812675,-3.60871337668028,-0.12140196580551861,-0.20447673833947638
1225,16.28406638522919,-3.6522594276177145,-0.12082510797425518,-0.1991629403306993
1226,16.2973595006457,-3.6933205339214927,-0.12012605223952055,-0.1954093815267543
1227,16.310652616062217,-3.731738243746206,-0.11929293896230546,-0.19258977360763194
1228,16.32394573147873,-3.7673719597771247,-0.11833664488437527,-0.19006662482338316
1229,16.337238846895243,-3.800044459435035,-0.11729356539523494,-0.18728568455851247
1230,16.350531962311756,-3.829516010904428,-0.11622313223508161,-0.18385376128521086
1231,16.363825077728272,-3.855503383738915,-0.11519842375049154,-0.17958999189170527
1232,16.377118193144785,-3.8777427097276322,-0.11429092960668227,-0.17453972735957726
1233,16.390411308561298,-3.896078069668066,-0.11355327288595946,-0.16894194312308183
1234,16.40370442397781,-3.910547850624795,-0.11300530590913241,-0.1631485254578053
1235,16.416997539394323,-3.921442136355039,-0.11262870852675524,-0.15750698190482262
1236,16.43029065481084,-3.9293151847927517,-0.11237295291762153,-0.15223317118049556
1237,16.443583770227352,-3.9349510703072976,-0.11217190722738317,-0.14731102758637116
1238,16.456876885643865,-3.9392900321355686,-0.11196657941506856,-0.14245599873828493
1239,16.470170001060378,-3.9433234358527263,-0.11172683341994386,-0.1371656313638141
1240,16.483463116476894,-3.947958195619489,-0.1114643743840753,-0.1308568643845844
1241,16.496756231893407,-3.9538440164428605,-0.11123134395234571,-0.12306183398499582
1242,16.51004934730992,-3.9611570330209287,-0.11110311749994228,-0.1136315755590301
1243,16.523342462726433,-3.969345864073954,-0.11114915203093367,-0.10288872076965389
1244,16.53663557814295,-3.9768689973384825,-0.11140029206696261,-0.0916807897264749
1245,16.549928693559462,-3.9809780259371728,-0.11182318856109967,-0.0813126146385694
1246,16.563221808975975,-3.9776185941453797,-0.11231150786810529,-0.07337064091917644
1247,16.576514924392487,-3.9615200256575758,-0.11269951239031524,-0.06948120552993178
1248,16.589808039809004,-3.926521242912971,-0.11279745090260064,-0.07105968755298799
1249,16.603101155225517,-3.8661392804482846,-0.1124416946338404,-0.07910411896983076
1250,16.61639427064203,-3.7743397545493145,-0.11154756133252199,-0.09406846298936038
1251,16.629687386058542,-3.6464300491726593,-0.11015085684195171,-0.11582492300250773
1252,16.642980501475055,-3.47997302779791,-0.10842612368314265,-0.1437009086301388
1253,16.65627361689157,-3.275607930766954,-0.10667503934021237,-0.17656339792129208
1254,16.669566732308084,-3.037655247218252,-0.10528579005208825,-0.21292584460398592
1255,16.682859847724597,-2.774369132751399,-0.10467135246764964,-0.2510674201229957
1256,16.69615296314111,-2.497697161275076,-0.10519946974997046,-0.28917062391580356
1257,16.709446078557626,-2.222441251187732,-0.10712865063678279,-0.3254881388934794
1258,16.72273919397414,-1.9648099698539692,-0.11056273583849348,-0.3585363350308694
1259,16.73603230939065,-1.7405057197928353,-0.11543218516571553,-0.3872863651305281
1260,16.749325424807164,-1.5626544694455575,-0.12150434871113062,-0.4113005649416365
1261,16.76261854022368,-1.4399915422162344,-0.12841895286381932,-0.43075958713383183
1262,16.775911655640193,-1.3757091482573711,-0.135740337377165,-0.44635193955539226
1263,16.789204771056706,-1.3672387713764225,-0.14301580749091827,-0.459043966429557
1264,16.80249788647322,-1.4070220218216738,-0.14983009765986288,-0.46979446703868744
1265,16.815791001889732,-1.484084623528488,-0.1558485436842424,-0.4793025100120946
1266,16.829084117306248,-1.5860405902124632,-0.16084472180148812,-0.4878672824152376
1267,16.84237723272276,-1.7010702516225078,-0.16471099217658527,-0.4953975114596099
1268,16.855670348139274,-1.8194576192393614,-0.16745239278687535,-0.5015516143030885
1269,16.868963463555787,-1.9344220600527686,-0.16916604368224517,-0.5059421038204232
1270,16.882256578972303,-2.0421853674321775,-0.17000993390565805,-0.508319300499044
1271,16.895549694388816,-2.141412563868697,-0.17016653420873526,-0.5086668710641186
1272,16.90884280980533,-2.2322979710353725,-0.16980766344552575,-0.5071849798930481
1273,16.92213592522184,-2.3156099225843914,-0.16906699619797033,-0.5041847399871217
1274,16.935429040638358,-2.3919612798066137,-0.168025296057174,-0.49994938946928635
1275,16.94872215605487,-2.4614638075128235,-0.16671091859305295,-0.4946224897484655
1276,16.962015271471383,-2.523787891252563,-0.16511468686668904,-0.48816395802541074
1277,16.975308386887896,-2.578522219862597,-0.1632146004719593,-0.4803829796110115
1278,16.988601502304412,-2.6256443444895954,-0.16100300745403237,-0.4710274045688897
1279,17.001894617720925,-2.665895768059265,-0.15850790426189607,-0.4598929549892492
1280,17.015187733137438,-2.700909024115556,-0.15580158099327804,-0.44691605997106254
1281,17.02848084855395,-2.733038606610588,-0.15299368723675263,-0.43222743815437453
1282,17.041773963970464,-2.764960844007865,-0.1502107531695522,-0.4161607397289009
1283,17.05506707938698,-2.7991840153070124,-0.14756847252754823,-0.39922273262072466
1284,17.068360194803493,-2.8376221153232835,-0.14514510041647266,-0.38203495142745136
1285,17.081653310220005,-2.881338698047243,-0.14296359942221368,-0.36525468555600227
1286,17.09494642563652,-2.9304921921876406,-0.14098728068685182,-0.34948239777944723
1287,17.108239541053035,-2.98444783896221,-0.13912986300785218,-0.33516703271015236
1288,17.121532656469547,-3.0419873568997944,-0.1372772862269241,-0.32252762163737275
1289,17.13482577188606,-3.1015485853250238,-0.13531600573314526,-0.3115123782316656
1290,17.148118887302573,-3.1614513715555166,-0.13316119943636212,-0.30181023266618084
1291,17.16141200271909,-3.2200948944480903,-0.13077844803857983,-0.29291574528247155
1292,17.174705118135602,-3.276130088300438,-0.12819396294154536,-0.28423310652541534
1293,17.187998233552115,-3.3286113892140294,-0.12549107702903997,-0.275195448535929
1294,17.201291348968628,-3.377117697070181,-0.12279393586070032,-0.2653748974664305
1295,17.214584464385144,-3.4218151593275543,-0.1202423455428093,-0.2545646532745578
1296,17.227877579801657,-3.4634283513211113,-0.11796374012407802,-0.24282247763341896
1297,17.24117069521817,-3.5030996229597346,-0.11604868856473295,-0.23047182654745935
1298,17.254463810634682,-3.5421459063770553,-0.11453520912709438,-0.21806147922311886
1299,17.267756926051195,-3.581756607148333,-0.11340480789054304,-0.2062877634354617
1300,17.28105004146771,-3.6227016757725856,-0.11259029479130553,-0.19588677926639533
1301,17.294343156884224,-3.6651255896990844,-0.11199277333168092,-0.1875083994758217
1302,17.307636272300737,-3.708487056555796,-0.11150332204944044,-0.1815893800984974
1303,17.32092938771725,-3.751668673528026,-0.11102413576418732,-0.17824842565708982
1304,17.334222503133766,-3.793234642108349,-0.11048438283760958,-0.17722886561053733
1305,17.34751561855028,-3.831771701899916,-0.10984764315109874,-0.17791135626155113
1306,17.360808733966792,-3.8662231642179345,-0.10911017691635459,-0.17940728471864903
1307,17.374101849383305,-3.8961276699774063,-0.10829186602070458,-0.18072364138146016
1308,17.38739496479982,-3.9217030248932896,-0.10742372319296807,-0.18096638693602274
1309,17.400688080216334,-3.9437616873483115,-0.10653665325492892,-0.17953005867084157
1310,17.413981195632847,-3.9634931292976257,-0.10565528438861649,-0.17621644282894752
1311,17.42727431104936,-3.982183764801274,-0.10479839500202458,-0.17124117748154424
1312,17.440567426465876,-4.000955802771672,-0.10398461138618302,-0.16512204281012854
1313,17.45386054188239,-4.020588344098927,-0.10323979768738707,-0.15848413578214698
1314,17.4671536572989,-4.0414436022819915,-0.10260178882557301,-0.15184768106916058
1315,17.480446772715414,-4.063473651903763,-0.10211903837560468,-0.14547057702875385
1316,17.493739888131927,-4.086247451029386,-0.10184188916323605,-0.13929778916233418
1317,17.507033003548443,-4.1089286722330565,-0.101807698073465,-0.13303263332886456
1318,17.520326118964956,-4.130156812896236,-0.10202321194056234,-0.12630553766207855
1319,17.53361923438147,-4.147830592204764,-0.10244898586657984,-0.11888709538891314
1320,17.54691234979798,-4.158848595949389,-0.10299113324193007,-0.1108814761115247
1321,17.560205465214498,-4.1589084136085175,-0.10350519560948548,-0.10284464296270927
1322,17.57349858063101,-4.142484644229237,-0.10381515342853627,-0.09579511251530622
1323,17.586791696047523,-4.103087771552816,-0.10374731824163339,-0.09111482681454695
1324,17.600084811464036,-4.033851057901958,-0.10317433969862923,-0.09036366016596944
1325,17.613377926880553,-3.928414560268479,-0.10206003447053653,-0.09504479080211074
1326,17.626671042297065,-3.781995467456862,-0.10049307640700847,-0.10635811767035899
1327,17.639964157713578,-3.592473433824589,-0.09869840906317272,-0.12497198479204034
1328,17.65325727313009,-3.3612918364625792,-0.09701991490172981,-0.1508401872814345
1329,17.666550388546604,-3.0939842074862214,-0.09587511615485299,-0.1830965288718554
1330,17.67984350396312,-2.800177225489716,-0.0956901322657153,-0.22006627674069335
1331,17.693136619379633,-2.4929958264559233,-0.09682845422599408,-0.25942775408836277
1332,17.706429734796146,-2.187900217405253,-0.0995289058905298,-0.29852735225361865
1333,17.71972285021266,-1.9011066934959682,-0.10386615249598793,-0.3348025022562228
1334,17.733015965629175,-1.6478524881654946,-0.10974184872675488,-0.3662205166443096
1335,17.746309081045688,-1.4408145190259491,-0.11690717682818048,-0.39162112703912655
1336,17.7596021964622,-1.2889502391798953,-0.12500986279054677,-0.4108696857897975
1337,17.772895311878713,-1.1969031274995467,-0.13365289613727793,-0.42478018259057343
1338,17.78618842729523,-1.1649572130099994,-0.14244996899752885,-0.43483213234152124
1339,17.799481542711742,-1.1894034782727694,-0.15106486164114935,-0.44276001179675945
1340,17.812774658128255,-1.2631429329034267,-0.15922790772170387,-0.4501224540288262
1341,17.826067773544768,-1.3763970873831592,-0.16673033102128113,-0.45795596389510895
1342,17.839360888961284,-1.5174851748511318,-0.1734042177799391,-0.4665889145417484
1343,17.852654004377797,-1.6737012029905085,-0.17909998171115582,-0.4756462115855792
1344,17.86594711979431,-1.8323385280067943,-0.18367305182868887,-0.4842260116512564
1345,17.879240235210823,-1.9818544784191408,-0.1869871596311735,-0.49118976436370115
1346,17.892533350627335,-2.11306936415369,-0.18893454138235827,-0.49548497382249107
1347,17.90582646604385,-2.2202030200159033,-0.18946623194650014,-0.4964201322465261
1348,17.919119581460365,-2.3015161076722834,-0.1886211022436175,-0.4938305421307466
1349,17.932412696876877,-2.3593671157834533,-0.1865419841793284,-0.4881048703618761
1350,17.94570581229339,-2.3996116161325416,-0.1834710433838252,-0.4800765137513202
1351,17.958998927709906,-2.4304235967503236,-0.17972292189185618,-0.4708136308905211
1352,17.97229204312642,-2.4607616141398894,-0.17564076344043067,-0.4613616361485516
1353,17.985585158542932,-2.498788968571203,-0.1715448958947425,-0.45249902461841063
1354,17.998878273959445,-2.55055941809985,-0.16768543984008039,-0.44456111640529294
1355,18.01217138937596,-2.6192008404836304,-0.16420849959435083,-0.4373688659027385
1356,18.025464504792478,-2.7047006901067787,-0.16114200243893334,-0.4302756201398636
1357,18.038757620208987,-2.8042638661338537,-0.15840310993577886,-0.4223190235481415
1358,18.0520507356255,-2.913111695471371,-0.15582535774051287,-0.4124434629983864
1359,18.065343851042016,-3.025534507679184,-0.15320048837542546,-0.3997448240400448
1360,18.07863696645853,-3.135994406720527,-0.15032724207202228,-0.3836863259792219
1361,18.09193008187504,-3.2400861208087317,-0.14705741212220588,-0.36424171253623505
1362,18.105223197291554,-3.335193579829926,-0.143329032817107,-0.34193749489868286
1363,18.118516312708067,-3.4207293130074574,-0.13917855260100548,-0.3177854377872236
1364,18.131809428124583,-3.497918672998327,-0.13472853478034963,-0.2931168041295853
1365,18.145102543541096,-3.5691889976719438,-0.13015391505984145,-0.2693491156950551
1366,18.15839565895761,-3.637324523782934,-0.12563609093793499,-0.24773244672090677
1367,18.17168877437412,-3.704615409919188,-0.12131777309297727,-0.2291317356780782
1368,18.18498188979064,-3.7722309354131647,-0.11727111438021412,-0.21389876010531067
1369,18.19827500520715,-3.839974719076601,-0.11348731805258319,-0.20186829060692213
1370,18.211568120623664,-3.9064583306173164,-0.1098893773803375,-0.19247917491210648
1371,18.224861236040176,-3.969604734643893,-0.10636307190134701,-0.1849817643264217
1372,18.238154351456693,-4.0273085295346895,-0.10279673319375976,-0.17866247947504016
1373,18.25144746687321,-4.078058852660342,-0.09911862356778442,-0.1730083049236445
1374,18.26474058228972,-4.121369245468031,-0.09532218311960798,-0.16775522455959915
1375,18.27803369770623,-4.157932820618728,-0.09147329949416541,-0.16280977794290918
1376,18.291326813122748,-4.1894997002176115,-0.08769895400291053,-0.15808534067368443
1377,18.30461992853926,-4.218531210810871,-0.08416152327530757,-0.15333250609513252
1378,18.317913043955773,-4.247709832215155,-0.08102615262369016,-0.14804864638833193
1379,18.33120615937229,-4.279379666129233,-0.07842914542963582,-0.14152133961409427
1380,18.3444992747888,-4.314975154811936,-0.07645353547981262,-0.13300636546146682
1381,18.357792390205315,-4.354483961362336,-0.07511517563350058,-0.12198679013671875
1382,18.371085505621828,-4.395993640504606,-0.0743602205737935,-0.10842778922086128
1383,18.38437862103834,-4.435388990044837,-0.07407357691646238,-0.09294319495948868
1384,18.397671736454853,-4.4662857592551495,-0.07409750474504652,-0.07682003325087054
1385,18.41096485187137,-4.480291001628115,-0.07425918498384843,-0.06189139406801609
1386,18.424257967287883,-4.467657726246738,-0.07440490382181947,-0.05028828008099906
1387,18.437551082704395,-4.4183456333742415,-0.07443643964457237,-0.044125468619342426
1388,18.450844198120908,-4.32341469840663,-0.07434302757347172,-0.04518199177083338
1389,18.464137313537424,-4.176579830675003,-0.07422121388122552,-0.054628489609309404
1390,18.477430428953937,-3.9756682383720054,-0.07427615019209564,-0.07283938354078738
1391,18.49072354437045,-3.7236756607395427,-0.07480169133194126,-0.09931368345734594
1392,18.504016659786963,-3.4291374231432576,-0.07614204041653441,-0.13271585510418374
1393,18.51730977520348,-3.1056263490462537,-0.07864260891822877,-0.17103493727563657
1394,18.530602890619992,-2.7703542898640388,-0.08260016356536036,-0.21184276635864027
1395,18.543896006036505,-2.4420581185948755,-0.08822127642408915,-0.2526116053358867
1396,18.557189121453018,-2.138544432736879,-0.09559438297628753,-0.2910347648981152
1397,18.57048223686953,-1.8743881959389574,-0.1046764898006404,-0.3252907369161656
1398,18.583775352286047,-1.6592757167356613,-0.1152928319869428,-0.354207052183288
1399,18.59706846770256,-1.497332600520198,-0.12714728082484827,-0.377309605759264
1400,18.610361583119072,-1.3875162865225155,-0.1398421239478485,-0.394773309570354
1401,18.623654698535585,-1.3248637140187376,-0.15290639179372423,-0.4073071571373564
1402,18.6369478139521,-1.302170563281879,-0.16583127216325902,-0.41600590978547647
1403,18.65024092936861,-1.3116168020372545,-0.17810966732244465,-0.42218729647507813
1404,18.663534044785127,-1.3459580350268658,-0.1892756321085885,-0.42721974164574755
1405,18.67682716020164,-1.3991168261549927,-0.19893906110406104,-0.4323414201790188
1406,18.69012027561816,-1.4662350096211771,-0.20681164057882045,-0.4384797633651392
1407,18.70341339103467,-1.5433981908965064,-0.2127213973175739,-0.44609614894285915
1408,18.71670650645118,-1.627277866081741,-0.21661486408754163,-0.4550933526766583
1409,18.72999962186769,-1.714873633868318,-0.2185477671511735,-0.4648236810726216
1410,18.743292737284207,-1.803431586397706,-0.21866688794653424,-0.47421867713448485
1411,18.756585852700724,-1.8905195844321545,-0.21718676554436225,-0.482029245923296
1412,18.76987896811724,-1.974187176446954,-0.21436475032443364,-0.4871272267394301
1413,18.78317208353375,-2.053130891499272,-0.21047683320826602,-0.48878963419283994
1414,18.796465198950266,-2.1268086933286705,-0.20579554532668512,-0.48687935383988834
1415,18.80975831436678,-2.195478350242902,-0.20057085629973329,-0.48185988002521596
1416,18.82305142978329,-2.2601560865219255,-0.1950153706263907,-0.4746333802740144
1417,18.836344545199804,-2.3224989727091097,-0.1892954108419711,-0.46625299057574165
1418,18.84963766061632,-2.3846149852711935,-0.18352900421976007,-0.45760576153113885
1419,18.862930776032837,-2.448811882048814,-0.17779038643811154,-0.44917146970223115
1420,18.876223891449342,-2.517315372625219,-0.17211915101743558,-0.4409309331878858
1421,18.88951700686586,-2.592007497871509,-0.16653133583946098,-0.4324405569504656
1422,18.90281012228237,-2.6742375771013,-0.16102973902409612,-0.42303259031995705
1423,18.916103237698888,-2.7647308695952133,-0.15561141918769258,-0.41206501598955314
1424,18.9293963531154,-2.8635781832265113,-0.15027152000059107,-0.39914055960623906
1425,18.942689468531917,-2.9702621999165872,-0.1450041520706073,-0.3842363036857108
1426,18.955982583948423,-3.083683364290098,-0.1398025912965727,-0.367720527441862
1427,18.96927569936494,-3.202183121178436,-0.13466158494254502,-0.3502677278466594
1428,18.98256881478145,-3.32359701104644,-0.1295833309311325,-0.33270697375315583
1429,18.995861930197968,-3.445378128073475,-0.12458597264554787,-0.3158492130085947
1430,19.00915504561448,-3.564807436960196,-0.11971070597226245,-0.30033664102351365
1431,19.022448161030997,-3.679268097754507,-0.11502265025335404,-0.2865449744911675
1432,19.03574127644751,-3.786529533452048,-0.1106023632032107,-0.27455181520660954
1433,19.049034391864023,-3.8849776024450096,-0.10652855778830939,-0.2641660022432319
1434,19.062327507280536,-3.9737404044617994,-0.10285640079319817,-0.25499858297814004
1435,19.07562062269705,-4.052687257945379,-0.09959802498471551,-0.24654943025691528
1436,19.088913738113565,-4.1223116971011375,-0.09671181411368028,-0.23828603145131713
1437,19.10220685353008,-4.183538747261923,-0.09410487267463735,-0.2297010079289704
