,time,Red,Green,Blue
0,0.0,-1.7104164842199856,-0.19290143059555076,-0.2932337255523835
1,0.0132930274477946,-1.6887798262996339,-0.19105754872537128,-0.29188595834297515
2,0.0265860548955893,-1.6679718293309906,-0.189177061827585,-0.29128415184682926
3,0.0398790823433839,-1.64859040459009,-0.18728905186457023,-0.29206635776779555
4,0.0531721097911786,-1.630948865431438,-0.18549427433741464,-0.2946000280558002
5,0.0664651372389732,-1.6150268568789898,-0.1839703162591637,-0.29895793413720895
6,0.0797581646867679,-1.6005077565990393,-0.18294751561262193,-0.3049723942897251
7,0.0930511921345625,-1.5868838271243586,-0.18265873789336654,-0.31233939497983765
8,0.1063442195823572,-1.5735928773217869,-0.1832753892763506,-0.3207300967081643
9,0.1196372470301518,-1.5601470697963002,-0.18484897148538743,-0.32987056249661484
10,0.1329302744779465,-1.5462232416967767,-0.18727862505435378,-0.3395689234551279
11,0.1462233019257411,-1.5316979773014041,-0.1903185844837069,-0.3496940243903206
12,0.1595163293735358,-1.5166241331623858,-0.19362658431948573,-0.36012968397581313
13,0.1728093568213305,-1.5011570988545566,-0.19683969927144823,-0.37073526070999463
14,0.1861023842691251,-1.4854496351692308,-0.19965403918721314,-0.3813341228527498
15,0.1993954117169198,-1.4695430080141396,-0.20188361021399476,-0.39173257571588277
16,0.2126884391647144,-1.4532858124039694,-0.20348184309374026,-0.4017533698589894
17,0.2259814666125091,-1.436306638613974,-0.2045229660867895,-0.4112600058792398
18,0.2392744940603037,-1.4180522753886131,-0.20515374271651207,-0.4201547345699095
19,0.2525675215080984,-1.3978834766724249,-0.20553410321925888,-0.42835052273755214
20,0.265860548955893,-1.3752016572205326,-0.2057856979184443,-0.435735525042796
21,0.2791535764036877,-1.3495682418416324,-0.20596152001302032,-0.44215739461810527
22,0.2924466038514823,-1.3207784101929079,-0.20604093045826005,-0.44744877116259674
23,0.305739631299277,-1.2888649716886746,-0.2059465704256112,-0.45149708984288195
24,0.3190326587470717,-1.25403424302762,-0.20557533191477292,-0.4543403373146718
25,0.3323256861948663,-1.216566703273646,-0.20483513936392794,-0.4562556493370934
26,0.345618713642661,-1.176739391209238,-0.20368130086717826,-0.45780556773241826
27,0.3589117410904556,-1.1348334265986242,-0.20214850113141378,-0.45981653437754333
28,0.3722047685382503,-1.0912728379356433,-0.20037563385344337,-0.4632802353565157
29,0.3854977959860449,-1.0469016973705536,-0.19862037208132263,-0.46918497393176395
30,0.3987908234338396,-1.0033540261629363,-0.19725947675187666,-0.4782989866540905
31,0.4120838508816343,-0.9634189645195359,-0.19677052826405073,-0.4909414478924988
32,0.4253768783294289,-0.9312691143499682,-0.19769188426655257,-0.5067903956047569
33,0.4386699057772236,-0.9124184061224733,-0.20056040192001437,-0.5247859458260086
34,0.4519629332250182,-0.9133160265386672,-0.2058304119537316,-0.5431827666121462
35,0.4652559606728129,-0.9405616881703651,-0.21378196384482032,-0.5597787477620574
36,0.4785489881206075,-0.9998286958446253,-0.2244309214167664,-0.5722967928581956
37,0.4918420155684022,-1.0946794240462177,-0.23745750776188188,-0.578837901276511
38,0.5051350430161968,-1.2255243615449851,-0.25217230076722275,-0.578281765698885
39,0.5184280704639915,-1.3889857174184292,-0.2675375388072548,-0.5705101508235807
40,0.5317210979117861,-1.577866209758443,-0.2822548532797327,-0.5563764689970505
41,0.5450141253595808,-1.7817995752063571,-0.2949176852524102,-0.5374274544543949
42,0.5583071528073754,-1.988500138957364,-0.3042097381086552,-0.5154666474491177
43,0.5716001802551701,-2.1853777252291744,-0.30911424734095866,-0.4920984209048643
44,0.5848932077029647,-2.3611866429126436,-0.30908841622639976,-0.4683858694450662
45,0.5981862351507594,-2.5073666531283423,-0.3041586661834045,-0.44470366804059247
46,0.6114792625985541,-2.6188173832576114,-0.29490808406220076,-0.42079628113955814
47,0.6247722900463487,-2.694001796175829,-0.28235496848566505,-0.395993611776142
48,0.6380653174941434,-2.7344502125158368,-0.26775230552783313,-0.36950774740663034
49,0.651358344941938,-2.7438775890309866,-0.25236090310355974,-0.3407345897824334
50,0.6646513723897327,-2.727190731896079,-0.2372543882496912,-0.30949962764424316
51,0.6779443998375273,-2.6896357755398594,-0.2231999113463144,-0.2762049657731915
52,0.691237427285322,-2.636238617122552,-0.2106303717092516,-0.2418507384809453
53,0.7045304547331166,-2.5715634458780485,-0.199694012423063,-0.20792224040591067
54,0.7178234821809113,-2.499704357730167,-0.19034684012422767,-0.17615916926666608
55,0.731116509628706,-2.424368585093252,-0.18244865575315639,-0.1482528740488262
56,0.7444095370765006,-2.348919704690138,-0.17583339443041843,-0.1255408729519913
57,0.7577025645242953,-2.2763105718405545,-0.17034224736186138,-0.10877303961786268
58,0.7709955919720899,-2.2089147502179363,-0.16582527394351088,-0.09800575871554476
59,0.7842886194198846,-2.1483256937994155,-0.16212766578217233,-0.09264486054496117
60,0.7975816468676792,-2.09521307735204,-0.1590784068080623,-0.0916184806243317
61,0.8108746743154739,-2.0493052261844382,-0.1564935188976934,-0.09363058702456996
62,0.8241677017632686,-2.0095221937050263,-0.15419714198759962,-0.09743254575631323
63,0.8374607292110632,-1.974237372718103,-0.15205516294376742,-0.10205403612185142
64,0.8507537566588579,-1.9416124050044894,-0.15001052646830693,-0.10695067989063606
65,0.8640467841066525,-1.90993601727033,-0.14810766904383846,-0.1120470481375199
66,0.8773398115544472,-1.8778998920126218,-0.1464954158200512,-0.11767502649993115
67,0.8906328390022418,-1.844759189802199,-0.145402376454073,-0.12442639226523884
68,0.9039258664500364,-1.8103487293109048,-0.1450855899297542,-0.13295401131870302
69,0.9172188938978312,-1.7749559571223275,-0.1457609976639431,-0.14376684700506034
70,0.9305119213456258,-1.7390847907247746,-0.1475316644903392,-0.15706690541188867
71,0.9438049487934204,-1.703172987917793,-0.15033399077145218,-0.17266798796636798
72,0.9570979762412152,-1.6673410169437253,-0.15392080839257052,-0.1900160939108629
73,0.9703910036890098,-1.63124570777585,-0.15789203042005423,-0.20830384240801142
74,0.9836840311368044,-1.5940860003878239,-0.16177000313088918,-0.2266449451750906
75,0.9969770585845992,-1.5547665460955018,-0.16510219675242235,-0.24425894573318044
76,1.0102700860323937,-1.5121794282160983,-0.16756380205468877,-0.26061702149385
77,1.0235631134801884,-1.4655291308868827,-0.16903134676097004,-0.2755159411130968
78,1.036856140927983,-1.4146126033360182,-0.16960656481344374,-0.28907195699147875
79,1.0501491683757775,-1.3599783794641291,-0.16958465459489233,-0.30164903237278173
80,1.0634421958235722,-1.3029203789309072,-0.16937739294186485,-0.3137484772352406
81,1.076735223271367,-1.2453018701983127,-0.16941368137340573,-0.3258885762840191
82,1.0900282507191617,-1.1892424306410847,-0.17004430022537192,-0.3384976598906421
83,1.1033212781669564,-1.1367292974342043,-0.17147346461863358,-0.3518377156530517
84,1.1166143056147508,-1.0892316831018476,-0.17372980992647952,-0.365970283640758
85,1.1299073330625455,-1.047400952097394,-0.17667794573499251,-0.3807708901904862
86,1.1432003605103402,-1.0109295426381413,-0.18006264936390579,-0.39599077531804755
87,1.156493387958135,-0.9786169144701241,-0.18357315444929134,-0.4113547516055485
88,1.1697864154059294,-0.9486542709840091,-0.18691452839857253,-0.42667319115574354
89,1.183079442853724,-0.919097193321944,-0.18987502689083433,-0.44193724815009555
90,1.1963724703015188,-0.8884543426904866,-0.1923806599313714,-0.45736326865501536
91,1.2096654977493135,-0.8562888105565931,-0.19453000630247144,-0.4733587892290112
92,1.2229585251971082,-0.8237129894751314,-0.19660362867352893,-0.4904005797815887
93,1.2362515526449027,-0.7936621212288445,-0.1990439069158241,-0.5088424712900655
94,1.2495445800926974,-0.7708568855880289,-0.20240342425132526,-0.528699540648578
95,1.262837607540492,-0.7614091518009606,-0.20726369771692074,-0.5494746064773061
96,1.2761306349882868,-0.7720826908227572,-0.2141311462963064,-0.5700928593477678
97,1.2894236624360813,-0.8092864294747073,-0.22332326101377914,-0.5889863828509628
98,1.302716689883876,-0.8779439326856345,-0.23486376849609497,-0.6043269480595809
99,1.3160097173316707,-0.9804367815944203,-0.24840926213522577,-0.6143567219284816
100,1.3293027447794654,-1.1158431446289294,-0.26322911493204976,-0.6177311731251314
101,1.34259577222726,-1.2796668568625233,-0.2782538152931578,-0.6137816096639552
102,1.3558887996750546,-1.4641674113761265,-0.29219414319246223,-0.6026298159839877
103,1.3691818271228493,-1.6592692293516764,-0.3037171798284719,-0.585133433736262
104,1.382474854570644,-1.853884711477506,-0.3116494199099144,-0.5626888354400716
105,1.3957678820184387,-2.0373773897600684,-0.31516716934245276,-0.5369508447968803
106,1.4090609094662332,-2.200858168027933,-0.3139335734537197,-0.5095382348387358
107,1.422353936914028,-2.3380617164960196,-0.3081510844254821,-0.4817840972657422
108,1.4356469643618226,-2.445672077802291,-0.29851617415675413,-0.4545707336717494
109,1.4489399918096173,-2.523114547937311,-0.2860854958319604,-0.4282688920693167
110,1.462233019257412,-2.571958389170499,-0.2720838455859563,-0.4027849641540925
111,1.4755260467052065,-2.595146806425273,-0.2576982300536772,-0.3777054488831215
112,1.4888190741530012,-2.5962720089233633,-0.24390454887049506,-0.35251177280612606
113,1.502112101600796,-2.5790514613659994,-0.23136257492443144,-0.32682010490904706
114,1.5154051290485906,-2.5470630661448728,-0.22039419347912612,-0.3005864095249049
115,1.528698156496385,-2.5036989264101175,-0.21103606335510353,-0.27421692195769604
116,1.5419911839441798,-2.452233248130688,-0.20313886555673413,-0.24854539450336266
117,1.5552842113919745,-2.3958868996492413,-0.196476870262086,-0.22467763961554912
118,1.5685772388397692,-2.337803938325994,-0.1908352789708334,-0.20374717081191915
119,1.581870266287564,-2.280912349230728,-0.18605595053426696,-0.1866550424559766
120,1.5951632937353584,-2.2276970040973967,-0.18203910936972886,-0.17386985364856167
121,1.608456321183153,-2.179949772412421,-0.17871336933167178,-0.16534015137523655
122,1.6217493486309478,-2.138573699706076,-0.17599455033813224,-0.1605328158567621
123,1.6350423760787425,-2.103507690967305,-0.17375398263810243,-0.15857399506004657
124,1.6483354035265372,-2.0738110170222286,-0.17181076140184337,-0.15844654498422456
125,1.6616284309743317,-2.047909312226994,-0.16995276565358697,-0.15919352059830216
126,1.6749214584221264,-2.023962391021628,-0.1679813696606682,-0.16008646014208655
127,1.688214485869921,-2.000278420227617,-0.16576710409566583,-0.16073191010668567
128,1.7015075133177158,-1.9756798823174608,-0.16329955181872993,-0.16110369751765613
129,1.7148005407655105,-1.9497333343134762,-0.16071509654138894,-0.1615003346358906
130,1.728093568213305,-1.9227886180060345,-0.15829066072375889,-0.162438342252804
131,1.7413865956610997,-1.8958249737737476,-0.15639949082823043,-0.16450431827775044
132,1.7546796231088944,-1.8701546043004984,-0.15543491819738572,-0.1681989481806746
133,1.767972650556689,-1.8470706665518155,-0.15571771798372022,-0.1738098728627548
134,1.7812656780044835,-1.8275348977655796,-0.15740959469659355,-0.18134352507188856
135,1.7945587054522782,-1.8119793410617608,-0.16045683038109135,-0.19052945859238807
136,1.807851732900073,-1.800256382174248,-0.1645825070716539,-0.20088996297930029
137,1.821144760347868,-1.7917266054458172,-0.1693332623257175,-0.2118503794090699
138,1.834437787795662,-1.7854393153216137,-0.17417044666175685,-0.22285700971016817
139,1.8477308152434568,-1.7803447953778748,-0.17858143483963804,-0.23347133321084762
140,1.8610238426912515,-1.7754816274961271,-0.18218043957905233,-0.2434194052480658
141,1.8743168701390465,-1.770101395727683,-0.18477229214931032,-0.2525899773629796
142,1.887609897586841,-1.7637185068626569,-0.1863654659326921,-0.26098978777650833
143,1.9009029250346356,-1.7560964913821047,-0.18713669193572155,-0.26867571052039924
144,1.91419595248243,-1.7471977687946998,-0.1873627630215448,-0.2756881295914474
145,1.9274889799302248,-1.737127860915183,-0.18734161548189182,-0.2820069428602154
146,1.9407820073780195,-1.7260971021705216,-0.18732382508662435,-0.2875422988643069
147,1.954075034825814,-1.714406678220477,-0.18746913086595085,-0.292159917395128
148,1.9673680622736087,-1.7024483276295033,-0.18783348523295265,-0.29572986526283807
149,1.9806610897214036,-1.6906959926775647,-0.18838332193273163,-0.298181423810016
150,1.993954117169198,-1.6796680592214197,-0.18902743769874897,-0.29954676880960074
151,2.0072471446169926,-1.6698505420757324,-0.18965433264283615,-0.2999818241595529
152,2.0205401720647878,-1.6615898134392417,-0.19016413407509278,-0.29976101655633314
153,2.033833199512582,-1.6549807352925334,-0.19048830720274,-0.29924998833291555
154,2.0471262269603767,-1.649785088832757,-0.19059550321707128,-0.2988638643260277
155,2.0604192544081714,-1.645411729567935,-0.1904863603684953,-0.2990183276475737
156,2.073712281855966,-1.6409744433828202,-0.19018266774699816,-0.3000790071566777
157,2.087005309303761,-1.6354213290471764,-0.18971664185405232,-0.3023144154756518
158,2.100298336751555,-1.627708630449934,-0.1891245087664578,-0.30585973362838653
159,2.11359136419935,-1.6169794387483507,-0.18844597342340533,-0.31070107856851775
160,2.1268843916471445,-1.6027070663865284,-0.18772848463400044,-0.3166890559415571
161,2.140177419094939,-1.5847732191259145,-0.1870332731553233,-0.3235840502076784
162,2.153470446542734,-1.563468248881912,-0.1864393619443807,-0.331124643929441
163,2.1667634739905286,-1.5394194267520067,-0.1860421714091036,-0.3390992618078751
164,2.1800565014383237,-1.5134683581458972,-0.18594483222500824,-0.3473961218703392
165,2.193349528886118,-1.4865269293244119,-0.18624264315022737,-0.3560126487893313
166,2.2066425563339127,-1.459441524722097,-0.18700382595423387,-0.3650217118274664
167,2.219935583781707,-1.432889246714296,-0.1882520109163504,-0.3745107639176965
168,2.2332286112295017,-1.4073204117127593,-0.18995662800425697,-0.38452089203626744
169,2.2465216386772964,-1.3829510378852377,-0.19203568426410297,-0.395009681168847
170,2.259814666125091,-1.3597982796547268,-0.19437129330277977,-0.4058468132123158
171,2.273107693572886,-1.337741363930398,-0.19683316050310104,-0.4168337885888434
172,2.2864007210206805,-1.3165827318022105,-0.199301439410649,-0.42772954491841203
173,2.299693748468475,-1.2960829645012193,-0.2016802661266683,-0.4382672560435567
174,2.31298677591627,-1.275952341829979,-0.2038975625586192,-0.44816137898218783
175,2.3262798033640646,-1.2558009316807095,-0.2058936918153988,-0.4571191299397866
176,2.339572830811859,-1.2350713393964907,-0.20760777570200445,-0.464876914103337
177,2.3528658582596536,-1.212993591100029,-0.2089725465411163,-0.4712739014714132
178,2.3661588857074483,-1.1886021975939607,-0.20992519275319835,-0.4763537736494888
179,2.379451913155243,-1.1608404812428765,-0.21043434734574049,-0.48046129630987433
180,2.3927449406030377,-1.1287537007113801,-0.21053565434447996,-0.4842860061570642
181,2.4060379680508324,-1.0917505884350271,-0.21036361917911273,-0.48881080403128124
182,2.419330995498627,-1.049899489407844,-0.21016732588901055,-0.4951494323650078
183,2.4326240229464218,-1.004219734113092,-0.21030157732165125,-0.5042946280234036
184,2.4459170503942165,-0.9569246314944411,-0.21119126501580426,-0.5168336876703478
185,2.4592100778420107,-0.911563751153898,-0.21327334122091487,-0.5327069937602844
186,2.472503105289805,-0.8730012551071479,-0.21692625227817594,-0.5510808634261906
187,2.4857961327376,-0.8471659991554225,-0.22240025265282695,-0.5703802041060785
188,2.499089160185395,-0.840533083587227,-0.2297629322194264,-0.5884868224837319
189,2.512382187633189,-0.8593520690659814,-0.23887182275108848,-0.6030670531554393
190,2.525675215080984,-0.9087137473764572,-0.24937991539414822,-0.6119588537066468
191,2.538968242528779,-0.9916189390087966,-0.26077153781063944,-0.6135325421278895
192,2.5522612699765737,-1.1082482781568823,-0.27241808738429973,-0.6069457275144027
193,2.5655542974243684,-1.2556105581570471,-0.2836388288462224,-0.5922406245653999
194,2.5788473248721626,-1.4276696756795577,-0.2937532831586213,-0.5702730135542289
195,2.5921403523199573,-1.615940448820763,-0.30211817015021614,-0.5425038469218845
196,2.605433379767752,-1.810438985613612,-0.30815066499489785,-0.5107140672319811
197,2.6187264072155467,-2.000807731465547,-0.3113470906469808,-0.4767131101549439
198,2.632019434663341,-2.177424083944416,-0.3113088090148835,-0.44210218421588654
199,2.645312462111136,-2.33233650413704,-0.30778345830849707,-0.40813104870969885
200,2.658605489558931,-2.4599296771322097,-0.30072062527500976,-0.3756596595825593
201,2.671898517006725,-2.5572752267219845,-0.29032960556524146,-0.3452101658288731
202,2.68519154445452,-2.6241623042006754,-0.2771176767474172,-0.31707451755950944
203,2.6984845719023145,-2.662824223345448,-0.26188500557601163,-0.2914315343345034
204,2.711777599350109,-2.6773957491555826,-0.24565986084423666,-0.2684278636594541
205,2.725070626797904,-2.673163472334692,-0.22957442837503306,-0.2481922043181291
206,2.7383636542456986,-2.6557103100096584,-0.21470200899624142,-0.23077998386540652
207,2.7516566816934933,-2.630090513121286,-0.2018926201283522,-0.2160782543582478
208,2.764949709141288,-2.600181887553445,-0.1916486919021155,-0.2037243408224848
209,2.7782427365890827,-2.568332493572732,-0.18407291603401613,-0.19309381380727803
210,2.7915357640368774,-2.5353527737458847,-0.17889971750472267,-0.18338908893989264
211,2.804828791484672,-2.5008206322281437,-0.17559797247815878,-0.17381741529807695
212,2.8181218189324664,-2.4635929965662036,-0.1735139000056853,-0.1638044625898212
213,2.831414846380261,-2.422374921932091,-0.17201525708829454,-0.1531672623940169
214,2.844707873828056,-2.376197383858019,-0.17060243857167606,-0.14217958540777692
215,2.8580009012758505,-2.3246958281407375,-0.16896598067469384,-0.13150082955526407
216,2.871293928723645,-2.2681498846062036,-0.1669877670553345,-0.12198970761626729
217,2.88458695617144,-2.2073187338946343,-0.1646989201602056,-0.11446514413924427
218,2.8978799836192346,-2.1431631921262397,-0.16221646454585203,-0.10949297475062734
219,2.9111730110670293,-2.0765682871395184,-0.15968172019084975,-0.10726436583811456
220,2.924466038514824,-2.0081653614312027,-0.15721727613186706,-0.1075980688158422
221,2.9377590659626183,-1.9383094632184474,-0.15490952269701078,-0.11005750606141983
222,2.951052093410413,-1.867211830610436,-0.15281383788778868,-0.11413866753476794
223,2.964345120858208,-1.795175024554529,-0.15097267022087033,-0.11946520147563333
224,2.9776381483060024,-1.7228428999519423,-0.14943451679958092,-0.12592741007488936
225,2.990931175753797,-1.6513679074653935,-0.14826404819775119,-0.13372158904138848
226,3.004224203201592,-1.5824178332337016,-0.1475388030979807,-0.14327900553695633
227,3.0175172306493865,-1.5179899732202962,-0.14733362071330555,-0.1551085420545086
228,3.030810258097181,-1.460061804244588,-0.14769819457170702,-0.16960166479762478
229,3.044103285544976,-1.410165184117434,-0.14863479572600685,-0.18685593067775677
230,3.05739631299277,-1.3690053399721298,-0.1500825523904252,-0.20656435683472732
231,3.070689340440565,-1.3362414309695452,-0.15191261929903524,-0.22799850391876367
232,3.08398236788836,-1.3105007160425448,-0.15393603419654545,-0.25008986759806845
233,3.0972753953361543,-1.28962760920218,-0.15592356675239027,-0.27159245623446193
234,3.110568422783949,-1.2710974813177622,-0.15763467448403495,-0.2912930785625244
235,3.123861450231744,-1.2524792844193784,-0.15885105730540855,-0.30822761422011796
236,3.1371544776795384,-1.2318275872291404,-0.15940959430312396,-0.32186265021887084
237,3.150447505127333,-1.2079233389050332,-0.1592298554660081,-0.3322112207148376
238,3.163740532575128,-1.180346247221862,-0.15833267484592145,-0.3398651794299236
239,3.177033560022922,-1.1494225036376873,-0.15684778801096996,-0.34593971367320864
240,3.1903265874707167,-1.1161245518649021,-0.1550096188573215,-0.35193385571373614
241,3.2036196149185114,-1.081993832966934,-0.15314085929537455,-0.35951511906113304
242,3.216912642366306,-1.049120563013241,-0.15162414467630644,-0.3702419420002855
243,3.230205669814101,-1.0201666000067338,-0.15086368429651661,-0.3852509103044335
244,3.2434986972618955,-0.998379070385721,-0.15124123235435533,-0.40495791479457977
245,3.2567917247096902,-0.9875260651373975,-0.15307313712740553,-0.4288448608936284
246,3.270084752157485,-0.9916937799857031,-0.15657551813435175,-0.4554100858364817
247,3.28337777960528,-1.0149132974550754,-0.16184167504870245,-0.4823368820848487
248,3.2966708070530744,-1.0606292424913832,-0.16883046283190556,-0.5068790639275819
249,3.3099638345008686,-1.1310749399148894,-0.1773597225292806,-0.5263916906633825
250,3.3232568619486638,-1.2266688112518032,-0.1870988175596133,-0.5388771103105785
251,3.336549889396458,-1.3455784070629861,-0.19756067356851398,-0.5433980173805588
252,3.3498429168442527,-1.4835932704760917,-0.20810396097969522,-0.5402417969381967
253,3.3631359442920474,-1.6343944016846461,-0.21796387678551718,-0.5307943216704614
254,3.376428971739842,-1.7902129871171857,-0.22632864095576832,-0.5171691407804806
255,3.389721999187637,-1.9427626069532973,-0.23246555708448094,-0.5017063738353875
256,3.4030150266354315,-2.0842480528176233,-0.23587894563541384,-0.4864805810986392
257,3.4163080540832262,-2.208233771963444,-0.23646131864615688,-0.472934547674335
258,3.4296010815310205,-2.3102049543369474,-0.23458881850906102,-0.46170275833808677
259,3.442894108978815,-2.3877549039925676,-0.23111860419140082,-0.45263023007041353
260,3.45618713642661,-2.4404448876101204,-0.22726938717140244,-0.44494972764876206
261,3.4694801638744046,-2.469464745839047,-0.22439983240452865,-0.43755928213988055
262,3.4827731913221998,-2.477243553161782,-0.22373201739080673,-0.42933616345817194
263,3.496066218769994,-2.4671137124538745,-0.22608751180107498,-0.4194242083753039
264,3.5093592462177887,-2.443044605636638,-0.23170471744855412,-0.40743601532393214
265,3.5226522736655834,-2.409382357087998,-0.24018681138265285,-0.3935247296765656
266,3.535945301113378,-2.370508548437472,-0.2505950938619469,-0.37830763739412576
267,3.5492383285611724,-2.330380605816884,-0.26166270477547554,-0.36266384645938127
268,3.562531356008967,-2.29201317729708,-0.2720708061822464,-0.34746873210105744
269,3.575824383456762,-2.2570451575765964,-0.28071430865164126,-0.33335083541124816
270,3.5891174109045565,-2.225556483736232,-0.2868921392234035,-0.320549410345552
271,3.602410438352351,-2.196234044565586,-0.29038437072052464,-0.30891287433596976
272,3.615703465800146,-2.166865008859262,-0.2914142126727296,-0.2980249663617192
273,3.6289964932479406,-2.1350157791852244,-0.29052350836809726,-0.2873996587463032
274,3.6422895206957353,-2.0986907476748824,-0.2884064182844347,-0.2766675893681751
275,3.65558254814353,-2.0567835201584534,-0.28574521499159256,-0.2656919434180639
276,3.668875575591324,-2.009222113955269,-0.2830792609527644,-0.2545897000701688
277,3.682168603039119,-1.9568266161714705,-0.2807213892115897,-0.2436745613387171
278,3.6954616304869137,-1.900991918069232,-0.2787224155201604,-0.23336232438978882
279,3.708754657934709,-1.843343191603002,-0.2768780553279034,-0.22408069751378568
280,3.722047685382503,-1.7854812712500219,-0.2747722774452336,-0.21620883444141947
281,3.735340712830298,-1.728862341745963,-0.2718530469466019,-0.2100494730333213
282,3.748633740278093,-1.6747806911933822,-0.2675358501278077,-0.20582044231963306
283,3.761926767725887,-1.6243804719000796,-0.2613249322095763,-0.20364878207105416
284,3.775219795173682,-1.578628180856539,-0.25293324482757457,-0.20355886853349484
285,3.788512822621476,-1.53822208366751,-0.2423744888457662,-0.2054588978924765
286,3.801805850069271,-1.503469499220284,-0.23000001050545105,-0.20913875891587885
287,3.8150988775170656,-1.474196233923058,-0.2164629516185892,-0.2142905243200597
288,3.82839190496486,-1.449746746899747,-0.20261060480873253,-0.2205512410504976
289,3.841684932412655,-1.429093556901252,-0.18932735777639784,-0.22755396123896768
290,3.8549779598604497,-1.4110232024994438,-0.1773667125223432,-0.2349664976105628
291,3.868270987308245,-1.3943317778925608,-0.16721508300697704,-0.2425032457643221
292,3.881564014756039,-1.377963492458332,-0.15902067618280763,-0.24991097616639565
293,3.8948570422038338,-1.3610598558046607,-0.1526015321885249,-0.2569461323252955
294,3.908150069651628,-1.3429363150528337,-0.14752499426187984,-0.2633690624210196
295,3.921443097099423,-1.323040855097042,-0.14323373786753657,-0.2689740417184171
296,3.9347361245472174,-1.30095460215468,-0.1391852709122956,-0.27365469532830844
297,3.948029151995012,-1.2764644770674418,-0.13497281525671756,-0.2774815149933556
298,3.961322179442807,-1.2496882658245383,-0.13040319147317356,-0.2807535403475189
299,3.9746152068906015,-1.2211894124771823,-0.1255185914078593,-0.28398869923956016
300,3.987908234338396,-1.1920050777353364,-0.1205615623825971,-0.2878377226520114
301,4.001201261786191,-1.163534482584792,-0.11589453770468437,-0.29293741268294804
302,4.014494289233985,-1.1372857059455996,-0.11189512655923901,-0.29974750320722343
303,4.02778731668178,-1.114536428517978,-0.10885388494659475,-0.3084286174505621
304,4.041080344129575,-1.0960042563096433,-0.10690036984929728,-0.3188093698937762
305,4.05437337157737,-1.0816300023846293,-0.10597545342572033,-0.33045977800252413
306,4.067666399025164,-1.0705515296830896,-0.10585515616115694,-0.342846822046507
307,4.080959426472958,-1.0612985791966205,-0.10621767850136941,-0.3555137468314951
308,4.094252453920753,-1.0521881941751652,-0.10673516452485116,-0.3682139818394389
309,4.107545481368548,-1.0418593640342864,-0.10716759666294652,-0.38094962240802976
310,4.120838508816343,-1.0298579808725823,-0.10743800918077388,-0.3939048648240444
311,4.134131536264137,-1.01716559641028,-0.10767378502292795,-0.4073076682874038
312,4.147424563711932,-1.006555000232006,-0.10820560051686273,-0.4212789474568607
313,4.160717591159727,-1.002656337392779,-0.10952207624916484,-0.4357278708493544
314,4.174010618607522,-1.011639690848058,-0.11218436965556984,-0.4503276099396277
315,4.187303646055316,-1.04047420018512,-0.11671168720697764,-0.4645714011418096
316,4.20059667350311,-1.0958122372597356,-0.12345644257388297,-0.47787972997131195
317,4.213889700950905,-1.1826574808947317,-0.13249521910704637,-0.4897163473876625
318,4.2271827283987,-1.3030782468668405,-0.14356533309510336,-0.4996753801486108
319,4.240475755846495,-1.4552807841330286,-0.1560722822815979,-0.5075183921670732
320,4.253768783294289,-1.6333242418153604,-0.16917824037436463,-0.5131604538522746
321,4.267061810742084,-1.8276280221017134,-0.18195828414013115,-0.5166206580834798
322,4.280354838189878,-2.026221829184071,-0.19358697725230023,-0.51796037202349
323,4.2936478656376735,-2.216482931777183,-0.20350394402443006,-0.5172305240390603
324,4.306940893085468,-2.3869677034485917,-0.21151143665369598,-0.5144400430704282
325,4.320233920533262,-2.5289248838142515,-0.21778036871391093,-0.5095469297031445
326,4.333526947981057,-2.637179018283645,-0.2227751790536249,-0.5024669094412608
327,4.346819975428852,-2.7102523702832806,-0.2271372436118343,-0.493094083779578
328,4.360113002876647,-2.749789795247734,-0.23157713260530294,-0.4813311040882015
329,4.373406030324441,-2.7595095785307224,-0.23681174502396077,-0.4671291151563052
330,4.386699057772236,-2.743993831784065,-0.24354928397734024,-0.45053711270114166
331,4.39999208522003,-2.7076445389331902,-0.25248950520249186,-0.43175561149546043
332,4.413285112667825,-2.6540652476709927,-0.26428808031109385,-0.41118195329916235
333,4.42657814011562,-2.585992361776437,-0.279444944892616,-0.3894278536462062
334,4.439871167563414,-2.5057220486920926,-0.29811546138927003,-0.367289331730901
335,4.453164195011209,-2.4158110419575305,-0.31989325966189835,-0.3456593427145572
336,4.466457222459003,-2.319733192949241,-0.3436502274091656,-0.32539336604985897
337,4.479750249906799,-2.2221893641449926,-0.36752238611686056,-0.3071602011892877
338,4.493043277354593,-2.12889372464737,-0.38909501218956366,-0.291323195015445
339,4.506336304802388,-2.04584823568206,-0.40577812267489544,-0.27789298871306795
340,4.519629332250182,-1.9782996052625956,-0.415297339207426,-0.26657131020500696
341,4.532922359697977,-1.9296859270101974,-0.41617923042419663,-0.25687418351306157
342,4.546215387145772,-1.9008889191613845,-0.4081006377907466,-0.2482945972019447
343,4.559508414593566,-1.8900144875928766,-0.3920019693822963,-0.2404507583614526
344,4.572801442041361,-1.892763924541667,-0.36992642467211856,-0.23317236527156301
345,4.586094469489155,-1.9032845180926834,-0.34462237925678146,-0.22650137658455718
346,4.59938749693695,-1.9152583851091391,-0.31901136609774405,-0.22061568886985047
347,4.612680524384745,-1.9229434073475546,-0.2956575909441972,-0.2157109171443155
348,4.62597355183254,-1.9219313347148017,-0.2763652584968733,-0.2118868225341913
349,4.639266579280334,-1.9095102141711053,-0.2619820349213675,-0.20907816572421276
350,4.652559606728129,-1.884659085703827,-0.2524206507659228,-0.207050399916594
351,4.665852634175923,-1.8478061211325139,-0.246851505610238,-0.20545818103477564
352,4.679145661623718,-1.8005121260085533,-0.24398632562605171,-0.20394701705996848
353,4.692438689071513,-1.7451994619965514,-0.24237188028105042,-0.2022687246347496
354,4.705731716519307,-1.6849622733979455,-0.2406357467019612,-0.2003793214586688
355,4.719024743967102,-1.623411092283133,-0.23765836811540111,-0.19849221282125362
356,4.7323177714148965,-1.5644614637395058,-0.23267276418032387,-0.19706910832773222
357,4.745610798862692,-1.511990920346511,-0.2253065414813366,-0.1967449463852489
358,4.758903826310486,-1.4693547808470213,-0.21557977937236117,-0.19819887249706866
359,4.772196853758281,-1.4388386777192212,-0.20386363571995988,-0.20199743622166383
360,4.785489881206075,-1.4211921323417886,-0.19079807301667354,-0.20844508839964368
361,4.79878290865387,-1.4153979209019367,-0.17717029234924242,-0.21747854083785642
362,4.812075936101665,-1.418777562112366,-0.16376830839668627,-0.22863489731516817
363,4.825368963549459,-1.4274368008999816,-0.15123895830585826,-0.2411090102119878
364,4.838661990997254,-1.4369574611697156,-0.13998606241302963,-0.2538947620584007
365,4.851955018445048,-1.4431792414330853,-0.13013624554017716,-0.26598178539976
366,4.865248045892844,-1.44290116167794,-0.12157929133521782,-0.2765604349082368
367,4.878541073340638,-1.4343608921083197,-0.11406584866695206,-0.28518166885154955
368,4.891834100788433,-1.4174056472874332,-0.10732803550389378,-0.2918296638329243
369,4.905127128236227,-1.3933362344858773,-0.10118409845591853,-0.2968910201193429
370,4.9184201556840215,-1.3644742151654068,-0.09559686185449205,-0.3010356361811862
371,4.931713183131817,-1.3335587160254636,-0.09067264904109336,-0.30504859603258133
372,4.945006210579611,-1.3031116967989198,-0.08660626712365771,-0.30966149499004764
373,4.958299238027406,-1.2749102584938883,-0.08359286048061457,-0.3154247555701445
374,4.9715922654752,-1.24967291453806,-0.08173552016133753,-0.3226450591108967
375,4.984885292922995,-1.2270143420473438,-0.08097750018529587,-0.33139143082594225
376,4.99817832037079,-1.2056656237549812,-0.0810806246090498,-0.34155555412187766
377,5.011471347818585,-1.1839086248450903,-0.0816590223135737,-0.3529397584955142
378,5.024764375266379,-1.160142241288765,-0.0822625616449512,-0.3653414535752406
379,5.038057402714173,-1.1334857001712804,-0.08249075516138756,-0.37860652872578743
380,5.0513504301619685,-1.1043246822675354,-0.08210893525237069,-0.39263611793551634
381,5.064643457609763,-1.0747122595934018,-0.08113648540342164,-0.40734831657758463
382,5.077936485057558,-1.048543797892133,-0.07988216279317199,-0.42261342676918623
383,5.091229512505352,-1.0314350551287113,-0.07891252847634242,-0.4381916882953763
384,5.104522539953147,-1.0302542685210125,-0.07895377631264666,-0.4537016381796307
385,5.117815567400942,-1.0523023570244427,-0.08074233252161202,-0.46863487993367847
386,5.131108594848737,-1.1042048868846297,-0.08485308244683663,-0.48241394402031595
387,5.144401622296531,-1.190666678759969,-0.09154331535215801,-0.49447251668769737
388,5.157694649744325,-1.3133207123994355,-0.10065247951922393,-0.5043297176591013
389,5.17098767719212,-1.4699421035101032,-0.11159007205694142,-0.5116357458792761
390,5.184280704639915,-1.6542626811232521,-0.12342590557826251,-0.5161817026749717
391,5.19757373208771,-1.85650093494349,-0.1350715500863502,-0.5178830452867406
392,5.210866759535504,-2.0645409096832346,-0.1455156627907418,-0.5167545225483078
393,5.224159786983299,-2.265511506924175,-0.15405784657258212,-0.5128901870463201
394,5.2374528144310935,-2.4474057642338556,-0.16048262900181576,-0.506449214984474
395,5.250745841878889,-2.600386501676636,-0.16512897355061368,-0.49763732776726416
396,5.264038869326683,-2.7175494726806173,-0.1688368939761998,-0.48667416707771405
397,5.277331896774477,-2.795105357183447,-0.1727824179403625,-0.4737498775505847
398,5.290624924222272,-2.832117956042483,-0.17823642611682622,-0.4589901631485101
399,5.3039179516700665,-2.83002929114306,-0.18629654762868575,-0.44245551094422025
400,5.317210979117862,-2.7921865407878954,-0.19764393028987054,-0.42419015937431165
401,5.330504006565656,-2.7234841768534794,-0.21237104142395,-0.40431317502593406
402,5.343797034013451,-2.6301041828965137,-0.22991547469721066,-0.3831192129932917
403,5.357090061461245,-2.5192404464821285,-0.2491187538184597,-0.3611432782409063
404,5.3703830889090405,-2.3986736998642435,-0.2684073911217996,-0.339150436669334
405,5.383676116356835,-2.2761294794598483,-0.28606647109981603,-0.3180377407705976
406,5.396969143804629,-2.158473442292272,-0.3005492858319517,-0.29867211874641547
407,5.410262171252424,-2.050916928040568,-0.3107507048126427,-0.28171858897876934
408,5.423555198700218,-1.9564583409906438,-0.3161774094178269,-0.267522114231786
409,5.4368482261480136,-1.8757395644174584,-0.3169770973127374,-0.2560869302199382
410,5.450141253595808,-1.8073675883353726,-0.31383164317125695,-0.24715693697408123
411,5.463434281043603,-1.748597687551253,-0.30775885502630823,-0.24035889654213588
412,5.476727308491397,-1.6961631758425364,-0.2998885407026529,-0.23534684575940132
413,5.490020335939192,-1.6470104437601634,-0.29127497612195175,-0.23189117756020514
414,5.503313363386987,-1.598757979356089,-0.28278406057863087,-0.2298845736803998
415,5.516606390834781,-1.5498115816326465,-0.27506078758189106,-0.22927445676000519
416,5.529899418282576,-1.4991888104987998,-0.26855369072109586,-0.2299614122453615
417,5.54319244573037,-1.446194500036762,-0.2635568584166566,-0.23171441979663662
418,5.556485473178165,-1.3901240733248108,-0.2602306649840362,-0.2341446952852091
419,5.56977850062596,-1.3301487885287595,-0.2585778180094514,-0.2367560139141044
420,5.583071528073755,-1.2654668792585781,-0.25837597199861684,-0.23906048144017053
421,5.596364555521549,-1.1957059910571275,-0.25909418205334883,-0.24072523676921595
422,5.609657582969344,-1.121461334066276,-0.25983962141472017,-0.24170461160109147
423,5.6229506104171385,-1.0447807183149826,-0.25938610544070817,-0.24231541305970739
424,5.636243637864933,-0.9693900257777117,-0.2563225341936768,-0.24322697319680944
425,5.649536665312728,-0.9005057695884736,-0.24932721783092854,-0.2453575045202718
426,5.662829692760522,-0.8441973098367775,-0.23752899803954702,-0.24969034028720707
427,5.676122720208317,-0.8064066185139194,-0.2208705875736016,-0.2570451488531104
428,5.689415747656112,-0.7918582228808888,-0.20036090438118684,-0.26785640135134964
429,5.702708775103907,-0.803147990361548,-0.17810800846153285,-0.2820182154106874
430,5.716001802551701,-0.8402612259832369,-0.15707031295372179,-0.29884523889329084
431,5.729294829999496,-0.9006485566418454,-0.14054287621470338,-0.3171720667014655
432,5.74258785744729,-0.9798261807054294,-0.1314832357950835,-0.3355749150341232
433,5.755880884895085,-1.072322991423392,-0.13184513003697157,-0.35266141642007337
434,5.76917391234288,-1.1727158408489657,-0.14210262062836787,-0.36735144967376393
435,5.782466939790674,-1.2764915879081629,-0.16110335940615136,-0.3790731946211737
436,5.795759967238469,-1.3805395069652835,-0.18630041404936237,-0.3878241952437325
437,5.809052994686264,-1.4831856266217722,-0.21430504309285953,-0.39408755757272734
438,5.822346022134059,-1.58380375606676,-0.241612221455723,-0.39863364050137323
439,5.835639049581853,-1.6821475039809994,-0.26530614946020215,-0.4022646509918045
440,5.848932077029648,-1.7776162088337446,-0.28356867026483706,-0.405567728211898
441,5.862225104477442,-1.8686778436457627,-0.2958816652550496,-0.40873380056863884
442,5.8755181319252365,-1.952623911040694,-0.30290796819042876,-0.4114814042129191
443,5.888811159373032,-2.0257421630745056,-0.3061203045684801,-0.41310270992791975
444,5.902104186820826,-2.0838870428987826,-0.30729909672538647,-0.41262586805339374
445,5.915397214268621,-2.123327770571365,-0.308030159476534,-0.40906390644794793
446,5.928690241716415,-2.141678237132569,-0.3093108383325377,-0.40169740856398684
447,5.9419832691642105,-2.138676135795316,-0.31133376492856,-0.39032151601648435
448,5.955276296612005,-2.116592336475056,-0.3134749074708372,-0.3753861588943333
449,5.9685693240598,-2.0801202035194932,-0.3144741185433577,-0.35797907279946883
450,5.981862351507594,-2.035711937184244,-0.31276340166358757,-0.3396434044397558
451,5.995155378955388,-1.9904730567882765,-0.3068708456586131,-0.3220734287174993
452,6.008448406403184,-1.9508587524586611,-0.29580978294701205,-0.30677316621434286
453,6.021741433850978,-1.9214910004478936,-0.27936025462798186,-0.2947754627320566
454,6.035034461298773,-1.9043972117230552,-0.25817062325865076,-0.2864972002784279
455,6.048327488746567,-1.8988552113974844,-0.23365217266808452,-0.2817590923702514
456,6.061620516194362,-1.9018527490935166,-0.2076982443952586,-0.279945901776434
457,6.074913543642157,-1.9089998737135312,-0.18231109294840772,-0.28024523344737634
458,6.088206571089952,-1.9156344442186144,-0.1592427033184152,-0.28189162782290833
459,6.101499598537746,-1.9178621834699918,-0.13974077806890448,-0.2843560612535536
460,6.11479262598554,-1.9133490176079255,-0.1244466686447563,-0.2874479671953963
461,6.128085653433336,-1.9017793307971325,-0.11343956672765579,-0.29132385108605235
462,6.14137868088113,-1.8849610727604074,-0.10638187675389536,-0.29641432219050196
463,6.154671708328925,-1.8665856057534564,-0.10270483965291685,-0.3032885573775872
464,6.167964735776719,-1.8516599464972152,-0.10177945357003428,-0.31247695879310833
465,6.181257763224514,-1.8456538538228997,-0.10303685939482166,-0.32427595209462684
466,6.1945507906723085,-1.8534578326225204,-0.10602516281962684,-0.338566822510614
467,6.207843818120104,-1.8783162842469723,-0.11040923994977273,-0.35469012449066745
468,6.221136845567898,-1.920950815613847,-0.11593265556011605,-0.37142047348412
469,6.234429873015692,-1.9790917396674494,-0.12236536089491755,-0.38707533627014334
470,6.247722900463487,-2.0475769751982678,-0.12945845305200593,-0.39976311114287444
471,6.261015927911282,-2.11906382205412,-0.13692047553480818,-0.40773590673198673
472,6.274308955359077,-2.1852552465817916,-0.14442128463739415,-0.40977343625533597
473,6.287601982806871,-2.238404375879188,-0.15162146335584256,-0.40550097931121315
474,6.300895010254666,-2.272768010875668,-0.15821872986273122,-0.39554759198080136
475,6.31418803770246,-2.285664645774834,-0.163998288855808,-0.3814838830230187
476,6.327481065150256,-2.2778696094543642,-0.16887214705301667,-0.3655348685141007
477,6.34077409259805,-2.2532377463329,-0.1728938285255334,-0.35012671305994086
478,6.354067120045844,-2.2176425664106363,-0.17624028264973338,-0.33737611409031004
479,6.367360147493639,-2.177501972922014,-0.179161650573515,-0.3286503627529484
480,6.3806531749414335,-2.1382683293425244,-0.18190983867081173,-0.324307972265354
481,6.393946202389229,-2.1032615686853298,-0.18466505377502615,-0.32368086890613385
482,6.407239229837023,-2.073120075704666,-0.18748211449342278,-0.3252958477107289
483,6.420532257284818,-2.0459695765498664,-0.19027376582435188,-0.3272738341411836
484,6.433825284732612,-2.018218239540334,-0.19283747094479478,-0.3278049007408382
485,6.447118312180407,-1.985730188842767,-0.1949187250330339,-0.32558291545439394
486,6.460411339628202,-1.9450487495615254,-0.19629228404196203,-0.32009781019882516
487,6.473704367075996,-1.8943509822112177,-0.1968366075173589,-0.31172157663176164
488,6.486997394523791,-1.8339074956613108,-0.1965782695610545,-0.3015766012734143
489,6.500290421971585,-1.7659662870905828,-0.19569181961861837,-0.2912285422240516
490,6.5135834494193805,-1.6941345388102325,-0.19445408422475105,-0.28228721656217015
491,6.526876476867175,-1.6224561399974369,-0.19316610037858956,-0.2760181833517228
492,6.54016950431497,-1.5544455755148112,-0.1920662578589474,-0.27306091172257424
493,6.553462531762764,-1.4923303762174964,-0.1912613358699562,-0.27331867135761295
494,6.566755559210559,-1.4366831363926766,-0.19069671639845612,-0.2760382142130935
495,6.580048586658354,-1.3865120525608685,-0.19017471901829358,-0.28004631630702764
496,6.593341614106149,-1.3397548522438356,-0.18941483075644128,-0.2840699812670392
497,6.606634641553943,-1.2940156812803902,-0.1881368922960733,-0.28704980206209435
498,6.619927669001737,-1.2473253757314038,-0.1861424034696561,-0.28836625372207575
499,6.633220696449532,-1.1987089142339193,-0.18337155002366345,-0.28793116393322343
500,6.646513723897327,-1.1484081152051073,-0.17992254691213697,-0.28613830991724687
501,6.659806751345122,-1.097712318954876,-0.1760315510663473,-0.2837037350353246
502,6.673099778792916,-1.0484629002938997,-0.17202169221930286,-0.28144877984100275
503,6.686392806240711,-1.0023873814877036,-0.1682361038143258,-0.2800853075784455
504,6.6996858336885055,-0.960464126643863,-0.16497159716842782,-0.2800563387409078
505,6.712978861136301,-0.9225114639417541,-0.16242779635525192,-0.2814697618953683
506,6.726271888584095,-0.8871407024759908,-0.16068271636187717,-0.28413984662972397
507,6.739564916031889,-0.8521253340390779,-0.15970102276343323,-0.2877232399298831
508,6.752857943479684,-0.8151384285619567,-0.15937567955990004,-0.29190853183161586
509,6.766150970927479,-0.7747172182001516,-0.15959692871665454,-0.29660007348997036
510,6.779443998375274,-0.7312450906935906,-0.16033458312087953,-0.30203556961092204
511,6.792737025823068,-0.6877085861646064,-0.1617119184870212,-0.3087954287305541
512,6.806030053270863,-0.6499986551897606,-0.16404507884763628,-0.3176944628658394
513,6.819323080718657,-0.626587147055942,-0.16782452796973293,-0.32958218482262536
514,6.8326161081664525,-0.6275220135966227,-0.17362698791670442,-0.34510485717630246
515,6.845909135614247,-0.6628369069952149,-0.18196639640464987,-0.3644926052978708
516,6.859202163062041,-0.7406338526745827,-0.193115338238821,-0.38742638602035256
517,6.872495190509836,-0.8652268293491838,-0.20694586151903552,-0.41301645916841145
518,6.88578821795763,-1.0357811925973857,-0.22284246161316748,-0.4398943993547104
519,6.8990812454054256,-1.2458161906161862,-0.239726076850324,-0.46639374966985503
520,6.91237427285322,-1.4837560446263567,-0.2561984639338077,-0.4907769300562679
521,6.925667300301015,-1.7344614539010104,-0.27078023598685286,-0.5114604259909948
522,6.938960327748809,-1.981422882766456,-0.28218580260862297,-0.527195333452103
523,6.952253355196604,-2.209130992519205,-0.28956560677622967,-0.5371733599652152
524,6.965546382644399,-2.405112673580901,-0.29265502119336634,-0.541046897613531
525,6.978839410092193,-2.561238252694212,-0.2917961675520635,-0.5388729109215171
526,6.992132437539988,-2.6741216634600984,-0.2878337221234318,-0.5310094373608792
527,7.005425464987782,-2.7446759986821134,-0.28191718262905935,-0.5180042483911421
528,7.018718492435577,-2.7770761724869786,-0.275261836270746,-0.5005125303648708
529,7.032011519883372,-2.7774678212579014,-0.2689252649259377,-0.4792637373070458
530,7.045304547331167,-2.7527377405691458,-0.2636464063416687,-0.4550728792924165
531,7.058597574778961,-2.709557630319971,-0.2597738835851825,-0.4288692259857311
532,7.071890602226756,-2.6537835785466526,-0.25728560710721554,-0.4017065184927878
533,7.085183629674551,-2.5901874305996304,-0.25587951349874016,-0.37472792197073235
534,7.098476657122345,-2.5224371696939176,-0.25510163261320856,-0.34908122998229957
535,7.11176968457014,-2.453229459712011,-0.254475280281297,-0.32580338396653274
536,7.125062712017934,-2.3844919516383687,-0.253602883274912,-0.30570663594976294
537,7.138355739465729,-2.317598246504621,-0.25222546313255323,-0.2892971986202412
538,7.151648766913524,-2.253562465458488,-0.2502388182658081,-0.2767448854810929
539,7.164941794361319,-2.193196673934787,-0.2476757312321417,-0.2679067061319636
540,7.178234821809113,-2.137220505332554,-0.2446681651210009,-0.2623943001681499
541,7.191527849256908,-2.0863100329209705,-0.2414028022805128,-0.2596661209345485
542,7.204820876704702,-2.041069102057433,-0.23807937076257457,-0.2591204723851073
543,7.218113904152497,-2.001911197625756,-0.2348764225180194,-0.2601662074247107
544,7.231406931600292,-1.9688612711594826,-0.2319255372167141,-0.26225622976278323
545,7.244699959048086,-1.941322783352623,-0.22929330054060143,-0.2648842257035272
546,7.257992986495881,-1.9178909253146608,-0.22697073343242327,-0.26756147950788206
547,7.2712860139436755,-1.8963072499250344,-0.2248711597940148,-0.2697996226012401
548,7.284579041391471,-1.8736279307732975,-0.22283842269655807,-0.2711212238753504
549,7.297872068839265,-1.8466179354226588,-0.22066674073773887,-0.27110509854879655
550,7.31116509628706,-1.8123054749471705,-0.21813103284284605,-0.26945524806314036
551,7.324458123734854,-1.7685652579869926,-0.21502307671694573,-0.26607045112558253
552,7.337751151182648,-1.7145733461362245,-0.21118606851196026,-0.26109021144742717
553,7.351044178630444,-1.651003841914998,-0.20653961347729577,-0.2549004624260061
554,7.364337206078238,-1.5799097983700132,-0.20108947557090565,-0.24809399450515715
555,7.377630233526033,-1.504320936248864,-0.1949207182692948,-0.241391246839609
556,7.390923260973827,-1.427666047241463,-0.1881773877522136,-0.23553476229237588
557,7.4042162884216225,-1.3531638286614363,-0.18103486248003592,-0.23117519601228848
558,7.417509315869417,-1.2833157825849661,-0.17367157702153022,-0.22876855880997804
559,7.430802343317212,-1.2195899356872975,-0.1662453435407105,-0.2285031850137375
560,7.444095370765006,-1.162325277136704,-0.15887700760943924,-0.23027071098021915
561,7.4573883982128,-1.1108343804565988,-0.15164184744469228,-0.23368879539200305
562,7.470681425660596,-1.0636493856637832,-0.14456777011172584,-0.23817529547615265
563,7.48397445310839,-1.0188494944901607,-0.13763929383291948,-0.24306465453302897
564,7.497267480556185,-0.9744231938817206,-0.13080734532395266,-0.24774804047242813
565,7.510560508003979,-0.9286450868304159,-0.1240063527080949,-0.2518113308137015
566,7.523853535451774,-0.8804701060903539,-0.11718085585402724,-0.2551425911176539
567,7.537146562899569,-0.8299517036186207,-0.11032263251419941,-0.2579855187276758
568,7.550439590347364,-0.7786668791721202,-0.1035153759387404,-0.2609266351986029
569,7.563732617795158,-0.7300837736953414,-0.09697776346601268,-0.2648181543355584
570,7.577025645242952,-0.6897550420598249,-0.09108960532523734,-0.27065107398062316
571,7.5903186726907474,-0.6651894857036419,-0.08638324279608375,-0.2794010464150557
572,7.603611700138542,-0.6652720955176369,-0.08348675636756953,-0.2918718140711556
573,7.616904727586337,-0.6991831959451007,-0.08301779070933098,-0.30855816682918846
574,7.630197755034131,-0.7749028435154142,-0.08544424984841399,-0.32954467701004764
575,7.643490782481926,-0.8975421202603712,-0.09094487762623384,-0.35445052560855356
576,7.65678380992972,-1.067862901199223,-0.0993116855138446,-0.3824261678219049
577,7.670076837377516,-1.2813751496898766,-0.10993184395083229,-0.41220420326950036
578,7.68336986482531,-1.5283046151027535,-0.12186796177839167,-0.44220298765646576
579,7.696662892273104,-1.794519864132919,-0.1340274709443131,-0.47067546782834196
580,7.709955919720899,-2.063259671189945,-0.14538378189833967,-0.4958871816635427
581,7.723248947168694,-2.3172967305905217,-0.15519460847220065,-0.5162987072076769
582,7.736541974616489,-2.5410819231189468,-0.16316280518627607,-0.5307232982085976
583,7.749835002064283,-2.7224581382736694,-0.1695011581730204,-0.5384334806123202
584,7.763128029512078,-2.8536848778601747,-0.17488732600298956,-0.5392013872634963
585,7.776421056959872,-2.9317133605431143,-0.18031934552965098,-0.5332735864015424
586,7.7897140844076675,-2.9578310473716694,-0.1868999641823875,-0.5212970225985346
587,7.803007111855462,-2.936904224453878,-0.19558896844489088,-0.5042227208369466
588,7.816300139303256,-2.87646300137288,-0.20696912842060758,-0.48321352476870477
589,7.829593166751051,-2.785803037993566,-0.22107445628811861,-0.4595705140904862
590,7.842886194198845,-2.675165334868016,-0.237325885341861,-0.43467488448222485
591,7.856179221646641,-2.5549626337514324,-0.25460316955157786,-0.4099276173203048
592,7.869472249094435,-2.434998987015166,-0.27145013470488055,-0.3866672214453813
593,7.88276527654223,-2.32368367892229,-0.28637018579579465,-0.3660585282152864
594,7.896058303990024,-2.227327846824861,-0.2981361876061624,-0.3489665175582618
595,7.909351331437819,-2.1496675192302748,-0.3060302332598665,-0.3358468283439069
596,7.922644358885614,-2.0917384927734153,-0.3099508343516034,-0.3266889234145144
597,7.935937386333408,-2.052141395871148,-0.3103689026872652,-0.32103587742304984
598,7.949230413781203,-2.027622940945546,-0.308160606482049,-0.3180817942738503
599,7.962523441228997,-2.013815013549039,-0.30437654337978626,-0.3168243352812682
600,7.975816468676792,-2.005952013684649,-0.3000139065410091,-0.3162354891718766
601,7.989109496124587,-1.9994323296216452,-0.2958440720133378,-0.3154129346678174
602,8.002402523572382,-1.9901764319069457,-0.29232232020291266,-0.31368513817443905
603,8.015695551020176,-1.9748207513218052,-0.2895804198482104,-0.31065982844881934
604,8.02898857846797,-1.9508353377677032,-0.28748422384722966,-0.306221476583389
605,8.042281605915765,-1.9166461604302758,-0.2857298041392014,-0.30049432486429445
606,8.05557463336356,-1.871788992628541,-0.283951514729379,-0.29379082499605413
607,8.068867660811355,-1.817052358416552,-0.28182047028932283,-0.2865607685078783
608,8.08216068825915,-1.7545194909494393,-0.27911911248889865,-0.2793464607268437
609,8.095453715706943,-1.6874190031284946,-0.27578456344799995,-0.27273916165952006
610,8.10874674315474,-1.619742691891751,-0.2719190102823683,-0.26732728115713494
611,8.122039770602534,-1.5556657340493383,-0.26776888226193396,-0.26363028642765196
612,8.135332798050328,-1.4988779812468274,-0.26367634085388314,-0.26202215943823276
613,8.148625825498122,-1.4519777200006758,-0.26000768801442603,-0.26265913517312417
614,8.161918852945917,-1.4160771757231874,-0.25706523501255935,-0.26543250802206114
615,8.175211880393713,-1.3907229307221185,-0.254993088222532,-0.26996528553469823
616,8.188504907841507,-1.3741561137362304,-0.25369295510137074,-0.27566190201885754
617,8.201797935289301,-1.363845859835568,-0.2527713451888485,-0.28180619825412523
618,8.215090962737095,-1.3571490313562644,-0.2515409430582686,-0.2876883517970599
619,8.228383990184891,-1.3519046639817072,-0.2490930215521014,-0.2927303728964423
620,8.241677017632686,-1.3467828995154114,-0.24444303802745004,-0.2965762699755545
621,8.25497004508048,-1.3412809618484556,-0.23673002571629076,-0.2991203244695533
622,8.268263072528274,-1.3353771216145873,-0.22542810625411697,-0.3004649709110879
623,8.281556099976068,-1.3289796448793147,-0.2105142507008567,-0.3008231890304784
624,8.294849127423864,-1.3213921182502657,-0.1925386793504257,-0.3004001315924561
625,8.308142154871659,-1.3110192767109041,-0.17256646162276718,-0.29929683557974923
626,8.321435182319453,-1.2954499656682081,-0.15199598344079238,-0.29747179859606687
627,8.334728209767247,-1.2719091597611838,-0.13229884490546437,-0.29477597698838653
628,8.348021237215043,-1.237931797194285,-0.11475047649369192,-0.2910498911675419
629,8.361314264662838,-1.1920392593092775,-0.10022087549686547,-0.28624740437789986
630,8.374607292110632,-1.1342227969585224,-0.08907143574496713,-0.28053917661407646
631,8.387900319558426,-1.0661379346304838,-0.08116859944165326,-0.27435592124490665
632,8.40119334700622,-0.9910360017854549,-0.07599320579069946,-0.2683556840238557
633,8.414486374454016,-0.9135440601580981,-0.07280643198705472,-0.26332996188601115
634,8.42777940190181,-0.8394158810227551,-0.07083101631321143,-0.2600859484728422
635,8.441072429349605,-0.7753146044149289,-0.0694150576990718,-0.2593457590186726
636,8.4543654567974,-0.7285873581872028,-0.06815788419409426,-0.26168755611550654
637,8.467658484245195,-0.7069078368725946,-0.06698777631473697,-0.2675279022543706
638,8.48095151169299,-0.7176457355249349,-0.06618758264095151,-0.277123639734011
639,8.494244539140784,-0.7668969125965676,-0.06636731855578946,-0.29056551475468434
640,8.507537566588578,-0.8582592388870309,-0.06838511800579491,-0.3077459530718872
641,8.520830594036372,-0.9916105494654385,-0.07322174080841315,-0.3283030184233504
642,8.534123621484168,-1.162260791906982,-0.08182008701351075,-0.35156192914919554
643,8.547416648931963,-1.3608451752992705,-0.09490875703125747,-0.3765070448846411
644,8.560709676379757,-1.57417540194402,-0.11283529144026917,-0.4018171186625194
645,8.574002703827551,-1.7870060916858304,-0.13543809969419807,-0.42598363797754357
646,8.587295731275347,-1.9843870670792751,-0.1619850437625494,-0.4475074709948788
647,8.600588758723141,-2.1540617585834556,-0.19120074587747574,-0.46513817910085625
648,8.613881786170936,-2.2883182515057388,-0.22139332637686562,-0.47809391131904905
649,8.62717481361873,-2.3848294907868355,-0.25067365138645004,-0.48619089524970915
650,8.640467841066524,-2.4462961815888047,-0.27723722817776825,-0.48982920154084764
651,8.65376086851432,-2.479042057190611,-0.29965584400881734,-0.4898240994807358
652,8.667053895962114,-2.49099686703202,-0.3171123365197255,-0.48712605683150917
653,8.680346923409909,-2.4896451070157446,-0.3295167236995536,-0.4825161070974894
654,8.693639950857703,-2.480477986277906,-0.3374678852983728,-0.47637796313538733
655,8.706932978305499,-2.4662896725623398,-0.3420649034613023,-0.4686260397753665
656,8.720226005753293,-2.447385597053867,-0.3446123117662721,-0.45881632239466713
657,8.733519033201087,-2.4225135432433023,-0.3462906385496808,-0.4464034063816074
658,8.746812060648882,-2.39015710829625,-0.3478706941558983,-0.4310549945043323
659,8.760105088096676,-2.349775310616211,-0.3495373603011738,-0.4129135057582161
660,8.773398115544472,-2.3026258481976947,-0.35086153921682656,-0.3927112418569809
661,8.786691142992266,-2.2519463889869176,-0.3509245685910515,-0.3716950071732891
662,8.79998417044006,-2.2024519510004676,-0.3485647522163147,-0.35138048376472536
663,8.813277197887855,-2.1592946552454078,-0.342687028925786,-0.3332129554590017
664,8.82657022533565,-2.126780355719932,-0.3325602632999378,-0.31823974524296667
665,8.839863252783445,-2.1072063823676714,-0.31802764082542356,-0.3068926640761387
666,8.85315628023124,-2.1001548446862754,-0.2995770140058122,-0.2989408152086098
667,8.866449307679034,-2.1024518610087752,-0.2782567398472823,-0.2936198778216187
668,8.879742335126828,-2.108817937696028,-0.2554676491885439,-0.2898914229628811
669,8.893035362574624,-2.1130420851971023,-0.23269686188787703,-0.2867503970385135
670,8.906328390022418,-2.1093691354544366,-0.2112698479300014,-0.28348996156087886
671,8.919621417470212,-2.0937365302995397,-0.19217978802234928,-0.27985143305297844
672,8.932914444918007,-2.064544760880321,-0.1760178481826987,-0.27602574507952693
673,8.946207472365803,-2.0227773758351075,-0.16299199747766793,-0.27251848617097624
674,8.959500499813597,-1.971465694042531,-0.1530001993161418,-0.26992898977542457
675,8.972793527261391,-1.9146737710950275,-0.1457210492149434,-0.268714776019088
676,8.986086554709185,-1.8563116735118415,-0.1406963769228093,-0.2690118654941648
677,8.99937958215698,-1.7991281727265194,-0.13739660113851712,-0.27056139783636207
678,9.012672609604776,-1.7441688670437334,-0.13527230371214555,-0.2727603490834022
679,9.02596563705257,-1.690828795752919,-0.1338002083957418,-0.27481793008771
680,9.039258664500364,-1.637429935332002,-0.13252868342315985,-0.27596880538324703
681,9.05255169194816,-1.5820806224581272,-0.13112054031373144,-0.2756776965180867
682,9.065844719395956,-1.5234856117488655,-0.1293840468224272,-0.2737722910050753
683,9.079137746843749,-1.4614036403910904,-0.12728066402525615,-0.27046298310464856
684,9.092430774291543,-1.3965868166738467,-0.12490178418561235,-0.2662436637489855
685,9.105723801739336,-1.3302383259307995,-0.12241580750644888,-0.2617076460259223
686,9.119016829187132,-1.2632225392968564,-0.11999821535733846,-0.2573441896620536
687,9.132309856634928,-1.1953821148841914,-0.11776656028694377,-0.25339185128549174
688,9.145602884082722,-1.1253097647003418,-0.11574509888208116,-0.24980823108007566
689,9.158895911530516,-1.0507802995632256,-0.11387730042887041,-0.24637472192678303
690,9.17218893897831,-0.9698129558623962,-0.11208917060289023,-0.24290359460153207
691,9.185481966426106,-0.8820844868248232,-0.11038685295879558,-0.23947320249871795
692,9.1987749938739,-0.790240954967611,-0.10895570067215903,-0.23660242506897847
693,9.212068021321697,-0.7006290129553646,-0.10822187678326975,-0.2352938371744056
694,9.22536104876949,-0.6231035561118489,-0.10884473067403505,-0.236918691781024
695,9.238654076217284,-0.5698257471503725,-0.11162681524369486,-0.24296785373563565
696,9.25194710366508,-0.553257352312356,-0.11735263758018966,-0.25473239620247284
697,9.265240131112874,-0.5837896934417265,-0.1265899158581175,-0.27299425114913156
698,9.278533158560668,-0.6675525843359553,-0.13950207395506817,-0.2978005182434296
699,9.291826186008462,-0.8049116006029868,-0.15572390036600922,-0.32837183364578837
700,9.305119213456258,-0.9900030696944839,-0.1743420210664526,-0.3631641672974121
701,9.318412240904053,-1.2114198071016424,-0.1939989096589238,-0.40007081739309847
702,9.331705268351849,-1.4538996594695324,-0.21310763997755158,-0.43672151205494053
703,9.34499829579964,-1.7006400957580268,-0.2301322898761025,-0.4708131927045426
704,9.358291323247435,-1.9357225891620078,-0.24386624640148544,-0.5003984594066279
705,9.371584350695231,-2.146124406116628,-0.25363707041341654,-0.5240683720394139
706,9.384877378143026,-2.3229321162097842,-0.2593857404760234,-0.5409972579586331
707,9.39817040559082,-2.4616113669493735,-0.26160491666772623,-0.5508613528263877
708,9.411463433038614,-2.5614512348892475,-0.2611625424801707,-0.5536854358385752
709,9.42475646048641,-2.6244991811467746,-0.25906836029609787,-0.5496939183504643
710,9.438049487934205,-2.6543739059487983,-0.25625085930051184,-0.5392327997942589
711,9.451342515382,-2.655281628168954,-0.2533991112967483,-0.5227885146980313
712,9.464635542829791,-2.6314109408612545,-0.2508955509965488,-0.5010767637730167
713,9.477928570277587,-2.5867119657077113,-0.24883467517231153,-0.47513458597723407
714,9.491221597725383,-2.5249398867160298,-0.2471003096999113,-0.44634228613124166
715,9.504514625173178,-2.4497952965650396,-0.24546616079808106,-0.4163321055422458
716,9.517807652620972,-2.3650229854687392,-0.24368958173470495,-0.3867929550890004
717,9.531100680068766,-2.2744061957204877,-0.2415808826309347,-0.35922952782321227
718,9.544393707516562,-2.181670013634232,-0.23904310608228152,-0.33475635536336
719,9.557686734964356,-2.090347324992005,-0.23608527171901827,-0.3139933630241393
720,9.57097976241215,-2.003651176772101,-0.23281466747882454,-0.29708747844860334
721,9.584272789859943,-1.9243571389897982,-0.2294128669805549,-0.28383568951652427
722,9.59756581730774,-1.8546648252874094,-0.22609884287228627,-0.2738510029934271
723,9.610858844755535,-1.7960089607020393,-0.22308297698539656,-0.26670710360159305
724,9.62415187220333,-1.7488307827478462,-0.2205182038675543,-0.2620187028495669
725,9.637444899651124,-1.7123749885640716,-0.21845748474160695,-0.25944915890092946
726,9.650737927098918,-1.6846085522259107,-0.21682805431429356,-0.2586677105060154
727,9.664030954546714,-1.6623406234275067,-0.21543076757344362,-0.25929341197806244
728,9.677323981994508,-1.6415618035864212,-0.2139674221246586,-0.2608592014485823
729,9.690617009442304,-1.6179478496488107,-0.2120919869906257,-0.26281385376300787
730,9.703910036890097,-1.5874256082404312,-0.20947590517924183,-0.2645618490041771
731,9.717203064337893,-1.5466987988977163,-0.20587500515814716,-0.2655293786277847
732,9.730496091785689,-1.4936705651111926,-0.2011862660626535,-0.26524158766811806
733,9.74378911923348,-1.427750169362394,-0.19548547424660354,-0.2633995240634805
734,9.757082146681276,-1.350063131896453,-0.1890401793592846,-0.2599503583320116
735,9.77037517412907,-1.2635830829466275,-0.18229560758858734,-0.2551466980040197
736,9.783668201576866,-1.1731752789010819,-0.17583447038738045,-0.24958815542169274
737,9.79696122902466,-1.0855054965471311,-0.17031512886264177,-0.24423223935489222
738,9.810254256472454,-1.0087457692603043,-0.16639587903438177,-0.2403566740852202
739,9.823547283920249,-0.9520149204514317,-0.1646551717242342,-0.23945649839913133
740,9.836840311368045,-0.9245300926871274,-0.16551757820771185,-0.24306927218058913
741,9.85013333881584,-0.9345078782647412,-0.1691935206662823,-0.2525388187531849
742,9.863426366263631,-0.9879267178459901,-0.1756385515549137,-0.2687475127021501
743,9.876719393711427,-1.0873305790397236,-0.18453677329031276,-0.2918637552794488
744,9.890012421159222,-1.2309010182861801,-0.19531311569682797,-0.32116014038234764
745,9.903305448607018,-1.4120320876360246,-0.2071790397870484,-0.3549550646407579
746,9.916598476054812,-1.6195928719563095,-0.21921322072715782,-0.39071410154404507
747,9.929891503502606,-1.8389492341109879,-0.23047142467086026,-0.42531855271604807
748,9.9431845309504,-2.0536551681035298,-0.24010970483453456,-0.4554724837407183
749,9.956477558398197,-2.2475558222412504,-0.2474967635478745,-0.47818462046902627
750,9.96977058584599,-2.406923480755048,-0.25229001455837263,-0.49123716691880775
751,9.983063613293783,-2.522220325347953,-0.25445789548375963,-0.49354804160477034
752,9.99635664074158,-2.589161782804802,-0.25424587759893186,-0.4853501898727789
753,10.009649668189374,-2.6089158189279935,-0.25209915537380845,-0.46814872987253386
754,10.02294269563717,-2.587462857038815,-0.24856469271130405,-0.44446406067498456
755,10.036235723084964,-2.534301914447062,-0.24419610396473238,-0.41741366623962156
756,10.049528750532758,-2.460785341277197,-0.23947834943070995,-0.3902159080067099
757,10.062821777980552,-2.3783893135336243,-0.23477989969653293,-0.36570949700703376
758,10.076114805428348,-2.297192211476525,-0.23033217427466915,-0.34597213256227133
759,10.089407832876145,-2.224758205320632,-0.22623173691008233,-0.33209517825682056
760,10.102700860323935,-2.1655288079170174,-0.22245956524996716,-0.32413578806890514
761,10.115993887771731,-2.1207292424562683,-0.2189120922012157,-0.321232876257082
762,10.129286915219526,-2.0887162214976494,-0.21543914161525848,-0.32184706551894743
763,10.142579942667322,-2.0656429769299205,-0.2118837436440824,-0.3240717591756267
764,10.155872970115116,-2.0463024865970376,-0.20811841895880542,-0.32596221053033786
765,10.16916599756291,-2.02502568604327,-0.20407260682599432,-0.3258374649952167
766,10.182459025010704,-1.996541808429291,-0.19974707010535916,-0.32252070903574453
767,10.1957520524585,-1.9567327624225783,-0.1952133815410714,-0.3154928738880454
768,10.209045079906296,-1.9032202602907244,-0.19059942800326943,-0.30494181169706513
769,10.222338107354089,-1.8357173092189234,-0.1860644383182897,-0.2916980386430888
770,10.235631134801883,-1.7560738374597022,-0.18176871919068807,-0.27706203071806174
771,10.248924162249676,-1.6679716474353723,-0.17784389963173433,-0.26254843996958216
772,10.262217189697472,-1.5762854275545624,-0.17436919185476313,-0.24959470449397705
773,10.275510217145268,-1.486210685337111,-0.1713581674391094,-0.23929620564291068
774,10.288803244593062,-1.4023343917510693,-0.16875892089565486,-0.23222865463819684
775,10.302096272040856,-1.3278555441357276,-0.16646832291022798,-0.22839786372662513
776,10.31538929948865,-1.2641322703086497,-0.16435848417948024,-0.22732281503605145
777,10.328682326936448,-1.210646873563604,-0.16231078722084558,-0.22822152179684232
778,10.34197535438424,-1.1653695626505822,-0.1602503079315814,-0.2302429900652189
779,10.355268381832037,-1.125401711401891,-0.15817181646177558,-0.232680422308452
780,10.36856140927983,-1.0877178226314248,-0.1561486715034511,-0.2351113150275544
781,10.381854436727624,-1.0498134026568988,-0.15431853138566504,-0.23743421909243875
782,10.39514746417542,-1.0101017729794957,-0.15284511336663306,-0.2398022151895213
783,10.408440491623214,-0.9679772806902395,-0.1518625779472052,-0.24248229210843075
784,10.421733519071008,-0.9235613236579575,-0.15141672791647695,-0.24569120129650393
785,10.435026546518802,-0.8772497171092918,-0.1514223711159047,-0.24946615478579778
786,10.448319573966598,-0.8292557059956642,-0.15165608010268392,-0.2536191105537248
787,10.461612601414393,-0.7793619641125197,-0.15179668247468517,-0.2577970176354579
788,10.474905628862189,-0.7270403389787254,-0.15151312054766275,-0.2616342212561622
789,10.48819865630998,-0.671978998465403,-0.1505843232609777,-0.26494945032923245
790,10.501491683757775,-0.6149084728126442,-0.1490230904441129,-0.2679214060128617
791,10.514784711205571,-0.5584893930682666,-0.14716966129166295,-0.27118157359872963
792,10.528077738653366,-0.5079582558239017,-0.14572265482697816,-0.27578851925511705
793,10.54137076610116,-0.47124629513900707,-0.14568533424394203,-0.2830837097081809
794,10.554663793548954,-0.45838949676186663,-0.14822194514818945,-0.29446057763565353
795,10.56795682099675,-0.4802134253676861,-0.15443948749180872,-0.31109578347815586
796,10.581249848444545,-0.5464693462744639,-0.16513123217254308,-0.3336925103118086
797,10.59454287589234,-0.6637744343353459,-0.18053521774761966,-0.3622763674352905
798,10.607835903340131,-0.8338216346873898,-0.20016857068192812,-0.3960742750926487
799,10.621128930787927,-1.0523308395990643,-0.2227915921092758,-0.4335009311492725
800,10.634421958235723,-1.3090870155808687,-0.2465315371972825,-0.4722733765572308
801,10.647714985683518,-1.5891633829868521,-0.2691578358978032,-0.5096626663923305
802,10.661008013131312,-1.8751171890574865,-0.2884579362744944,-0.5428649483369388
803,10.674301040579106,-2.149668867401363,-0.30263019047009887,-0.569434814525035
804,10.687594068026902,-2.3982327522875244,-0.310600157485071,-0.5876871986076905
805,10.700887095474696,-2.610717122827402,-0.3121848028083327,-0.5969618513310669
806,10.71418012292249,-2.782238660157887,-0.3080701828597936,-0.5976704426325398
807,10.727473150370283,-2.9127180051275174,-0.29961835312711543,-0.5911065109121413
808,10.74076617781808,-3.005623604677302,-0.28856149944819875,-0.5790712130150611
809,10.754059205265875,-3.0663134296288375,-0.2766628362312779,-0.5634248083710919
810,10.76735223271367,-3.10044764413711,-0.26542079324039075,-0.5456935395688017
811,10.780645260161464,-3.112832536762082,-0.2558707824573563,-0.5268378773710077
812,10.793938287609258,-3.1068700783472356,-0.24850784257772476,-0.5072308216322551
813,10.807231315057054,-3.084597000920194,-0.24332377832167082,-0.4868247978145156
814,10.820524342504848,-3.0471516290247838,-0.23993038581945636,-0.4654266685605831
815,10.833817369952644,-2.995430013340261,-0.23772838559469528,-0.44297214205125474
816,10.847110397400437,-2.930689744845852,-0.23607970465024683,-0.41970227853488284
817,10.860403424848233,-2.8549199535488885,-0.23444740418297,-0.39619034637989375
818,10.873696452296029,-2.7708957341373925,-0.23248047182228343,-0.37322820212189883
819,10.88698947974382,-2.6819409504422294,-0.23003651785709656,-0.35163264916320236
820,10.900282507191616,-2.5915016988544486,-0.22715025370949019,-0.3320534971366276
821,10.91357553463941,-2.5026638826346774,-0.2239661525927284,-0.3148503510595652
822,10.926868562087206,-2.4177339121832406,-0.22065817125983786,-0.3000657695220581
823,10.940161589535,-2.3379609106579657,-0.21735809935893513,-0.2874801502861451
824,10.953454616982794,-2.263436360261829,-0.21410864792526693,-0.276708409677547
825,10.966747644430589,-2.193177942881298,-0.21084978730322418,-0.26729781744537406
826,10.980040671878385,-2.1253874469980247,-0.2074387081751567,-0.2588036383234689
827,10.99333369932618,-2.057855915962037,-0.2036962765864877,-0.25084023000835903
828,11.006626726773971,-1.9884620034977354,-0.19946701673774211,-0.24311735052265102
829,11.019919754221768,-1.9156736645477637,-0.19467652957897066,-0.23547007077302942
830,11.033212781669562,-1.8389352847243055,-0.18937071569098446,-0.22788023381930844
831,11.046505809117358,-1.7588245160266966,-0.18372552376070705,-0.22047736746647506
832,11.059798836565152,-1.6769096332657774,-0.17802349786420937,-0.21350596285818524
833,11.073091864012946,-1.5953235946432902,-0.17260225898598824,-0.2072566014804878
834,11.08638489146074,-1.5161677565001233,-0.16778755874318646,-0.20197550036304482
835,11.099677918908537,-1.4409270970459092,-0.16382732008266207,-0.19778117990852792
836,11.11297094635633,-1.370087223717808,-0.16084220374781222,-0.1946199184625442
837,11.126263973804123,-1.3030826167280174,-0.15880354095920501,-0.19228098138002608
838,11.13955700125192,-1.2385961723682968,-0.15754281948476376,-0.19047238054451132
839,11.152850028699714,-1.1751126677292114,-0.15679012048971067,-0.18893605676484
840,11.16614305614751,-1.1115452282283516,-0.1562331539503919,-0.18756584226164758
841,11.179436083595304,-1.0477312207803378,-0.15558448883143225,-0.18648763874248223
842,11.192729111043098,-0.9846367092761545,-0.1546427204300125,-0.18607044407669357
843,11.206022138490892,-0.9242001176661826,-0.15333407348686642,-0.18685677081943391
844,11.219315165938688,-0.8688554414784003,-0.1517244047308422,-0.18942581517339888
845,11.232608193386485,-0.8208686924709859,-0.14999738007953062,-0.1942247445387473
846,11.245901220834275,-0.7816711442149518,-0.148402016751597,-0.20141559450554034
847,11.259194248282071,-0.7513689489014126,-0.14718072526882484,-0.2107836396245202
848,11.272487275729866,-0.7285595293962579,-0.1464958954400537,-0.221738324517483
849,11.285780303177662,-0.7105121020842632,-0.14637680374248102,-0.23341429908963693
850,11.299073330625456,-0.693694792024344,-0.14670691157853366,-0.24485413265616468
851,11.31236635807325,-0.6745675567682283,-0.14726314385331274,-0.25523241160159943
852,11.325659385521044,-0.6505122702509474,-0.14780429717044605,-0.2640686562593477
853,11.33895241296884,-0.6207383577075712,-0.1481888653399459,-0.2713772410630363
854,11.352245440416636,-0.5869859045199697,-0.148488842563952,-0.2777164322361555
855,11.365538467864427,-0.5538541239761918,-0.14906101683498843,-0.2841220684339789
856,11.378831495312223,-0.5286198196394069,-0.1505440048413319,-0.29193757863595166
857,11.392124522760016,-0.5204844829327738,-0.15376699322886309,-0.302573634885777
858,11.405417550207812,-0.5392986897927261,-0.1595803160734929,-0.3172428649578055
859,11.418710577655608,-0.5939432804720647,-0.1686419449754616,-0.3367170657631899
860,11.432003605103402,-0.690666263696108,-0.18121088495001825,-0.36114912809741545
861,11.445296632551196,-0.8317390274174784,-0.19700308319152407,-0.38999264166300573
862,11.458589659998992,-1.0147662913860849,-0.21515516398878864,-0.4220394744721285
863,11.471882687446788,-1.2328473516319953,-0.23431699103172732,-0.4555773582105133
864,11.48517571489458,-1.4755678486319244,-0.25286078527890726,-0.4886442146155248
865,11.498468742342377,-1.7305679695736809,-0.2691614111551863,-0.5193273424133004
866,11.51176176979017,-1.9852704287077654,-0.2818805880679574,-0.5460341222931299
867,11.525054797237964,-2.228328002413389,-0.29018593188173564,-0.5676600303563848
868,11.53834782468576,-2.450480777344992,-0.2938555478768634,-0.5836076410484078
869,11.551640852133554,-2.6447467130754356,-0.2932531388747764,-0.5936619516900127
870,11.564933879581348,-2.806110410733193,-0.28919414660791176,-0.597783427780226
871,11.578226907029144,-2.931028896640306,-0.2827478440244043,-0.5959152774332379
872,11.591519934476938,-3.017086024236209,-0.27502757856857774,-0.5878977194196924
873,11.604812961924733,-3.06300454509969,-0.2670135459165125,-0.5735387900796309
874,11.618105989372529,-3.0690237313238335,-0.25943628690894704,-0.5528252172925099
875,11.63139901682032,-3.03745297458659,-0.2527311705202955,-0.5261938183038203
876,11.644692044268115,-2.9730954058804833,-0.24705824672513724,-0.4947482087861511
877,11.657985071715911,-2.883245441225371,-0.2423695329507275,-0.46031245204293825
878,11.671278099163706,-2.7770970067101994,-0.23849820476817996,-0.42526326277755255
879,11.6845711266115,-2.6646048654214036,-0.23524291922643598,-0.3921597322246259
880,11.697864154059296,-2.5550427815325936,-0.23242653651186224,-0.3632657243907457
881,11.71115718150709,-2.455625031390586,-0.22992033104415913,-0.3401046047252035
882,11.724450208954885,-2.370558228086197,-0.22763813647333905,-0.32318041453833585
883,11.73774323640268,-2.3007698306728273,-0.22551446400493877,-0.3119467589764557
884,11.751036263850471,-2.2443619693066674,-0.22348292416439022,-0.3050264678889477
885,11.764329291298267,-2.1976330850767525,-0.22146634886978092,-0.30061125917995585
886,11.777622318746063,-2.1563628362242384,-0.21938132888111622,-0.29692533933244925
887,11.790915346193858,-2.11701002003756,-0.2171522191195663,-0.29263035608580756
888,11.804208373641652,-2.077533448022249,-0.21472646928290393,-0.28707712769058685
889,11.817501401089448,-2.037681169218154,-0.21208491181190378,-0.2803586076780041
890,11.830794428537242,-1.9987531375521725,-0.20924510221506185,-0.273172571218764
891,11.844087455985036,-1.9629752049705453,-0.20625960801462104,-0.2665477669200172
892,11.85738048343283,-1.932694841747722,-0.20321201581671788,-0.2615144700818674
893,11.870673510880623,-1.9096144796678207,-0.20021144500301374,-0.25880544132337013
894,11.88396653832842,-1.8942331023508316,-0.19738360095861288,-0.25865756434930276
895,11.897259565776215,-1.8855969567311424,-0.1948554056786294,-0.2607538276836226
896,11.91055259322401,-1.8813882146185024,-0.19273230447109993,-0.2643083811549115
897,11.923845620671804,-1.8783171289903278,-0.19107166663387282,-0.26826298594415293
898,11.9371386481196,-1.8727310278299885,-0.18985979158753605,-0.2715386975116394
899,11.950431675567394,-1.8613133257186532,-0.18900119456614684,-0.2732770024689313
900,11.963724703015188,-1.841722883918129,-0.18832588751980264,-0.27301149878461856
901,11.977017730462984,-1.8130280969852204,-0.18761449369275982,-0.2707323873455419
902,11.990310757910777,-1.7758292909312896,-0.1866351293886452,-0.26683594060059096
903,12.003603785358573,-1.732036241000136,-0.1851827994364926,-0.2619820172743137
904,12.016896812806367,-1.6843588841704749,-0.18311259376223707,-0.25690638733017895
905,12.03018984025416,-1.6356501214976065,-0.18036125914598294,-0.2522441693354507
906,12.043482867701956,-1.5882801960410529,-0.17695576560497384,-0.24841261547375476
907,12.056775895149752,-1.5437061325817958,-0.1730105483444192,-0.2455781033377527
908,12.070068922597546,-1.502333049601734,-0.16871634463369578,-0.24370195451597218
909,12.08336195004534,-1.4636720041809343,-0.1643230203131864,-0.24263425163654792
910,12.096654977493134,-1.4267135323210827,-0.1601172377797338,-0.24221365748115417
911,12.109948004940929,-1.3903829823580964,-0.15639450062083968,-0.24233710121514843
912,12.123241032388725,-1.3539353540939807,-0.15342535843566882,-0.2429813332045781
913,12.13653405983652,-1.3171818156040995,-0.15141799031784794,-0.24417977558068862
914,12.149827087284311,-1.280503892937765,-0.1504831537019617,-0.2459742682894846
915,12.163120114732108,-1.2446827063224464,-0.15061037185021203,-0.24836732829390865
916,12.176413142179904,-1.210625095105614,-0.15166391063808,-0.2512959969508908
917,12.189706169627698,-1.179087922168265,-0.15340276025100447,-0.25463657667879647
918,12.202999197075492,-1.1504830605036582,-0.15552198469554346,-0.2582359778818992
919,12.216292224523286,-1.1248018243164866,-0.15770644386369587,-0.261955408897741
920,12.22958525197108,-1.1016510299022935,-0.15968475726137463,-0.2657091240813968
921,12.242878279418877,-1.0803623319945421,-0.1612724005962771,-0.269485161461687
922,12.256171306866673,-1.0601289570768015,-0.16239687474352904,-0.2733437389967148
923,12.269464334314463,-1.0401336766454286,-0.16310265533264134,-0.27739775073287687
924,12.28275736176226,-1.0196462096606416,-0.16353700304673505,-0.28178431902919976
925,12.296050389210055,-0.9980764015332471,-0.1639189206452613,-0.286634808414775
926,12.30934341665785,-0.974969746026266,-0.16449363821757199,-0.2920453062137219
927,12.322636444105644,-0.9499335391066026,-0.16547630096074223,-0.2980457992185627
928,12.335929471553438,-0.9225000368117642,-0.16699293077814645,-0.3045692053605349
929,12.349222499001232,-0.891974905807568,-0.169033733584861,-0.3114311447633307
930,12.362515526449029,-0.8573726770263022,-0.17143959758073937,-0.3183412289567119
931,12.375808553896825,-0.8175727561736301,-0.17394141170724,-0.32496695514676666
932,12.389101581344615,-0.7718019781482586,-0.17625946979308013,-0.33105621578943645
933,12.402394608792411,-0.7204456969606191,-0.17824784691609916,-0.3365974604895129
934,12.415687636240207,-0.666031213861446,-0.1800438353990291,-0.34196964156589854
935,12.428980663688002,-0.6140742670185388,-0.18216665842700938,-0.34802106414714895
936,12.442273691135796,-0.5734044062299269,-0.18551243437053253,-0.3560252289734703
937,12.45556671858359,-0.555642556793668,-0.19121670549343378,-0.36749146277719313
938,12.468859746031384,-0.5737026936577501,-0.20039600140432987,-0.38384964172162234
939,12.48215277347918,-0.639482994734519,-0.21382322384735622,-0.40606926974112434
940,12.495445800926976,-0.761209678198572,-0.23162303793044559,-0.43430184171397773
941,12.508738828374767,-0.9410928414810631,-0.2530805990115373,-0.46764336960682396
942,12.522031855822563,-1.173963903724348,-0.2766345637322489,-0.5040973383161501
943,12.53532488327036,-1.4473612389168742,-0.30007773636834745,-0.5407782612839684
944,12.548617910718152,-1.7431614031660703,-0.3209295752683033,-0.5743387095859794
945,12.561910938165948,-2.0404302759838613,-0.33689343396439514,-0.6015404460885366
946,12.575203965613742,-2.3188304234010046,-0.3462857377510381,-0.6198409451319699
947,12.588496993061536,-2.561779564160891,-0.34833314767115553,-0.6278491588912711
948,12.601790020509332,-2.7586498285132777,-0.3432728686538984,-0.6255305636497958
949,12.615083047957128,-2.905584808825589,-0.33224552971617843,-0.614107550102097
950,12.62837607540492,-3.0048894375001516,-0.31702107328710255,-0.5956869659204419
951,12.641669102852717,-3.063300827888086,-0.29963205784418495,-0.5727233274810705
952,12.654962130300513,-3.089684991598945,-0.2820004684564153,-0.5474685421873228
953,12.668255157748304,-3.092777002887708,-0.2656355522112933,-0.5215544285350372
954,12.6815481851961,-3.079490008425384,-0.2514568049904331,-0.49580650687515676
955,12.694841212643894,-3.0541027666089113,-0.23976418153389933,-0.4703136096853926
956,12.708134240091688,-3.018366829483865,-0.23034323790217368,-0.4447020932829475
957,12.721427267539484,-2.9723316319999777,-0.22266316926135118,-0.4185090796794684
958,12.734720294987278,-2.9155301364709096,-0.2161074171432174,-0.39153103126503785
959,12.748013322435073,-2.8481269328928156,-0.21017443159503696,-0.3640442334493096
960,12.761306349882869,-2.771697191586117,-0.20460076680458972,-0.33684239948520156
961,12.774599377330665,-2.689446148208812,-0.19938536966439455,-0.31109592774078426
962,12.787892404778455,-2.6058507554787034,-0.19472422707391007,-0.2880885682691279
963,12.801185432226251,-2.5258625018518237,-0.19088898277113114,-0.2689165274300055
964,12.814478459674046,-2.453915313917486,-0.18809457839281368,-0.2542367521988768
965,12.82777148712184,-2.393012653932001,-0.18639717094853098,-0.24412824402833588
966,12.841064514569636,-2.344122696041286,-0.18564780384505825,-0.2380922839654686
967,12.85435754201743,-2.306010553305792,-0.18550671766797178,-0.23517711890553686
968,12.867650569465225,-2.2755164130127223,-0.18550560248641484,-0.234181880124859
969,12.88094359691302,-2.24818400369834,-0.18513569631891313,-0.23388101218201626
970,12.894236624360817,-2.2190805862260614,-0.1839391988091848,-0.2332160496319927
971,12.90752965180861,-2.183636003832123,-0.18158697990344747,-0.23142190758372172
972,12.920822679256403,-2.1383556396958365,-0.17793262564569998,-0.22808096865023714
973,12.934115706704198,-2.0813112774932834,-0.17303826106698503,-0.2231194601603611
974,12.947408734151992,-2.012364760676906,-0.1671705286253775,-0.21676901692059994
975,12.960701761599788,-1.9331194272145529,-0.16076680153442524,-0.20951094065207646
976,12.973994789047582,-1.8466221795546551,-0.15437404661282475,-0.20200816828297147
977,12.987287816495376,-1.7568619171892168,-0.14856683547902058,-0.1950205981115157
978,13.00058084394317,-1.668135808280113,-0.1438563563201793,-0.18930050177400778
979,13.013873871390969,-1.5843832171144898,-0.1406068573044568,-0.18547600314573168
980,13.02716689883876,-1.5086059764579647,-0.13897709450843393,-0.18394437553210843
981,13.040459926286555,-1.4424856519675795,-0.13890028037508798,-0.18480302443675786
982,13.05375295373435,-1.3862645805523242,-0.14010710201382653,-0.18783864109412668
983,13.067045981182146,-1.338888601294944,-0.1421853807395539,-0.1925770808370312
984,13.08033900862994,-1.2983437904276076,-0.14466100818217897,-0.1983781443640825
985,13.093632036077734,-1.2620861043796607,-0.14708139205109308,-0.2045505881487621
986,13.106925063525528,-1.227471870304865,-0.14908562037679,-0.21046580303997844
987,13.120218090973324,-1.1921334043772582,-0.15045251737744866,-0.21565729192622282
988,13.13351111842112,-1.1542788033828753,-0.15112453362620148,-0.21989803590207677
989,13.146804145868913,-1.1129064274675482,-0.1512087218946672,-0.22324497382522512
990,13.160097173316707,-1.0679125902337139,-0.15095565565584773,-0.226034020517929
991,13.1733902007645,-1.020055090812532,-0.15071579985769978,-0.2288104710436398
992,13.186683228212296,-0.9707399780531395,-0.15087414071717437,-0.23219525150286816
993,13.199976255660092,-0.9216369818725819,-0.15176952188908607,-0.23671424841435731
994,13.213269283107886,-0.8741923653423623,-0.15361342480587517,-0.24264288941718318
995,13.22656231055568,-0.8291705439477637,-0.15642950935623443,-0.24992549342035097
996,13.239855338003474,-0.7863857886158306,-0.16003556735831712,-0.2582099458775275
997,13.25314836545127,-0.7447607325263154,-0.1640816630266016,-0.2669976726726442
998,13.266441392899065,-0.7027689339854291,-0.1681439389875545,-0.27586348307568004
999,13.27973442034686,-0.6592065821819278,-0.17185738489608393,-0.2846699897817182
1000,13.293027447794652,-0.6141281610772983,-0.17505771192988134,-0.2937002677859392
1001,13.30632047524245,-0.5697057740570923,-0.17789579829822413,-0.30366017785745014
1002,13.319613502690244,-0.5307541945002728,-0.18088958928936497,-0.3155463179433944
1003,13.332906530138038,-0.5047113142391955,-0.1848881349018918,-0.330419263973785
1004,13.346199557585832,-0.5009693205049801,-0.19093974822828705,-0.3491487235726103
1005,13.359492585033626,-0.5295945239756965,-0.20007859898042063,-0.37219871909957775
1006,13.372785612481422,-0.5996221070313953,-0.21306703445213576,-0.399498363130808
1007,13.386078639929217,-0.7172322977858254,-0.2301487118777036,-0.43040870300584916
1008,13.399371667377013,-0.8841778812467113,-0.25087428645431564,-0.4637657064399968
1009,13.412664694824803,-1.096820523620804,-0.27405271332304004,-0.4979681536957348
1010,13.4259577222726,-1.346037917345365,-0.29785658863904746,-0.5310898962831911
1011,13.439250749720395,-1.618093850731929,-0.3200737191596537,-0.5610173264007329
1012,13.45254377716819,-1.896349566231556,-0.33845847936562007,-0.5856262757807364
1013,13.465836804615984,-2.163490778300516,-0.35110732297971253,-0.6030047134420664
1014,13.479129832063778,-2.4038142723047016,-0.3567733913866808,-0.6117006815027428
1015,13.492422859511574,-2.6051097249657107,-0.3550499662105842,-0.6109456048103761
1016,13.505715886959369,-2.75979459685313,-0.3463877179924628,-0.6007915153568345
1017,13.519008914407165,-2.8651715918911496,-0.3319550322603102,-0.5821168314752334
1018,13.532301941854955,-2.9229037087568916,-0.3133893983651788,-0.5564927373808011
1019,13.545594969302751,-2.937964645454298,-0.29250842346258693,-0.5259428517480922
1020,13.558887996750547,-2.9173789571965294,-0.271046418460549,-0.4926546217509394
1021,13.572181024198342,-2.869022677774793,-0.2504611010566078,-0.45870375440134653
1022,13.585474051646136,-2.8006541983804363,-0.2318260527229447,-0.4258375076881668
1023,13.59876707909393,-2.7192385583903054,-0.21580027570978288,-0.3953400407035127
1024,13.612060106541726,-2.630550578435428,-0.2026536348405921,-0.3679830085734989
1025,13.62535313398952,-2.5390035337335157,-0.19232604759283012,-0.3440511030714474
1026,13.638646161437316,-2.447643308475701,-0.1845039515856315,-0.3234246130064701
1027,13.651939188885107,-2.3582599763306615,-0.17870413211251165,-0.30569758239285816
1028,13.665232216332903,-2.2715864045806557,-0.1743591904846515,-0.2903099589425668
1029,13.6785252437807,-2.18756594452175,-0.17090032958624093,-0.27667497856063483
1030,13.691818271228492,-2.1056717765650075,-0.16783265662535055,-0.2642881074817874
1031,13.705111298676288,-2.025248636650484,-0.16479691808078165,-0.2528093325708174
1032,13.718404326124082,-1.945830219622873,-0.1616104501969547,-0.24211421093156238
1033,13.731697353571878,-1.8673739112286756,-0.15828021492354355,-0.2323098027645813
1034,13.744990381019672,-1.790359393702498,-0.15498313384179507,-0.2237109968351904
1035,13.758283408467468,-1.7157235676411866,-0.15201400969837264,-0.21677445499872536
1036,13.77157643591526,-1.6446459475061082,-0.1497085256563795,-0.21199427421704561
1037,13.784869463363057,-1.5782423051629666,-0.14835623644689103,-0.20977464703671325
1038,13.798162490810853,-1.5172526578989582,-0.14812326175216337,-0.21030576407304943
1039,13.811455518258644,-1.461809996643239,-0.14900380962526968,-0.2134744065170129
1040,13.82474854570644,-1.4113465611670213,-0.15081261065433982,-0.2188364905356514
1041,13.838041573154234,-1.3646459890578995,-0.15321859519361097,-0.2256649669288546
1042,13.85133460060203,-1.3200026877979287,-0.15580806711767434,-0.23306626291858143
1043,13.864627628049824,-1.27542594488175,-0.15815829563714812,-0.2401383230135626
1044,13.877920655497618,-1.2288380968436776,-0.15990300756030737,-0.2461310608577217
1045,13.891213682945413,-1.1782586063508993,-0.16077908493082763,-0.2505713722174632
1046,13.904506710393209,-1.1220159737617845,-0.1606545906435952,-0.2533298075514474
1047,13.917799737841005,-1.0590550434847197,-0.15954633386640285,-0.25462791234252713
1048,13.931092765288795,-0.989384170020346,-0.1576363580318514,-0.2550036760499545
1049,13.944385792736592,-0.9146331821822464,-0.15529043180216906,-0.2552586930677718
1050,13.957678820184386,-0.8385944071961688,-0.15307109712555078,-0.25640230621569593
1051,13.970971847632182,-0.7675384716598659,-0.15172851532060908,-0.25959105038086655
1052,13.984264875079976,-0.7100775304885737,-0.15214946691749,-0.2660470792860458
1053,13.99755790252777,-0.6764156488948866,-0.1552513091444715,-0.27693665695063363
1054,14.010850929975565,-0.6769732317937999,-0.16182298358131295,-0.29320191278672597
1055,14.02414395742336,-0.7205622800048712,-0.17233542516795794,-0.3153603549129974
1056,14.037436984871157,-0.8124643468528217,-0.18676263218019779,-0.34330763628265676
1057,14.05073001231895,-0.9528642440300482,-0.20446505729804396,-0.3761722047147878
1058,14.064023039766743,-1.1360774679223111,-0.2241829879817182,-0.4122723421608381
1059,14.077316067214538,-1.350865466678328,-0.24416688823583568,-0.4492154054030098
1060,14.090609094662334,-1.5818841651278965,-0.2624373900307829,-0.48415447890634195
1061,14.103902122110128,-1.8120177976332816,-0.27712869739317464,-0.5141796227544904
1062,14.117195149557922,-2.0250977300482003,-0.28683834842396244,-0.5367763772697269
1063,14.130488177005716,-2.2083807219808533,-0.2908956765157672,-0.5502484650916993
1064,14.143781204453513,-2.354215727767049,-0.28947717826126185,-0.5539934355774587
1065,14.157074231901309,-2.460555331738361,-0.28353638502917455,-0.5485511113556217
1066,14.1703672593491,-2.53029591950262,-0.27456694674240445,-0.5354103193107124
1067,14.183660286796895,-2.569748952964316,-0.26426383613116206,-0.5166361702806054
1068,14.19695331424469,-2.58674690589667,-0.25417350225348123,-0.494435444333804
1069,14.210246341692486,-2.5889108117230935,-0.2454212019021865,-0.47078653460624875
1070,14.22353936914028,-2.582462027838555,-0.23857470088152552,-0.44722035732336046
1071,14.236832396588074,-2.571721849947727,-0.2336594028534436,-0.4247711692528889
1072,14.250125424035868,-2.5592085293842524,-0.23029639380247668,-0.4040540463515271
1073,14.263418451483664,-2.546092384256825,-0.22790559773190422,-0.38539442571072363
1074,14.27671147893146,-2.5327375085084487,-0.22590833728360257,-0.3689413198344678
1075,14.290004506379251,-2.5191241590825624,-0.2238761611572761,-0.35472799056227583
1076,14.303297533827047,-2.5050603057487293,-0.22159849985499538,-0.3426817025263403
1077,14.31659056127484,-2.4902012977900556,-0.21907027223858902,-0.3326098804463546
1078,14.329883588722636,-2.473965944322504,-0.2164226856474645,-0.3241953476386945
1079,14.343176616170432,-2.455452423114793,-0.21383077095996894,-0.3170207233759108
1080,14.356469643618226,-2.43342816114209,-0.21142929085639475,-0.31062124341873254
1081,14.36976267106602,-2.406418412487777,-0.2092582475278461,-0.3045480657101366
1082,14.383055698513816,-2.3728747333158564,-0.20724582582643525,-0.2984190131093339
1083,14.39634872596161,-2.3313832042943674,-0.2052251742952708,-0.2919420795734032
1084,14.409641753409405,-2.2808743349957163,-0.20297463433631402,-0.2849130311434993
1085,14.4229347808572,-2.2208111724534576,-0.20026896940493627,-0.2772026057266631
1086,14.436227808304992,-2.1513444765217318,-0.19693022647950995,-0.2687532653727592
1087,14.44952083575279,-2.0734242715104574,-0.1928692405437412,-0.25959771520384106
1088,14.462813863200584,-1.9888461108803765,-0.18811139004548788,-0.24989543138431408
1089,14.476106890648378,-1.9001976709174857,-0.18280280704302304,-0.2399676144653646
1090,14.489399918096172,-1.810669911734387,-0.177196012102571,-0.2303038905929172
1091,14.502692945543968,-1.7237162509310417,-0.171616999051905,-0.22152008029270637
1092,14.515985972991762,-1.642583114327546,-0.16641895637734685,-0.21426349861770758
1093,14.529279000439557,-1.569785464465203,-0.1619304730539037,-0.20908369430378076
1094,14.542572027887353,-1.5066431517556274,-0.15840732765032095,-0.20630391997926972
1095,14.555865055335143,-1.4530080224401403,-0.15599613609739,-0.20593503899128432
1096,14.56915808278294,-1.4072839509628736,-0.15471545250067573,-0.20766526865607185
1097,14.582451110230735,-1.3667728978287887,-0.1544564807166803,-0.2109368818304017
1098,14.59574413767853,-1.3282875699318597,-0.15500251819728603,-0.21509108019093645
1099,14.609037165126324,-1.2888855295010788,-0.15606395073191026,-0.21953580834785882
1100,14.62233019257412,-1.2465316625496643,-0.15732358717347342,-0.22387998147252583
1101,14.635623220021914,-1.2005047798821946,-0.15848501676539592,-0.22798781022107076
1102,14.648916247469709,-1.1514295431791497,-0.1593150259493912,-0.23193581980228856
1103,14.662209274917505,-1.1009185091379838,-0.1596711943608018,-0.23589166280278104
1104,14.675502302365295,-1.0509213848515537,-0.15950865682785847,-0.23996341885272182
1105,14.688795329813091,-1.0029675318858535,-0.15886555706300307,-0.24407913866265513
1106,14.702088357260887,-0.9575266788564376,-0.15783334229158189,-0.2479450935540894
1107,14.715381384708682,-0.91368812198239,-0.1565232586887022,-0.25110299015324905
1108,14.728674412156476,-0.8692759299682845,-0.1550419756330001,-0.253073095039597
1109,14.741967439604272,-0.8214013602439276,-0.15348637263043716,-0.2535437930748953
1110,14.755260467052066,-0.7673386476232744,-0.1519611579235569,-0.25255530176394725
1111,14.76855349449986,-0.7055282002316535,-0.1506153759773714,-0.2506262441500128
1112,14.781846521947656,-0.6364802361560052,-0.14968732330390788,-0.24878322619258486
1113,14.795139549395447,-0.5633739917976338,-0.14954340729950552,-0.2484726251335819
1114,14.808432576843243,-0.49221148188819264,-0.15069545864066733,-0.2513590209169661
1115,14.82172560429104,-0.4314706303536695,-0.1537827625989335,-0.25904338460868304
1116,14.835018631738834,-0.39128830968486233,-0.15950959039960252,-0.2727594801942411
1117,14.848311659186628,-0.3822726515889264,-0.16853677134489742,-0.29311898326577596
1118,14.861604686634424,-0.4140908944012039,-0.18133718961648365,-0.3199666775493401
1119,14.874897714082218,-0.49401018606985914,-0.19803879469436428,-0.3523769879670759
1120,14.888190741530012,-0.6255922855571706,-0.21829099790210488,-0.38878264549620084
1121,14.901483768977808,-0.8077571904858948,-0.24119552350826098,-0.4271922909458387
1122,14.9147767964256,-1.0344189739572534,-0.26533581038858645,-0.4654403369793963
1123,14.928069823873397,-1.294836985952332,-0.28891851496407406,-0.501422022394556
1124,14.941362851321191,-1.5747066592900951,-0.31001087862585275,-0.5332887133815731
1125,14.954655878768984,-1.8578545313543189,-0.32682832633341546,-0.559596803279224
1126,14.96794890621678,-2.128248864700061,-0.3380090381561375,-0.5794078257593697
1127,14.981241933664576,-2.371946822709702,-0.34281400922260513,-0.5923305930893313
1128,14.99453496111237,-2.578608340099956,-0.3412118489454455,-0.598491005477669
1129,15.007827988560164,-2.7423143590855426,-0.3338387633667953,-0.5984232063709221
1130,15.021121016007958,-2.8615968665147924,-0.32185388212490196,-0.5928979908859489
1131,15.034414043455753,-2.9387683100765982,-0.30672919396478215,-0.5827302664280452
1132,15.047707070903549,-2.9787808360824672,-0.29001918587557296,-0.5686219222503082
1133,15.061000098351345,-2.9879191950661066,-0.2731508288454905,-0.5510895015982471
1134,15.074293125799135,-2.972622459409421,-0.2572645793584549,-0.530497648009871
1135,15.087586153246932,-2.9386475329063675,-0.24312473844678714,-0.5071794891118566
1136,15.100879180694728,-2.890660850901165,-0.23110397002013108,-0.48158972234113906
1137,15.114172208142522,-2.8322153230332168,-0.2212329836125581,-0.4544204676133507
1138,15.127465235590316,-2.7659769698683845,-0.21329461917196565,-0.42662218233396465
1139,15.14075826303811,-2.6940326976704956,-0.20693494043482089,-0.3993087391402843
1140,15.154051290485905,-2.6181371363593575,-0.20176450293932185,-0.37357261322776547
1141,15.1673443179337,-2.5398230559242347,-0.19743030654295352,-0.35027345726294923
1142,15.180637345381497,-2.4603774664502516,-0.19365033383563174,-0.32987557544896406
1143,15.19393037282929,-2.380745825412081,-0.19021424834724143,-0.3123923579066817
1144,15.207223400277083,-2.30145113043856,-0.18696243540453927,-0.2974565612712149
1145,15.22051642772488,-2.222599123121336,-0.1837591469056786,-0.28449063356294724
1146,15.233809455172674,-2.1439963725531053,-0.1804738520088258,-0.27291803370499684
1147,15.247102482620468,-2.065355516064374,-0.17697939608104313,-0.2623456928470116
1148,15.260395510068262,-1.9865234473290718,-0.1731685028318796,-0.25266149012169326
1149,15.273688537516056,-1.907658032272733,-0.16898363044106798,-0.24402276403537662
1150,15.286981564963853,-1.8292982068045234,-0.1644504864882924,-0.23675073977446578
1151,15.300274592411649,-1.7523099884325803,-0.1597031698494068,-0.23117734144614677
1152,15.31356761985944,-1.6777299093162077,-0.15498929202935033,-0.22750326842950883
1153,15.326860647307235,-1.6065526433682145,-0.15064686712512143,-0.22571459352972836
1154,15.340153674755031,-1.5395140815524362,-0.14705115514208758,-0.2255750128024302
1155,15.353446702202826,-1.4769073324896502,-0.14453797309155314,-0.22667690175713323
1156,15.36673972965062,-1.4184474148482047,-0.14331826143167553,-0.22851359930742657
1157,15.380032757098414,-1.3631846939832697,-0.1434044673184402,-0.23053795260680204
1158,15.393325784546208,-1.3094685244958002,-0.14457042761819933,-0.23219473521008602
1159,15.406618811994004,-1.2549820511064507,-0.14636172232314817,-0.2329417025837062
1160,15.4199118394418,-1.196893623334623,-0.14816323786764013,-0.2322878783696516
1161,15.433204866889591,-1.1321776322741366,-0.14931699122757192,-0.22986931686348652
1162,15.446497894337387,-1.0581301543751154,-0.1492696409880037,-0.2255576964104814
1163,15.459790921785183,-0.9730433485820311,-0.147719524635595,-0.21957133780687058
1164,15.473083949232976,-0.8769292297686746,-0.14473046840602594,-0.2125465885443468
1165,15.486376976680772,-0.7721304034780676,-0.1407847806519576,-0.2055352849109046
1166,15.499670004128566,-0.6636471420560195,-0.13675919732576497,-0.19991555247657533
1167,15.51296303157636,-0.5590519305796873,-0.13382214165778797,-0.19722763455806508
1168,15.526256059024156,-0.4679402094953093,-0.13326538518916264,-0.19896470307908048
1169,15.53954908647195,-0.40095551363358606,-0.13629554926223328,-0.2063568851555797
1170,15.552842113919745,-0.3685062337288994,-0.14381907873294317,-0.22018546074529577
1171,15.56613514136754,-0.37934718085200836,-0.1562572184368533,-0.2406556823820597
1172,15.579428168815337,-0.43923058680205224,-0.1734247163071213,-0.2673440254461463
1173,15.59272119626313,-0.5498421145011381,-0.19449781912647923,-0.29922261668693895
1174,15.606014223710924,-0.7082272430049551,-0.21808444729465276,-0.33475366246093946
1175,15.619307251158718,-0.9068703445560279,-0.24239312262573068,-0.37204135386518633
1176,15.632600278606512,-1.1344960449202062,-0.2654784428596331,-0.40902596838066485
1177,15.645893306054308,-1.3775167370378711,-0.28552227737534674,-0.4437006920056699
1178,15.659186333502102,-1.62188013083894,-0.3010965535980458,-0.47432399178362833
1179,15.672479360949897,-1.8549368192280717,-0.3113521618577795,-0.49959246614076647
1180,15.685772388397693,-2.066915157914257,-0.31609354698364023,-0.5187387018034025
1181,15.699065415845489,-2.2516902793960103,-0.3157279446236334,-0.5315321340643906
1182,15.71235844329328,-2.406738716578187,-0.3111123931538382,-0.5381867997675344
1183,15.725651470741075,-2.5324041930260623,-0.30334740222589696,-0.5392078123659568
1184,15.73894449818887,-2.630776872642701,-0.2935735600083158,-0.5352253193779872
1185,15.752237525636664,-2.704551453819832,-0.28281519415715556,-0.5268636076383144
1186,15.76553055308446,-2.7561738381109513,-0.27189121558047025,-0.5146765331927109
1187,15.778823580532254,-2.787449454895974,-0.26138924064806046,-0.4991569590476365
1188,15.792116607980049,-2.7996236058570516,-0.2516841725443161,-0.4808050835062403
1189,15.805409635427845,-2.79380401891814,-0.24297916379472598,-0.4602227293141129
1190,15.81870266287564,-2.771510174364547,-0.23535174380597315,-0.4381906720721828
1191,15.831995690323431,-2.735117879607958,-0.22879507976626304,-0.4156875205100326
1192,15.845288717771227,-2.6880197017192446,-0.22324973000691511,-0.39382448510963897
1193,15.858581745219022,-2.634423700809224,-0.2186240057108705,-0.3736987398715165
1194,15.871874772666816,-2.5788312217579183,-0.21480257346260825,-0.35620000561336784
1195,15.885167800114612,-2.5253315262253055,-0.21164474002437217,-0.3418272922807405
1196,15.898460827562406,-2.476899054827265,-0.20897630497053768,-0.330575105306059
1197,15.9117538550102,-2.4348707987602194,-0.2065811754606173,-0.3219293820604949
1198,15.925046882457996,-2.3987294183655967,-0.20420006251543066,-0.3149809286807049
1199,15.93833990990579,-2.366245093561995,-0.20154284484014068,-0.30863062301007077
1200,15.951632937353583,-2.3339556727956428,-0.1983183998417371,-0.30183677720658814
1201,15.96492596480138,-2.297901093189637,-0.19428102628594424,-0.2938460998892182
1202,15.978218992249174,-2.2544776862620486,-0.18928662214993633,-0.2843556944905178
1203,15.991512019696968,-2.201244533352641,-0.1833458619690531,-0.27357112419098145
1204,16.004805047144764,-2.1375064061444373,-0.1766578380428894,-0.2621497426980164
1205,16.018098074592558,-2.064527502634509,-0.1696082664037902,-0.2510436722330534
1206,16.031391102040352,-1.9853022088482752,-0.16272276874525815,-0.24127786008086757
1207,16.044684129488147,-1.9039134808946858,-0.1565773430465203,-0.23371177492375128
1208,16.05797715693594,-1.8246198510544407,-0.15168204608069644,-0.22883663028521212
1209,16.071270184383735,-1.7508939310093825,-0.14836552427929267,-0.2266533562319712
1210,16.08456321183153,-1.684659002303673,-0.1466925012392957,-0.22666074097810499
1211,16.097856239279327,-1.6259232979118123,-0.1464406154636584,-0.2279600041487821
1212,16.11114926672712,-1.5729045429330661,-0.14714764537833372,-0.2294551097106583
1213,16.124442294174916,-1.5226020871787376,-0.14821977222594082,-0.23010360392532753
1214,16.13773532162271,-1.471653169685148,-0.1490732718987779,-0.22915849772380278
1215,16.151028349070504,-1.4172408580171854,-0.14927249260341852,-0.2263435976828426
1216,16.1643213765183,-1.357821321375538,-0.14862914029081223,-0.22192281014540355
1217,16.177614403966093,-1.293499547968405,-0.14723994592727377,-0.2166516622084036
1218,16.190907431413887,-1.2259799796545825,-0.145456562320231,-0.21162664796742284
1219,16.20420045886168,-1.1581225370832142,-0.14379743967020175,-0.20806720310861743
1220,16.21749348630948,-1.0932222438925978,-0.14282285905680664,-0.20707383872775634
1221,16.230786513757273,-1.0341876371956522,-0.1430002594998924,-0.20940653559174005
1222,16.244079541205068,-0.9828109224497735,-0.1445880451671747,-0.21532320655194578
1223,16.257372568652862,-0.9392984437699514,-0.14756292051478578,-0.22451024411717238
1224,16.270665596100656,-0.9021686068042455,-0.1516086657315775,-0.23612504575575918
1225,16.28395862354845,-0.868540582088785,-0.15617319326602913,-0.2489526679890485
1226,16.297251650996245,-0.8347520171521727,-0.16058663719532193,-0.2616558556755014
1227,16.31054467844404,-0.7971785522310757,-0.16421869244444498,-0.2730732834919117
1228,16.323837705891833,-0.7530967916303348,-0.16664244913723641,-0.2825018386492621
1229,16.33713073333963,-0.7014397265838129,-0.1677684247986462,-0.2898933399586529
1230,16.350423760787425,-0.6433312240990734,-0.16791792297362892,-0.2959098393989866
1231,16.36371678823522,-0.5823352304568469,-0.16781735187567975,-0.3018137703021954
1232,16.377009815683014,-0.5243943781040575,-0.16851050762009112,-0.3092112668912105
1233,16.390302843130808,-0.47745034335001474,-0.17120007654919234,-0.3197058802398645
1234,16.403595870578602,-0.45074199634773526,-0.17704090594120755,-0.334543406779033
1235,16.416888898026397,-0.45379005641507414,-0.1869161038659286,-0.35432995550260193
1236,16.43018192547419,-0.49512168416470903,-0.20123310302829328,-0.3788851546121484
1237,16.443474952921985,-0.5808700316414095,-0.21977920659502204,-0.4072569040118628
1238,16.456767980369783,-0.7134792203762014,-0.24167192382437774,-0.43788350672551984
1239,16.470061007817577,-0.89080954016959,-0.2654260247883308,-0.4688550379765519
1240,16.48335403526537,-1.1059234608986002,-0.2891370567335329,-0.4982083472286649
1241,16.496647062713166,-1.3477153440691803,-0.3107545566249138,-0.524193242643977
1242,16.50994009016096,-1.6023429516697274,-0.3283947637338224,-0.5454668964664857
1243,16.523233117608754,-1.855187566087738,-0.34062975217169345,-0.5611983887063954
1244,16.53652614505655,-2.092897342981038,-0.3466922798175043,-0.5710843664967624
1245,16.549819172504343,-2.305029525853876,-0.34655363115850446,-0.5752857377408973
1246,16.563112199952137,-2.484927160355249,-0.3408611956241509,-0.5742988565715449
1247,16.576405227399935,-2.6297061699851527,-0.33075599833893826,-0.5687812289164336
1248,16.58969825484773,-2.7395003857940337,-0.317618916053577,-0.5593649445425042
1249,16.602991282295523,-2.816315147985345,-0.30280968065540054,-0.5465048965926199
1250,16.616284309743317,-2.862905485827703,-0.2874601066236122,-0.5304112310042531
1251,16.62957733719111,-2.8820119759236342,-0.2723628234078523,-0.5110970193917089
1252,16.642870364638906,-2.876103413090668,-0.25796570550802184,-0.48853454304745997
1253,16.6561633920867,-2.8475698492184374,-0.24445077254638087,-0.462870855600575
1254,16.669456419534495,-2.7991577706934123,-0.23185512778430642,-0.4346249913610977
1255,16.68274944698229,-2.7343844532508506,-0.22018673718025916,-0.4047896497083468
1256,16.696042474430087,-2.6577128863345774,-0.20949915518597798,-0.3747907103038029
1257,16.70933550187788,-2.57438100385535,-0.19991044563882535,-0.34630601971198594
1258,16.722628529325675,-2.4899115423648985,-0.1915735169523833,-0.3209906804516977
1259,16.73592155677347,-2.4094348505136027,-0.18462000189701339,-0.30018239425149457
1260,16.749214584221264,-2.3370055095476983,-0.17910386883649387,-0.28466071174664226
1261,16.762507611669058,-2.2750786289637612,-0.1749652504625045,-0.27451355022096735
1262,16.775800639116852,-2.2242508148156244,-0.17202400796241882,-0.2691344625635638
1263,16.789093666564646,-2.1832943344832927,-0.17000152379941874,-0.26734508195202666
1264,16.80238669401244,-2.1494486972673785,-0.16856179381101874,-0.2676142185981922
1265,16.81567972146024,-2.1188963076599494,-0.16736026336853224,-0.26832967891876885
1266,16.828972748908033,-2.0873377145773078,-0.16609015592473947,-0.2680714162722212
1267,16.842265776355827,-2.0505879843071058,-0.16451940926140118,-0.2658358663013242
1268,16.85555880380362,-2.0051286695136605,-0.16251493360695515,-0.2611717453959807
1269,16.868851831251416,-1.9485636018730617,-0.16005357238162962,-0.2542061454233539
1270,16.88214485869921,-1.8799394044385263,-0.1572205618936249,-0.24556325812531618
1271,16.895437886147004,-1.7999030870570165,-0.15419678598110906,-0.2362013406286786
1272,16.9087309135948,-1.7106792621760092,-0.15123625799961524,-0.22721016771278374
1273,16.922023941042593,-1.6158586391571015,-0.14863536311830824,-0.21961534129051521
1274,16.93531696849039,-1.5199994834358659,-0.14669545908999687,-0.21422531670104997
1275,16.948609995938185,-1.4280588190339318,-0.14568050573625246,-0.2115363058708931
1276,16.96190302338598,-1.344694622329279,-0.1457719687113152,-0.21168957086747886
1277,16.975196050833773,-1.2735143069198678,-0.14702505192218215,-0.214465489217856
1278,16.988489078281567,-1.216381069533572,-0.14933341812822842,-0.21930292636449814
1279,17.00178210572936,-1.1729142142057294,-0.152412660964802,-0.22534531935379887
1280,17.015075133177156,-1.1403177002968756,-0.15581365438848468,-0.2315255192940079
1281,17.02836816062495,-1.1136344537892733,-0.1589737057448203,-0.23670102879518565
1282,17.041661188072744,-1.0864545123374947,-0.16130598131456372,-0.2398383909375138
1283,17.054954215520542,-1.0520153899836777,-0.1623175856415231,-0.24022590574846303
1284,17.068247242968337,-1.0045427877379665,-0.16173669222401318,-0.23767606514329798
1285,17.08154027041613,-0.940610334781133,-0.15962215611728892,-0.2326698512078643
1286,17.094833297863925,-0.8602657927891442,-0.15642750033001146,-0.22639773561853385
1287,17.10812632531172,-0.7676870260376404,-0.1529964393771235,-0.22066753008939213
1288,17.121419352759514,-0.6711929533581351,-0.15047896101115235,-0.21767548739212425
1289,17.134712380207308,-0.5825329066608356,-0.15017321026471103,-0.21966944163417246
1290,17.148005407655102,-0.5154967689097544,-0.1533151217838605,-0.22856307373040013
1291,17.161298435102896,-0.48400955546350677,-0.16085063380938433,-0.2455787276465545
1292,17.174591462550694,-0.499979230127316,-0.1732313453379127,-0.27099486654286364
1293,17.18788448999849,-0.5712391107358493,-0.19027287585399277,-0.3040516896763013
1294,17.201177517446283,-0.6999523731869856,-0.21110708575206702,-0.34303116431360287
1295,17.214470544894077,-0.8818130543618682,-0.2342462332129118,-0.3854883376634684
1296,17.22776357234187,-1.1062738556770237,-0.25775973280579645,-0.42858200687479503
1297,17.241056599789665,-1.3578528933584149,-0.2795428086254791,-0.4694410865095023
1298,17.25434962723746,-1.6183397238872557,-0.29763347077638524,-0.5055062652797068
1299,17.267642654685254,-1.8694900127779492,-0.3105163117968377,-0.5347980498836039
1300,17.280935682133048,-2.095647281071543,-0.31734741174918685,-0.5560770306763795
1301,17.294228709580846,-2.2857292120352035,-0.31805008694414494,-0.5688799059385623
1302,17.30752173702864,-2.434184662704183,-0.3132640858759542,-0.5734370617808707
1303,17.320814764476435,-2.540815149575378,-0.30416997222388686,-0.5705023324027714
1304,17.33410779192423,-2.609658427309655,-0.29224094326170785,-0.5611453445992641
1305,17.347400819372023,-2.647344756653427,-0.27898543987985114,-0.5465622442877248
1306,17.360693846819817,-2.6613961969461366,-0.2657342253708191,-0.527947223227056
1307,17.37398687426761,-2.658850763203733,-0.2535026599587113,-0.5064395211537689
1308,17.387279901715406,-2.645415706514964,-0.2429338687801589,-0.4831298046747916
1309,17.4005729291632,-2.62516480933378,-0.2343101494721162,-0.4590883843532476
1310,17.413865956610998,-2.6006540498530213,-0.2276113223643396,-0.4353732726289335
1311,17.427158984058792,-2.5732656185566163,-0.22259784714064668,-0.41298901938526805
1312,17.440452011506586,-2.5435987198587324,-0.2188996920547429,-0.39279178956483113
1313,17.45374503895438,-2.5117845453021266,-0.21609649723172578,-0.3753631702112311
1314,17.467038066402175,-2.4776823107066597,-0.21377971111544136,-0.360895318724167
1315,17.48033109384997,-2.440983911334658,-0.21159309523078945,-0.3491358727021716
1316,17.493624121297763,-2.4012941581567597,-0.20925377269617323,-0.33942888159560614
1317,17.506917148745558,-2.3582516436914847,-0.20656041342672377,-0.33085977403058353
1318,17.520210176193352,-2.3117171309851674,-0.20339654567088636,-0.32247653411447336
1319,17.53350320364115,-2.2620005962961818,-0.19973460349869465,-0.3135292727987001
1320,17.546796231088944,-2.2100503040351347,-0.1956410738539371,-0.30365919239877476
1321,17.56008925853674,-2.1575103129699977,-0.1912774358970703,-0.2929811866566346
1322,17.573382285984533,-2.1065771593874563,-0.18688842773919345,-0.28203697958721796
1323,17.586675313432327,-2.0596459026890455,-0.18277056456045382,-0.2716349289313519
1324,17.59996834088012,-2.01880956141065,-0.1792198603695478,-0.26262444165837995
1325,17.613261368327915,-1.9853369626133437,-0.17646635320413118,-0.2556681676253356
1326,17.62655439577571,-1.959278359025776,-0.17461089159408272,-0.25107139319974
1327,17.639847423223504,-1.9393241819526799,-0.17358320346893322,-0.2487086904602914
1328,17.6531404506713,-1.922975398742095,-0.17313732820708583,-0.2480596845328275
1329,17.666433478119096,-1.9069955698820658,-0.17289116695200238,-0.24833694128018816
1330,17.67972650556689,-1.8880346462868585,-0.17240390461451743,-0.24866706780363862
1331,17.693019533014684,-1.8632691835178365,-0.17127288769580806,-0.24827641528520572
1332,17.70631256046248,-1.8309057287502617,-0.16922477200326397,-0.2466368913978553
1333,17.719605587910273,-1.7904393108217984,-0.16617703153933322,-0.2435430569101264
1334,17.732898615358067,-1.7426296903793228,-0.1622548008415061,-0.2391134950539513
1335,17.74619164280586,-1.6892312416979727,-0.15776122824883862,-0.23373031838825267
1336,17.759484670253656,-1.6325669113318364,-0.15311238229670807,-0.22794392326602578
1337,17.772777697701454,-1.5750591387651873,-0.1487560687839206,-0.2223718930161311
1338,17.786070725149248,-1.5188188411322021,-0.14509537913364645,-0.2176122472198019
1339,17.799363752597042,-1.4653574374248757,-0.1424326574339652,-0.2141777070510167
1340,17.812656780044836,-1.4154437750763995,-0.14094044101796344,-0.21244692985492927
1341,17.82594980749263,-1.3690939975301581,-0.14065672266957222,-0.21262604038414265
1342,17.839242834940425,-1.3256655384794642,-0.14149626739982057,-0.21471905912010886
1343,17.85253586238822,-1.284024305301422,-0.14326948449483545,-0.21851388422702692
1344,17.865828889836013,-1.2427592333205983,-0.1457045864598496,-0.22359516552337177
1345,17.879121917283808,-1.2004237085715113,-0.14847432983147218,-0.2293934746440822
1346,17.892414944731605,-1.155784833626695,-0.15123183547767022,-0.23527231008098315
1347,17.9057079721794,-1.1080579863131264,-0.15365850786618654,-0.2406435753569394
1348,17.919000999627194,-1.0570970402227862,-0.15552118669370632,-0.24509149107176242
1349,17.932294027074988,-1.0035041250974963,-0.15672811132537687,-0.24847755448027384
1350,17.945587054522782,-0.9486225242340071,-0.15736785552751173,-0.2509979737901269
1351,17.958880081970577,-0.894386514869934,-0.1577150696311127,-0.253171690280743
1352,17.97217310941837,-0.8430236300458795,-0.1581925908895631,-0.25575131885956337
1353,17.985466136866165,-0.7966362106519008,-0.15929016578116517,-0.259568634379436
1354,17.99875916431396,-0.75672692316856,-0.16145324719515694,-0.265346470124223
1355,18.012052191761757,-0.7237710334466603,-0.16496780075668396,-0.27352447413579406
1356,18.02534521920955,-0.6969649972457177,-0.16987477827365519,-0.28415064460406547
1357,18.038638246657342,-0.6742797419363709,-0.1759467622214357,-0.29687880668149597
1358,18.05193127410514,-0.6529032073385702,-0.18274662389234173,-0.3110838229644687
1359,18.06522430155293,-0.63006771812609,-0.1897648937164941,-0.3260683457852055
1360,18.07851732900073,-0.6041395700833843,-0.19660479512516132,-0.3413007892331888
1361,18.091810356448523,-0.57573347667705,-0.20316117289540458,-0.35660845400219754
1362,18.10510338389632,-0.5485429969750615,-0.2097316760370857,-0.37226054558633886
1363,18.11839641134411,-0.5295836203891083,-0.21701105342061516,-0.3889102513518014
1364,18.13168943879191,-0.5286434616796775,-0.22595051336887068,-0.40741013369796925
1365,18.144982466239703,-0.556916268326351,-0.23750492612523513,-0.4285539089797946
1366,18.158275493687498,-0.6250124751488572,-0.25232840064514117,-0.4528166788184854
1367,18.17156852113529,-0.7407445723430692,-0.2705010321119046,-0.4801601255155285
1368,18.184861548583086,-0.9071966649745531,-0.2913682568200158,-0.5099444898574407
1369,18.19815457603088,-1.1215663605100878,-0.31354796963560094,-0.5409575528129233
1370,18.211447603478675,-1.375100408936828,-0.33511581103829413,-0.5715447040370042
1371,18.22474063092647,-1.6541734818520395,-0.35392887692388103,-0.5998095944584282
1372,18.238033658374263,-1.9422637223946189,-0.36800860902367827,-0.6238498743043696
1373,18.25132668582206,-2.222355618146478,-0.37588820185291594,-0.6419912767358422
1374,18.264619713269852,-2.479222866926893,-0.37684358006524793,-0.6529827236771802
1375,18.27791274071765,-2.7011287524069854,-0.37096395291966444,-0.6561179723064352
1376,18.291205768165444,-2.8806863344086437,-0.3590638390469726,-0.6512610793295878
1377,18.30449879561324,-3.0148654824599346,-0.3424773077249039,-0.6387754631329237
1378,18.317791823061032,-3.1043373439218658,-0.3227962618920769,-0.6193838913173708
1379,18.331084850508827,-3.1524562413305177,-0.3016154822789482,-0.5940079565432604
1380,18.34437787795662,-3.1641814921147353,-0.28033227180518666,-0.5636396494269343
1381,18.35767090540441,-3.1451611234801726,-0.26002542030854614,-0.5292804596378892
1382,18.370963932852213,-3.101082140362566,-0.24141450405716885,-0.4919509226334247
1383,18.384256960300007,-3.037286445553397,-0.22488250821209088,-0.45273967745253685
1384,18.3975499877478,-2.958589672260684,-0.21053633864846266,-0.41284184868816454
1385,18.4108430151956,-2.8692280305265143,-0.1982815140001851,-0.3735419201478028
1386,18.42413604264339,-2.7728797235455573,-0.18789595327805622,-0.3361246836752067
1387,18.437429070091184,-2.6727372405896737,-0.1790975566595515,-0.30173609361834786
1388,18.45072209753898,-2.5716233436856792,-0.17160582884295977,-0.2712449896158235
1389,18.464015124986773,-2.472137278202791,-0.16519693360102966,-0.24516148294348322
1390,18.477308152434567,-2.376793943667473,-0.1597463592372934,-0.22364507647350568
1391,18.490601179882365,-2.2880951150803335,-0.15524866801625173,-0.20659615892809163
1392,18.50389420733016,-2.2084697028655484,-0.15180421239356212,-0.19378786742576434
1393,18.517187234777957,-2.140052048077786,-0.14956989613615526,-0.1849792457014394
1394,18.530480262225748,-2.0843276407498736,-0.14868286882260343,-0.17996206305392437
1395,18.543773289673545,-2.0417410943097076,-0.14917759580216547,-0.1785259135412785
1396,18.557066317121336,-2.011401942298147,-0.15092273989086213,-0.1803636866878236
1397,18.57035934456913,-1.9910183585954437,-0.1536012784320002,-0.18496614947590403
1398,18.583652372016925,-1.9771341407045147,-0.1567452424017831,-0.19156074440726775
1399,18.59694539946472,-1.9656569423511583,-0.1598191929077649,-0.1991352968027263
1400,18.61023842691252,-1.9525754833578552,-0.16233039042042932,-0.20655863413246178
1401,18.62353145436031,-1.9347012257401666,-0.16393473754386906,-0.2127769171621827
1402,18.636824481808105,-1.9102562309437323,-0.164509074585923,-0.21703677450614586
1403,18.6501175092559,-1.8791667236328868,-0.1641709716755124,-0.21907242347865488
1404,18.663410536703694,-1.8429973873507683,-0.16324220415148827,-0.21919857000132406
1405,18.676703564151488,-1.8045500483781671,-0.16216637934615533,-0.21827322307857958
1406,18.68999659159928,-1.7672261979787536,-0.161401113537439,-0.2175279888055826
1407,18.70328961904708,-1.7342970491967236,-0.1613094998675148,-0.21829790049950612
1408,18.71658264649487,-1.7082311430126915,-0.16207470825188322,-0.22170915458374793
1409,18.72987567394267,-1.6902035916953222,-0.1636562613307701,-0.22839576073876888
1410,18.743168701390463,-1.6798655958595567,-0.16579776032374782,-0.23831335340410242
1411,18.756461728838257,-1.6754010466540363,-0.16808488331487523,-0.2507005919536863
1412,18.76975475628605,-1.6738481222481782,-0.17004133359637633,-0.2642074612098929
1413,18.78304778373385,-1.6716229666301075,-0.171241553011844,-0.2771700543956729
1414,18.79634081118164,-1.665152791924477,-0.17141466202855604,-0.2879722404119584
1415,18.809633838629438,-1.6515093183969969,-0.17051543370092237,-0.2954081771191787
1416,18.82292686607723,-1.6289319700632057,-0.16874496764568014,-0.2989561505936824
1417,18.836219893525023,-1.5971446719992806,-0.16651475935942292,-0.29889640236613263
1418,18.84951292097282,-1.5574010704427266,-0.16436095446216684,-0.296246531557517
1419,18.86280594842061,-1.5122397335749858,-0.16282805423174035,-0.2925340691037501
1420,18.87609897586841,-1.464988251823473,-0.16235002079392433,-0.2894626307037017
1421,18.889392003316203,-1.4191114099432343,-0.163158490823844,-0.2885466348924918
1422,18.902685030764,-1.3775375966652283,-0.1652409172160635,-0.2907889100772421
1423,18.915978058211792,-1.3421056311115835,-0.16835716345422716,-0.29646111136179637
1424,18.929271085659582,-1.3132470881822087,-0.1721060239234768,-0.305026102718466
1425,18.94256411310738,-1.2899647421827198,-0.1760196815887087,-0.3152188920154232
1426,18.95585714055517,-1.2701015984007182,-0.179659101505293,-0.3252786237115537
1427,18.96915016800297,-1.2508338570606068,-0.18268764652646158,-0.33329729837705513
1428,18.982443195450767,-1.2292775355336876,-0.18491057948262554,-0.33762301487672153
1429,18.99573622289856,-1.2030791385777746,-0.18627954777841899,-0.33723355681938605
1430,19.009029250346355,-1.1708677882874992,-0.18686951379617284,-0.33199016042459506
1431,19.02232227779415,-1.1324779414698125,-0.18683926301470874,-0.32269933803998996
1432,19.035615305241944,-1.0889026798908088,-0.18638635958667937,-0.31095346683241804
1433,19.048908332689734,-1.0419977426006886,-0.18570521643323934,-0.29877960452161967
1434,19.06220136013753,-0.994012664367598,-0.18495459256425267,-0.2881836167937245
1435,19.075494387585326,-0.9470634303357078,-0.18423898947142567,-0.280713050462684
1436,19.088787415033124,-0.9026704787620493,-0.18360662777891038,-0.2771614880170136
1437,19.10208044248092,-0.861464899065085,-0.1830641645012914,-0.2774954621211916
1438,19.115373469928716,-0.8231233803323842,-0.18260495404630714,-0.28101419308527315
