,time,Red,Green,Blue
0,0.0,-1.1138556185045991,-0.013635730024005168,-0.13193533371369665
1,0.0132872431115092,-1.1173253660330005,-0.013647068695499797,-0.13651606738589953
2,0.0265744862230185,-1.1253163017939842,-0.013648019842569916,-0.14092196915963912
3,0.0398617293345277,-1.1416099737189014,-0.013630733221293111,-0.1450904927858186
4,0.053148972446037,-1.169099102776711,-0.013587518838045268,-0.1491262434102131
5,0.0664362155575463,-1.2090415519377782,-0.013513472511390373,-0.15326287765653376
6,0.0797234586690555,-1.2603092995681138,-0.013409977258639724,-0.15774597269689794
7,0.0930107017805648,-1.3188077448596383,-0.01328755891040879,-0.16266518210770886
8,0.106297944892074,-1.3773068787599438,-0.013166531481327291,-0.16779022481317368
9,0.1195851880035833,-1.4259324951959136,-0.013074487165428637,-0.17247737666539195
10,0.1328724311150926,-1.45347184033733,-0.013040638859311213,-0.17570276916534563
11,0.1461596742266018,-1.4494416160406893,-0.013087992214773633,-0.17624445750032192
12,0.1594469173381111,-1.4065847733163583,-0.013225158057442706,-0.17298549902241736
13,0.1727341604496203,-1.3231983282288693,-0.013440196768649586,-0.165262507498804
14,0.1860214035611296,-1.204571194845885,-0.01369894223724095,-0.15315766007184242
15,0.1993086466726389,-1.0629316969676599,-0.01394944052104395,-0.1376392902921733
16,1.275575338704889,-0.9156866528863628,-0.014132396762966579,-0.12049613793438259
17,1.288862581816398,-0.7822697144021143,-0.014195351214493925,-0.10406895464809235
18,1.302149824927907,-0.6803964227784691,-0.014106620230820512,-0.09083941956649073
19,1.3154370680394167,-0.622733260927998,-0.01386467593964722,-0.08297157970640219
20,1.328724311150926,-0.614829757515371,-0.013499866609739656,-0.08190679890889213
21,1.3420115542624351,-0.6547144771475432,-0.013067774775986073,-0.0880929686523345
22,1.3552987973739443,-0.7340252621224775,-0.01263618852994322,-0.10089378849601056
23,1.3685860404854535,-0.8401496389038826,-0.01226964115804664,-0.11868659129949656
24,1.381873283596963,-0.958712423596662,-0.012016022656942639,-0.13912555472844013
25,1.3951605267084723,-1.0758483487544221,-0.011898703638512417,-0.1595233932246068
26,1.4084477698199815,-1.1799270716709582,-0.011915447817220882,-0.17728737604483646
27,1.4217350129314907,-1.2626278677008853,-0.012043106737109609,-0.1903344778712751
28,1.435022256043,-1.3194106951770623,-0.012245621689055679,-0.19740950057455212
29,1.4483094991545091,-1.3494870790347981,-0.012482604961050244,-0.19824489359345154
30,1.4615967422660183,-1.3553942945308888,-0.012716500698054538,-0.19353318107572834
31,1.4748839853775275,-1.3422646339072417,-0.012917429568645881,-0.18472526746452197
32,1.4881712284890372,-1.316883415843351,-0.013065718217391172,-0.17370724150547656
33,1.5014584716005464,-1.2866448355271518,-0.013152523433213907,-0.1624323253966159
34,1.5147457147120555,-1.258529973723557,-0.013178967901009659,-0.15258749312290792
35,1.5280329578235647,-1.2382328707159236,-0.013154114869320811,-0.14535761210932796
36,1.5413202009350742,-1.2295425059430793,-0.013092183301094561,-0.14132041021065442
37,1.5546074440465834,-1.2340523853239012,-0.013009647504516513,-0.14047192317405494
38,1.5678946871580923,-1.2512209357862825,-0.012923024791189813,-0.14235292872710886
39,1.581181930269602,-1.2787500823372209,-0.01284794173888277,-0.14622875492233003
40,1.5944691733811112,-1.3131927158289818,-0.012799429304957788,-0.1512711306376092
41,1.6077564164926204,-1.3506580216833004,-0.01279262607754387,-0.15670134348731066
42,1.6210436596041295,-1.3874746798714161,-0.01284265590856581,-0.16187478017663182
43,1.634330902715639,-1.4206977241021073,-0.012962725812721157,-0.16631000289402814
44,1.6476181458271482,-1.4483926443127109,-0.013160382400770877,-0.16968226255356322
45,1.6609053889386574,-1.4696869914295354,-0.01343291649626264,-0.17180662367893265
46,1.6741926320501668,-1.4846342683440368,-0.013763586544824995,-0.17262952520354033
47,1.687479875161676,-1.4939741784194147,-0.014120339105653669,-0.1722336863243805
48,1.7007671182731852,-1.4988846361748598,-0.01445806488324447,-0.17084650920005778
49,1.7140543613846944,-1.5007992594397048,-0.014724415009231247,-0.16883364928164088
50,1.7273416044962038,-1.5013167274344965,-0.014868201418310613,-0.16666170676150405
51,1.740628847607713,-1.50217310749931,-0.014848774537217816,-0.16482634149068928
52,1.7539160907192222,-1.5052054546930644,-0.014644679468265781,-0.163758431591161
53,1.7672033338307316,-1.512220156894251,-0.014260224553476752,-0.16373256612221807
54,1.7804905769422408,-1.5246993974483307,-0.013729050677814209,-0.16480275491012192
55,1.79377782005375,-1.5433316420864909,-0.013114107056750228,-0.16677944064856
56,1.8070650631652596,-1.5674272210434508,-0.012503571735221495,-0.16924614288469908
57,1.8203523062767688,-1.5943603979933914,-0.012002347925525405,-0.17160287995047696
58,1.8336395493882776,-1.6192404498158668,-0.011719046913435824,-0.17312329442310675
59,1.846926792499787,-1.6350280148143785,-0.011749053173579537,-0.17302167722116762
60,1.8602140356112964,-1.6332549100964058,-0.01215547110607207,-0.17053614411695273
61,1.8735012787228056,-1.6053677275711526,-0.012951309689301098,-0.1650353061854858
62,1.8867885218343148,-1.544519343509002,-0.014087581020594861,-0.15614442308197837
63,1.900075764945824,-1.4474342603197288,-0.015452169180663868,-0.14386895801194696
64,1.9133630080573332,-1.315851858794733,-0.01688260911078875,-0.12867981912976273
65,1.9266502511688424,-1.1570753208891376,-0.018192276355216672,-0.11152457585073225
66,1.939937494280352,-0.9833457113757635,-0.019204964340668592,-0.093744393502846
67,1.9532247373918608,-0.8100751652899867,-0.019789254253304966,-0.07690161196627589
68,1.9665119805033704,-0.6533077794779255,-0.01988324667188292,-0.06254853296033501
69,1.97979922361488,-0.5270119198566497,-0.01950283378000112,-0.05198573788939896
70,1.993086466726389,-0.4408568404423293,-0.018731865057224933,-0.046063170733223135
71,2.006373709837898,-0.39897362460759506,-0.0176982075198445,-0.04506815649352082
72,2.0196609529494074,-0.399905381250999,-0.016543585645211373,-0.048723830785095124
73,2.0329481960609166,-0.43762224866436983,-0.015395892095545633,-0.05629433376731734
74,2.046235439172426,-0.5032218392250338,-0.014350489476471343,-0.06676656167593828
75,2.0595226822839354,-0.586823237854317,-0.013463146892204089,-0.07905947755747778
76,2.0728099253954446,-0.6792025200201193,-0.012753381394944061,-0.09220664395160438
77,2.086097168506954,-0.7728713833061098,-0.012214447811137664,-0.10546826688372549
78,2.099384411618463,-0.8625042060817749,-0.011825530911338896,-0.1183535125942602
79,2.112671654729972,-0.9448074179726427,-0.011562486629334833,-0.13056475779725096
80,2.1259588978414814,-1.018048692462772,-0.0114049715709504,-0.14190151004157683
81,2.1392461409529906,-1.0814979593982519,-0.011339288857112636,-0.15217225863148232
82,2.1525333840645,-1.1349827604569431,-0.011357412522862497,-0.16115290831094434
83,2.165820627176009,-1.1786578358828463,-0.011453387566016073,-0.16860545387422332
84,2.179107870287518,-1.212977596790044,-0.01161869878762993,-0.17434216957699236
85,2.192395113399028,-1.2387814709974425,-0.011838280897022699,-0.1783016450734667
86,2.205682356510537,-1.2573781755319096,-0.01208858032651475,-0.18060057720417863
87,2.218969599622046,-1.2705424640489116,-0.012338479470623512,-0.18153794803733836
88,2.2322568427335554,-1.280393848638077,-0.012553065749700292,-0.18154847673307867
89,2.245544085845065,-1.2891823652394319,-0.01269940372879933,-0.18112100938090275
90,2.2588313289565742,-1.2990401906729827,-0.012752925304024528,-0.18070835094240642
91,2.2721185720680834,-1.3117621072593693,-0.012702956573968466,-0.18065540190178536
92,2.2854058151795926,-1.3286573865974074,-0.01255619385487503,-0.1811632587329944
93,2.298693058291102,-1.3504831392342522,-0.012337400828193778,-0.1822919464386584
94,2.311980301402611,-1.3774390280190996,-0.012087021297044101,-0.18398972945721365
95,2.32526754451412,-1.4091874880302442,-0.01185575744213139,-0.18612910674751842
96,2.33855478762563,-1.4448685653863382,-0.011696575022339485,-0.18853251000131283
97,2.351842030737139,-1.4831023065074225,-0.011655179117712218,-0.1909824974533227
98,2.365129273848648,-1.5220033598275358,-0.011760687332961076,-0.19322442103294526
99,2.378416516960157,-1.559255330056955,-0.01201870266724202,-0.19497564713130947
100,2.391703760071666,-1.5922917071465137,-0.012408844814248487,-0.19595089039792069
101,2.404991003183176,-1.618601495868231,-0.01288781133293727,-0.19590205336362224
102,2.418278246294685,-1.6361301055162982,-0.013397416753752047,-0.19466134365676974
103,2.4315654894061947,-1.6436982781206668,-0.013875433500135714,-0.1921743835120654
104,2.444852732517704,-1.6413338508060187,-0.014266188888788426,-0.18851537616805458
105,2.458139975629213,-1.6304157997506397,-0.014528203630362177,-0.18388409555182295
106,2.4714272187407222,-1.6135669880576244,-0.014637555747249967,-0.17858914556470856
107,2.4847144618522314,-1.594287310272981,-0.014587474555179867,-0.17302154776776912
108,2.4980017049637406,-1.5763717339447278,-0.014386104354322499,-0.16761889235474633
109,2.51128894807525,-1.56319276432667,-0.014054831204265658,-0.1628163620244894
110,2.5245761911867595,-1.5569433377100295,-0.013628839585120595,-0.15898005392743955
111,2.5378634342982687,-1.5579458656813763,-0.013159868217165206,-0.15632233066523102
112,2.551150677409778,-1.5641477370885213,-0.012719065846451966,-0.1548089601103896
113,2.564437920521287,-1.5709407859624933,-0.01239633546057016,-0.15408124187828093
114,2.577725163632796,-1.5714420391896522,-0.012292566956404892,-0.1534272767301632
115,2.591012406744305,-1.5573275131061528,-0.012503177217869943,-0.1518371937657338
116,2.604299649855814,-1.5202027528923154,-0.013094950087233938,-0.14816184128937693
117,2.6175868929673243,-1.453334497382563,-0.014081917083762488,-0.14136380421143332
118,2.630874136078833,-1.353403306180153,-0.015408203625045146,-0.1308120523467252
119,2.6441613791903427,-1.2218358844551471,-0.016945126219035555,-0.11654114286696517
120,2.657448622301852,-1.065300509905865,-0.01850624316480584,-0.09938749951253534
121,2.670735865413361,-0.8951213241377814,-0.019878681345177954,-0.08093789525127486
122,2.6840231085248702,-0.72564869431242,-0.020863827618682176,-0.06327635630063874
123,2.6973103516363794,-0.5719227193048066,-0.02131728354403816,-0.0485797294473864
124,2.710597594747889,-0.4471784394545295,-0.021177903811091348,-0.038665715124955494
125,2.7238848378593983,-0.36078711147532755,-0.020478667503017633,-0.034619008855638254
126,2.7371720809709075,-0.3170926063475103,-0.019337008269379084,-0.03660147237358402
127,2.7504593240824167,-0.31533631984976074,-0.017927567846304355,-0.04389645553369597
128,2.763746567193926,-0.3505611837339058,-0.01644469046344273,-0.05516403940180377
129,2.777033810305435,-0.4151427870002197,-0.015064210243990484,-0.06881822166458697
130,2.7903210534169447,-0.5004803956451714,-0.013913603638962924,-0.08340239885558953
131,2.803608296528454,-0.598412807158135,-0.013056581573873375,-0.09784920218497893
132,2.816895539639963,-0.7020780849434292,-0.012493738657150628,-0.11156151243872843
133,2.8301827827514723,-0.8061540170110633,-0.012176502749672738,-0.12432287277669647
134,2.843470025862981,-0.9066235237247589,-0.012028691891629598,-0.13610772194382867
135,2.8567572689744907,-1.0003372991978488,-0.011969132205247953,-0.14688936005070533
136,2.870044512086,-1.084655021101434,-0.011929874222876627,-0.15652745733858925
137,2.883331755197509,-1.1573439411432835,-0.011866875884296904,-0.16476880402971736
138,2.8966189983090187,-1.2167529769634242,-0.01176268322748181,-0.1713399761222171
139,2.909906241420528,-1.262136552495628,-0.011622774271707211,-0.17607380195015307
140,2.923193484532037,-1.2939359435383562,-0.011468278530968287,-0.1790060173181669
141,2.9364807276435463,-1.313855481703068,-0.011327665653664118,-0.18040099838536014
142,2.9497679707550555,-1.3246691140394564,-0.011229118616315342,-0.1807009462603453
143,2.9630552138665647,-1.3298046532912826,-0.011194327396202504,-0.18042388090159248
144,2.9763424569780743,-1.3328265556931405,-0.01123389479374854,-0.18005056090458535
145,2.9896297000895835,-1.336948884441414,-0.011344567446083535,-0.1799367630361245
146,3.0029169432010927,-1.3446688667313083,-0.011508795483854953,-0.18027116695962353
147,3.016204186312602,-1.3575514928747252,-0.01169720557452667,-0.1810797711802367
148,3.029491429424111,-1.3761506876727938,-0.011874128237129099,-0.18226325043581845
149,3.0427786725356203,-1.4000384418989995,-0.012005413081469728,-0.18364789088318834
150,3.056065915647129,-1.4279229165000884,-0.012066790980664004,-0.18503346056926784
151,3.069353158758639,-1.4578494883418076,-0.012050489718272637,-0.18622910828288036
152,3.0826404018701483,-1.487477101933538,-0.011968009935823762,-0.187076139000719
153,3.095927644981657,-1.5144031296676341,-0.011847956935630522,-0.18746038327322057
154,3.1092148880931667,-1.5364862445919465,-0.01172932228304153,-0.1873163670219204
155,3.122502131204676,-1.5521073245820105,-0.011652087201458819,-0.1866234947981512
156,3.135789374316185,-1.5603237461713004,-0.011647869786238425,-0.18539450422879486
157,3.1490766174276943,-1.5609076285868513,-0.011733170795789477,-0.1836594837465281
158,3.162363860539204,-1.5542965320366222,-0.01190668238439037,-0.1814523824922968
159,3.175651103650713,-1.5415070948116507,-0.012150667770918637,-0.17880760907358534
160,3.1889383467622223,-1.5240578759482182,-0.012435266749028678,-0.1757702715389786
161,3.2022255898737315,-1.5039192895721718,-0.012724125355548654,-0.17241634155579955
162,3.2155128329852407,-1.4834675729313231,-0.012979989152882699,-0.1688722043499254
163,3.22880007609675,-1.4653824058381315,-0.013169583754040565,-0.16532022501499333
164,3.242087319208259,-1.4524112663319189,-0.013267879520768824,-0.16197982091757224
165,3.2553745623197687,-1.4469426673234382,-0.013262325183788608,-0.15906155895944576
166,3.268661805431278,-1.4503911011850543,-0.013157525182218157,-0.15670248888814248
167,3.281949048542787,-1.4624880993174858,-0.012980019291450559,-0.1549001593670634
168,3.2952362916542963,-1.4806664904013465,-0.012781532186447423,-0.1534661533159326
169,3.308523534765805,-1.4997785432996535,-0.012637901747397094,-0.15201558558846975
170,3.3218107778773147,-1.512369128002187,-0.012640706930319684,-0.14999938519049
171,3.335098020988824,-1.5096194014831128,-0.012880102901263861,-0.14677688051796706
172,3.348385264100333,-1.4829002714481863,-0.013420592884745411,-0.14172106621749977
173,3.3616725072118427,-1.425670944620785,-0.014275471873049674,-0.13434659734028032
174,3.374959750323352,-1.3352891768230366,-0.015388637016556357,-0.12444608191811111
175,3.388246993434861,-1.2142339238422206,-0.01663243460678793,-0.11221082614139777
176,3.4015342365463703,-1.0703255853232256,-0.017826281151291107,-0.09830177186175104
177,3.4148214796578795,-0.9157648826451266,-0.01877387630221028,-0.08383441624308992
178,3.4281087227693887,-0.7651387363616723,-0.019309571278818004,-0.07025611261636358
179,3.4413959658808984,-0.6328524600927421,-0.019340082853430772,-0.05912468736587675
180,3.454683208992408,-0.5306271954670468,-0.018868397520399236,-0.05183264235951719
181,3.4679704521039167,-0.46567905069236665,-0.017992340764146183,-0.04934533437315576
182,3.481257695215426,-0.4399793998917435,-0.01687865237471908,-0.05202251780945199
183,3.494544938326935,-0.45066653276433244,-0.015721186535747184,-0.05956892001672577
184,3.5078321814384443,-0.4913558456224383,-0.014696184749323417,-0.07112011992749268
185,3.521119424549954,-0.5538835547480102,-0.01392723027138567,-0.0854300390880196
186,3.534406667661463,-0.6299720706984883,-0.013468175213164983,-0.10110067493558486
187,3.5476939107729724,-0.7124182976616252,-0.013306018994104286,-0.11679203953330201
188,3.5609811538844816,-0.7956247899562972,-0.013379677896273324,-0.13136961231360156
189,3.5742683969959907,-0.8755361553865789,-0.01360657254828589,-0.1439775711316427
190,3.5875556401075,-0.9492263294240929,-0.013907876250937647,-0.1540537964916554
191,3.600842883219009,-1.0144487207721906,-0.014225146025452889,-0.161315434902924
192,3.614130126330519,-1.0693988174542048,-0.014525109933123467,-0.16573890003252506
193,3.627417369442028,-1.1127857972674309,-0.014794110088190492,-0.16754233352449335
194,3.640704612553537,-1.1441376250330904,-0.015027299467643945,-0.16716315226668038
195,3.6539918556650464,-1.164146382772633,-0.015218789958671276,-0.16521749620600915
196,3.667279098776556,-1.1748405958098767,-0.01535729395865112,-0.1624342302190299
197,3.6805663418880648,-1.17944663854026,-0.015428402314694301,-0.15956861876094378
198,3.693853584999574,-1.1819298250113737,-0.015421231084749645,-0.15731176213135506
199,3.707140828111084,-1.186328727675376,-0.015335298711033925,-0.15621513710238344
200,3.720428071222593,-1.196065108562195,-0.015183791952789199,-0.15664376536053864
201,3.733715314334102,-1.2134069317027985,-0.014991369682548722,-0.15876006267637374
202,3.747002557445611,-1.239196355753097,-0.014787176131319222,-0.16252931305182536
203,3.76028980055712,-1.2728640569581544,-0.01459563709343772,-0.1677327298612608
204,3.7735770436686296,-1.3126751493133197,-0.014428302236099408,-0.17397811706814717
205,3.7868642867801383,-1.3561147760584245,-0.014279552799307626,-0.18070947944769408
206,3.800151529891648,-1.4003233483044275,-0.01412784692777501,-0.1872291837877501
207,3.8134387730031576,-1.4425140076459122,-0.013942677413078426,-0.1927513068676678
208,3.826726016114667,-1.48032727135397,-0.013695715587527638,-0.19649756889639558
209,3.840013259226176,-1.5120908618126607,-0.013372933531431028,-0.1978295010079818
210,3.853300502337685,-1.5369613192039142,-0.012983442064643948,-0.19639031325534942
211,3.8665877454491935,-1.5549374885549792,-0.012561171090510866,-0.1922170974190224
212,3.879874988560704,-1.5667568218796788,-0.012157711429396756,-0.1857846893265755
213,3.893162231672213,-1.5737061751131352,-0.011827983181537221,-0.17795691605761715
214,3.9064494747837215,-1.5773888069058881,-0.011613405171602047,-0.169844450368333
215,3.919736717895232,-1.5794846131852696,-0.01152843860877283,-0.16259423466431996
216,3.933023961006741,-1.5815278316493302,-0.01155519134342941,-0.15715624485584564
217,3.94631120411825,-1.584717309892124,-0.011647793057041106,-0.1540830557554622
218,3.959598447229759,-1.5897757279089348,-0.011744815054983182,-0.15341267039252615
219,3.972885690341269,-1.5968814117267727,-0.01178545232717869,-0.15466603182306732
220,3.986172933452778,-1.6056970828946489,-0.011724334925483273,-0.15696258421841935
221,3.999460176564287,-1.6155035548387013,-0.011540814317325065,-0.15922782947941858
222,4.012747419675796,-1.6254128958005447,-0.011240866378248232,-0.1604437188190466
223,4.026034662787306,-1.6345962821720952,-0.010852444184928695,-0.15988170227702786
224,4.039321905898815,-1.642434291756436,-0.010417214008886403,-0.15726206538654813
225,4.052609149010324,-1.6484986292129125,-0.009982416288307748,-0.1528008338764575
226,4.065896392121833,-1.6523142201054775,-0.00959589267626729,-0.1471324511541534
227,4.079183635233343,-1.65292721059749,-0.009305382910752367,-0.14112592447185396
228,4.092470878344852,-1.6484002151726094,-0.0091607018200604,-0.13563768152919795
229,4.105758121456361,-1.6354389269286032,-0.009215334595784932,-0.13126123697298886
230,4.119045364567871,-1.6093839617356338,-0.009523375317709932,-0.12813878014312227
231,4.13233260767938,-1.5647451071488114,-0.010129238029069152,-0.12589045096487847
232,4.145619850790889,-1.4963039619826772,-0.011050987870256284,-0.12369198514543475
233,4.158907093902398,-1.4005981200286908,-0.012262222818318676,-0.1204929777928806
234,4.172194337013908,-1.2773994239950817,-0.013680243713841115,-0.11532507115604278
235,4.185481580125416,-1.1307018935128557,-0.015167994874716722,-0.10761631767247273
236,4.198768823236926,-0.9688087608640766,-0.01655331923969343,-0.09741903666391538
237,4.212056066348436,-0.8033543797964626,-0.017662633808021563,-0.08548007512484963
238,4.225343309459944,-0.6474378280004698,-0.01835990542290513,-0.07312866152717663
239,4.238630552571454,-0.5133498540812144,-0.018578763091625674,-0.062011889698235366
240,4.251917795682963,-0.4105172949836616,-0.018337333353236396,-0.05375197049401581
241,4.265205038794472,-0.34420841036596506,-0.017731265334458242,-0.04961825572193443
242,4.278492281905981,-0.3152732343531941,-0.016907856447927555,-0.05029613976884006
243,4.291779525017491,-0.32084722243262753,-0.016030096268095095,-0.05580033760430864
244,4.3050667681290005,-0.35565950266900787,-0.015241655539944853,-0.06553515532346182
245,4.318354011240509,-0.41345743378713695,-0.0146419808329782,-0.07846471292578162
246,4.331641254352019,-0.48811400776317265,-0.014276042521582806,-0.09333374214895641
247,4.344928497463528,-0.5741807046256854,-0.014138142240477417,-0.10887927241857506
248,4.358215740575037,-0.6668984785822725,-0.014185503238424213,-0.12399140447682235
249,4.371502983686546,-0.7618871198250765,-0.014356051207601979,-0.13780736442326877
250,4.384790226798056,-0.8548252034165402,-0.014585503390134426,-0.1497457168397761
251,4.398077469909565,-0.9413842060594982,-0.01482054569146368,-0.1594995032688069
252,4.411364713021074,-1.0175231951202999,-0.015026486706991863,-0.16700730119272084
253,4.424651956132584,-1.0800598168695286,-0.015188952624152659,-0.17241429663315855
254,4.437939199244092,-1.1272929262479967,-0.01531014242584274,-0.17602745634427008
255,4.451226442355602,-1.159416731541031,-0.01540121347527007,-0.17826383150255365
256,4.464513685467111,-1.1785400045768257,-0.015473430801129015,-0.17959013774919652
257,4.47780092857862,-1.1882658304160763,-0.015531242057841357,-0.18045460068191935
258,4.49108817169013,-1.192936511796858,-0.015569838302856284,-0.1812176255898205
259,4.504375414801639,-1.196751463543077,-0.015577947907415023,-0.18209428295762045
260,4.5176626579131485,-1.2029949509595796,-0.015544281715478309,-0.18312552415556815
261,4.530949901024657,-1.2135646845017263,-0.015464371623606012,-0.1841924472528583
262,4.544237144136167,-1.2288926294354419,-0.015344450670567101,-0.18507690956918224
263,4.557524387247676,-1.2482300781559845,-0.015200565686509054,-0.18555506046529444
264,4.570811630359185,-1.2701677064820993,-0.015053424412598689,-0.18549509663987568
265,4.584098873470695,-1.2932082068304258,-0.014921346720013877,-0.18492477012852687
266,4.597386116582204,-1.3162170121666688,-0.014814304210928443,-0.1840421991282385
267,4.610673359693713,-1.33863718895777,-0.014731328948317593,-0.183163215174367
268,4.623960602805222,-1.3604431555348673,-0.014662044060601813,-0.18262214374415553
269,4.637247845916732,-1.3818943517351598,-0.014591386205875634,-0.18266091422850975
270,4.65053508902824,-1.4032086006383078,-0.014505363971730908,-0.1833464022284006
271,4.66382233213975,-1.4242899046720594,-0.01439539300214065,-0.184545968690236
272,4.67710957525126,-1.444613829019702,-0.014259544410676263,-0.18597032537596941
273,4.690396818362768,-1.4633068820833055,-0.014100624392004076,-0.18726918117194927
274,4.703684061474278,-1.4793789081546247,-0.01392258257452374,-0.18814715363236897
275,4.716971304585787,-1.4920096849621827,-0.013727470691759712,-0.18846100400727228
276,4.7302585476972965,-1.500775960628872,-0.013514676139396982,-0.188265871182465
277,4.743545790808805,-1.5057375722755304,-0.013282793903932024,-0.18779495358048076
278,4.756833033920315,-1.507363743905181,-0.013033069819955485,-0.18737793191399466
279,4.7701202770318245,-1.506343318151461,-0.012772549051071311,-0.18732136657859197
280,4.783407520143333,-1.5033595136878504,-0.012515156402600409,-0.18778434719953066
281,4.796694763254843,-1.4989112380860146,-0.01227974800857071,-0.18868360397880118
282,4.809982006366352,-1.4932371981806176,-0.01208531458893714,-0.18965600138346492
283,4.823269249477861,-1.4863631391821746,-0.011944569550673873,-0.19009532128711923
284,4.83655649258937,-1.4782608860153617,-0.011857801368411443,-0.18926570407776974
285,4.84984373570088,-1.469084922354084,-0.011808957607845803,-0.18647636406195864
286,4.863130978812389,-1.4594334888848985,-0.011765496015914263,-0.18128276927946618
287,4.876418221923898,-1.4505610579822443,-0.011682751737208038,-0.17366291233964598
288,4.889705465035408,-1.4444504601992194,-0.011512612662206566,-0.16411088580395336
289,4.9029927081469165,-1.4436503773710518,-0.011215312807142441,-0.15360098416619986
290,4.916279951258426,-1.4508156994364076,-0.01077227781299309,-0.1434066423762286
291,4.929567194369935,-1.467962263869448,-0.01019733476114731,-0.13480356531870347
292,4.9428544374814445,-1.4955511083404776,-0.009543381034235384,-0.12873027983386656
293,4.956141680592954,-1.531619051175233,-0.008901921938193912,-0.12550371067185903
294,4.969428923704463,-1.5712333310260451,-0.008393826893812266,-0.12467995552253873
295,4.9827161668159725,-1.606535649118093,-0.008151239662749412,-0.125111677979387
296,4.996003409927481,-1.627539681738116,-0.008292675162086014,-0.12519648549083442
297,5.009290653038991,-1.623665327295738,-0.008895575577507548,-0.12325477253178256
298,5.0225778961505,-1.5857721118588575,-0.009972375462101158,-0.1179388528476663
299,5.035865139262009,-1.5082595968708643,-0.011456710336124276,-0.10856846106234559
300,5.049152382373519,-1.3907088486092816,-0.013205180753701464,-0.09531129228970914
301,5.062439625485028,-1.2385977893771258,-0.015016868943912914,-0.07917183143823404
302,5.075726868596537,-1.062835324559456,-0.016668131545870872,-0.061802082498242185
303,5.089014111708046,-0.8781664210105766,-0.01795538220125871,-0.045188823363102835
304,5.102301354819556,-0.7008045865735476,-0.018735403684245863,-0.03129397472161895
305,5.1155885979310645,-0.5458484119689571,-0.018952667685163398,-0.02172543198699656
306,5.128875841042574,-0.42507049620517656,-0.01864656942944464,-0.01749937567260167
307,5.142163084154084,-0.3455271700334896,-0.01793733548308321,-0.01892892135475605
308,5.1554503272655925,-0.30918376242443574,-0.01699551251954734,-0.025645421755917545
309,5.168737570377102,-0.31347483375697344,-0.016004157810833072,-0.03673344850406455
310,5.182024813488611,-0.3525087568651795,-0.015123772868361848,-0.05094175058846133
311,5.1953120566001205,-0.41853103835258926,-0.014467712034719263,-0.06692177670442517
312,5.208599299711629,-0.5032840919003214,-0.01409158350319394,-0.08344340087229721
313,5.221886542823139,-0.5990119133641633,-0.013995883598922749,-0.09954502476824655
314,5.2351737859346485,-0.6990110898577608,-0.0141382037923216,-0.11459246316188249
315,5.248461029046157,-0.7977791984773583,-0.014450290397235018,-0.12824607388196615
316,5.261748272157667,-0.8909181353337691,-0.014855598210580544,-0.14036290125601295
317,5.275035515269176,-0.9749850321113959,-0.01528401809239871,-0.1508809717799306
318,5.288322758380685,-1.0474396744230292,-0.015681666851714758,-0.15973660546087795
319,5.301610001492194,-1.1067354799954205,-0.016014885573767505,-0.16684812899050977
320,5.314897244603704,-1.1524868229869696,-0.0162689139249854,-0.17216613433295774
321,5.328184487715213,-1.1855720289611622,-0.016442922163205448,-0.1757563382570494
322,5.341471730826722,-1.2080347806095446,-0.016543787361228652,-0.17786338400831003
323,5.354758973938232,-1.2227270227753293,-0.016580839228538646,-0.1789123154157998
324,5.3680462170497405,-1.2327557780993592,-0.016562806344839753,-0.1794352154220466
325,5.38133346016125,-1.2408959273594322,-0.016496868721369566,-0.17994806390337925
326,5.394620703272759,-1.2491604403428587,-0.016388759682930566,-0.1808279977358153
327,5.4079079463842685,-1.2586619735322648,-0.016242714272838316,-0.18224111996529524
328,5.421195189495778,-1.2697807723470778,-0.01606069900164802,-0.1841462847976371
329,5.434482432607287,-1.2825285558592725,-0.015841312209010396,-0.18636417447017514
330,5.447769675718797,-1.2969241662177482,-0.015579395507929899,-0.18867231259382566
331,5.461056918830305,-1.3132071143198103,-0.015267322931871772,-0.19087967841639095
332,5.474344161941815,-1.331802900146719,-0.014898168484553083,-0.19285158980022796
333,5.487631405053325,-1.3530763385519504,-0.014469961130101744,-0.19448613344806143
334,5.500918648164833,-1.3770083565245987,-0.013989587700377002,-0.1956706833997621
335,5.514205891276343,-1.4029635288731452,-0.013474888589782718,-0.19625664870782378
336,5.527493134387852,-1.4296698206304,-0.012954015134209346,-0.19607810720336016
337,5.540780377499361,-1.455434703297716,-0.012461903378506998,-0.19501264414817135
338,5.55406762061087,-1.4785195422256086,-0.012034526018025838,-0.19305531943003582
339,5.56735486372238,-1.4975310381544567,-0.011702243292472131,-0.1903640800509789
340,5.580642106833889,-1.511688197226107,-0.011483917366613422,-0.18724462509213138
341,5.593929349945398,-1.5208814766353065,-0.011383336186402875,-0.18407086689780316
342,5.607216593056908,-1.5255287388122198,-0.01138889364276712,-0.18116984629773475
343,5.6205038361684165,-1.526310676679444,-0.011476551168642775,-0.1787200622551253
344,5.633791079279926,-1.523904087229568,-0.011615131583832079,-0.17670834466275406
345,5.647078322391435,-1.5188147764297775,-0.01177227638183751,-0.17496382152725623
346,5.660365565502945,-1.5113577351626175,-0.011919233465599456,-0.17325174043026625
347,5.673652808614454,-1.5017687731305127,-0.0120332169478256,-0.17138338952325172
348,5.686940051725963,-1.4903846234928957,-0.012097262853832351,-0.16929416182774476
349,5.700227294837473,-1.4778105293681594,-0.012098761080850522,-0.16706046099221913
350,5.713514537948981,-1.4650055036654954,-0.012028463528290784,-0.16485633653911938
351,5.726801781060491,-1.453247963269241,-0.011881318141540132,-0.16287662669317454
352,5.740089024172,-1.4439866272331978,-0.011659149908565996,-0.16126347752807144
353,5.753376267283509,-1.438619800856234,-0.0113737602385324,-0.16006530049127426
354,5.766663510395019,-1.4382671952757227,-0.011048331334318621,-0.15923815361255242
355,5.779950753506528,-1.4435938779768673,-0.010715590376377215,-0.1586797372908416
356,5.793237996618037,-1.45471664011871,-0.010412801139112469,-0.15827446066202489
357,5.806525239729546,-1.4711799294841315,-0.010175478613219997,-0.15792756599636038
358,5.819812482841056,-1.4919493993135782,-0.010032725946148893,-0.15757432217529943
359,5.8330997259525645,-1.5153556029030197,-0.010006577333181325,-0.1571609521158331
360,5.846386969064074,-1.5389435597907815,-0.010115753010299273,-0.15660263464881913
361,5.859674212175584,-1.5592489907770437,-0.010381632537898155,-0.15572991496613245
362,5.872961455287093,-1.5716119501259591,-0.010832290624212537,-0.15424009943737493
363,5.886248698398602,-1.5702136488619465,-0.011500250541307986,-0.15167524950574465
364,5.899535941510111,-1.548531505748259,-0.012411692143949753,-0.14744979705463707
365,5.912823184621621,-1.5003149774611744,-0.013568729430040177,-0.14094316932438622
366,5.926110427733129,-1.4209981766970963,-0.014930572871204561,-0.13165397537212103
367,5.939397670844639,-1.3092466779377205,-0.01640189818713443,-0.11938701824490419
368,5.952684913956149,-1.168181562942946,-0.017835915520546936,-0.1044228678615413
369,5.965972157067657,-1.0058194235739426,-0.019055187568332594,-0.08761215070357284
370,5.979259400179167,-0.8344415683821893,-0.019886680243558334,-0.07034805208982581
371,5.992546643290676,-0.6689103243845406,-0.020201597055627296,-0.05439888903322753
372,6.005833886402185,-0.5242767510661075,-0.019947937887091812,-0.041620851496269935
373,6.019121129513694,-0.4132517190634625,-0.019165660434686906,-0.03360906240626378
374,6.032408372625204,-0.344159619472421,-0.017979942106946176,-0.03137158372236602
375,6.045695615736713,-0.3198486728205535,-0.016574926021918814,-0.035115150495680626
376,6.058982858848222,-0.33774984490792126,-0.015155835263032361,-0.04420711744260568
377,6.072270101959732,-0.3909562488642933,-0.013909765060575714,-0.05732888670376576
378,6.085557345071241,-0.4699410444229687,-0.01297453969456635,-0.07277727722423341
379,6.09884458818275,-0.5644190875579673,-0.012421625756269242,-0.08882449463572369
380,6.112131831294259,-0.6649067100973001,-0.012254664990214848,-0.10403392510588735
381,6.125419074405769,-0.7637072998026377,-0.012421157310098638,-0.11745333446786214
382,6.138706317517278,-0.8552707426993204,-0.012832197668897205,-0.12865703093235606
383,6.151993560628787,-0.9360602466672165,-0.013384361714989364,-0.13766083674865337
384,6.165280803740297,-1.0041560349999838,-0.0139787015482633,-0.14476666918326064
385,6.178568046851805,-1.0588207664031164,-0.01453380792612962,-0.1503980681123643
386,6.191855289963315,-1.1001742206390794,-0.014992237690159671,-0.15497000054100835
387,6.205142533074824,-1.1290226374032577,-0.015321486482902592,-0.15881021299542014
388,6.218429776186333,-1.1468052197625285,-0.01551154740453266,-0.1621286963217255
389,6.231717019297843,-1.1555797004024406,-0.015570864873618596,-0.1650221750859148
390,6.245004262409352,-1.1579690370737328,-0.015521614274195523,-0.16749964726067573
391,6.258291505520861,-1.1570165369747536,-0.015394422304308958,-0.16951730390255443
392,6.27157874863237,-1.15593148025378,-0.015222451562276447,-0.17101306777684538
393,6.28486599174388,-1.1577437969380815,-0.015035272434184066,-0.1719327353790531
394,6.298153234855389,-1.1649215035630098,-0.014853666424169569,-0.17224319790455161
395,6.311440477966898,-1.1790327238955354,-0.01468677711594022,-0.17193384657930638
396,6.324727721078408,-1.2005437363018432,-0.014532478388848911,-0.17101276583961803
397,6.338014964189917,-1.2288235690027867,-0.014380687567771508,-0.16950630807440548
398,6.351302207301426,-1.262371737578759,-0.01421827496051054,-0.16746736623897743
399,6.364589450412935,-1.2992132356702155,-0.014033829857050902,-0.16499068597480523
400,6.377876693524445,-1.3373428366866038,-0.013820988160010523,-0.16222703120022605
401,6.391163936635953,-1.3750796041608118,-0.013579933638750855,-0.15938586810494912
402,6.404451179747463,-1.4112272396019612,-0.013317459099673341,-0.15671969530536362
403,6.417738422858973,-1.445015725256463,-0.01304620683885591,-0.154490498855097
404,6.431025665970481,-1.4758911090864644,-0.012783402567071483,-0.15292680417010365
405,6.444312909081991,-1.503282127449392,-0.012548917625267254,-0.15218502385480462
406,6.4576001521935,-1.526475558946874,-0.012362308524368934,-0.1523285353667687
407,6.4708873953050094,-1.5446740245139086,-0.012238847553902869,-0.15333127685028478
408,6.484174638416518,-1.5572163756938109,-0.012185323980021003,-0.15510189945351743
409,6.497461881528028,-1.5638553939832904,-0.012197065882770768,-0.1575149941038985
410,6.5107491246395375,-1.5649513750673016,-0.012257668505107181,-0.16043341966285438
411,6.524036367751046,-1.5614720639458357,-0.012342097126305265,-0.16371269801697652
412,6.537323610862556,-1.5547757474324218,-0.012422448136567161,-0.16719145158874554
413,6.550610853974065,-1.546254913648418,-0.012474376634482557,-0.17068310817649618
414,6.563898097085574,-1.5369854720982314,-0.012481737278296205,-0.1739859455513408
415,6.577185340197083,-1.5275298259354857,-0.012437675862061882,-0.1769187127844621
416,6.590472583308593,-1.5179799349612315,-0.012342013326719675,-0.17937254074406087
417,6.603759826420102,-1.5082260587384035,-0.012196552195319182,-0.1813559235155808
418,6.617047069531611,-1.498339385690751,-0.0120010321353096,-0.18300619427934622
419,6.630334312643121,-1.4889004831033088,-0.011752285094259799,-0.1845507846770844
420,6.643621555754629,-1.481112623134235,-0.011447719281396198,-0.18622133850441736
421,6.656908798866139,-1.4766082583503464,-0.011092237332882664,-0.1881455843608634
422,6.670196041977648,-1.4769628445279575,-0.010705994038359111,-0.1902557269936137
423,6.6834832850891575,-1.4830326238857867,-0.010329760695236471,-0.19224992414460226
424,6.696770528200667,-1.4942951802488433,-0.01002529725091644,-0.1936242262615751
425,6.710057771312176,-1.508377913297564,-0.009869683789906656,-0.19376462646614206
426,6.7233450144236855,-1.5209197686542697,-0.009944330400673728,-0.19206661818615103
427,6.736632257535194,-1.5258485532457424,-0.010320681435473433,-0.18804419906200517
428,6.749919500646704,-1.5160876907346654,-0.011045123136725923,-0.18140311882531665
429,6.763206743758213,-1.4846352572234003,-0.012125471350852915,-0.17207515637617793
430,6.776493986869722,-1.4258795668966462,-0.013521169823901913,-0.16022733376956197
431,6.789781229981232,-1.3369331023114934,-0.015139346711389811,-0.14626232083647311
432,6.803068473092741,-1.2187032756326373,-0.016838987321828917,-0.1308141021743695
433,6.81635571620425,-1.0764105897998455,-0.018444998754157425,-0.11472618973794879
434,6.829642959315759,-0.9193409479110652,-0.019772210563225447,-0.0989914423813541
435,6.842930202427269,-0.759778858983088,-0.02065641668214825,-0.08464110225030813
436,6.856217445538777,-0.6112746902194982,-0.020986393781844657,-0.07259397744319464
437,6.869504688650287,-0.486588175390526,-0.02072891446486247,-0.06350318483626677
438,6.882791931761797,-0.39575654369185426,-0.019939306657519116,-0.05765231582891519
439,6.8960791748733055,-0.3447173905963683,-0.018753353121687327,-0.05494459769941225
440,6.909366417984815,-0.3347723108423474,-0.017361414399857018,-0.054997357107876226
441,6.922653661096324,-0.36294773055745616,-0.015970898042807567,-0.05731123482970159
442,6.9359409042078335,-0.42306567698927655,-0.014766688707072761,-0.061448089080517444
443,6.949228147319342,-0.507160393124242,-0.013879571735927848,-0.06714179220473863
444,6.962515390430852,-0.6068283751061172,-0.013369865956251482,-0.07429079011120361
445,6.9758026335423615,-0.7141945271536781,-0.01322851853413385,-0.08283300948836629
446,6.98908987665387,-0.8223733776405043,-0.01339265924810632,-0.09256057865444567
447,7.00237711976538,-0.9255182297978805,-0.013768905027335628,-0.10296716919708866
448,7.015664362876889,-1.01869489554171,-0.014256691701304412,-0.11321621353429623
449,7.028951605988398,-1.097836320436029,-0.014765660112319294,-0.1222729903940707
450,7.042238849099908,-1.159931230801301,-0.015224638959803569,-0.1291749306608222
451,7.055526092211417,-1.2034275401205385,-0.0155833814736775,-0.13335067751815144
452,7.068813335322926,-1.2286717100524385,-0.015810345474778647,-0.1348670418553545
453,7.082100578434435,-1.2381334971357787,-0.01588975436145724,-0.13449949143477613
454,7.095387821545945,-1.2362156168332001,-0.015819475340264295,-0.13358201331876393
455,7.1086750646574535,-1.2285971001725198,-0.015609293189605413,-0.13367281303963544
456,7.121962307768963,-1.2212396256216766,-0.015278273747240327,-0.13614077294982488
457,7.135249550880473,-1.219318846636098,-0.014850527071431006,-0.1418066000999319
458,7.1485367939919815,-1.2263746136105331,-0.014350133605235935,-0.15075179799428298
459,7.161824037103491,-1.2438981670953666,-0.013797112938010257,-0.16234772326039754
460,7.175111280215,-1.2714267242704904,-0.013206267247848912,-0.1754804015431677
461,7.1883985233265095,-1.3070548405161295,-0.012589537570845195,-0.18888307172622312
462,7.201685766438018,-1.3481542996034244,-0.011960878385250026,-0.20145951519687105
463,7.214973009549528,-1.39205612755146,-0.011341431381760855,-0.21249483371812325
464,7.228260252661037,-1.4364954979889886,-0.010762477000263346,-0.2216984781121116
465,7.241547495772546,-1.4797298074898788,-0.010264318147066792,-0.22908776272981343
466,7.254834738884056,-1.5203702754737702,-0.009890630299632542,-0.23477615345411737
467,7.268121981995565,-1.5570718333595912,-0.009679448797832625,-0.23876081844349042
468,7.281409225107074,-1.588268683562262,-0.009653333178819752,-0.2407991723455491
469,7.294696468218583,-1.6121099828616345,-0.009811847731967948,-0.2404268294676935
470,7.307983711330093,-1.6266567176476625,-0.010129009608591748,-0.23711279292142243
471,7.321270954441602,-1.630286545213503,-0.01055683594014627,-0.23049245758610745
472,7.334558197553111,-1.6221657167967571,-0.011034088385534685,-0.22058635706743496
473,7.347845440664621,-1.6026200440233618,-0.011497604789823094,-0.20791603968481462
474,7.3611326837761295,-1.5732756404418071,-0.011892974439910674,-0.1934672974617688
475,7.374419926887639,-1.5369221022637065,-0.012181973980436219,-0.1785096231497728
476,7.387707169999148,-1.4971388261724625,-0.012345679345255944,-0.16433502569059416
477,7.4009944131106575,-1.4577865030901862,-0.012383686145531743,-0.15200678412211177
478,7.414281656222167,-1.4224851665669243,-0.012310755237028232,-0.14219869984238137
479,7.427568899333676,-1.3941819099206498,-0.012152309313058357,-0.1351638433652238
480,7.440856142445186,-1.374871861549624,-0.011939847751026775,-0.13081834523578575
481,7.454143385556694,-1.3654921276331449,-0.011706942182539346,-0.12888432296758753
482,7.467430628668204,-1.3659700692917391,-0.011486246530112843,-0.12902316302134526
483,7.480717871779713,-1.3753773867408394,-0.011307845450033854,-0.13090801430149396
484,7.494005114891222,-1.392121429660344,-0.011199091005708683,-0.1342202857715907
485,7.507292358002732,-1.414099596270166,-0.011185746795717355,-0.1385905336024987
486,7.520579601114241,-1.4387586946567668,-0.011293853235098121,-0.14352432928385347
487,7.53386684422575,-1.4630421723430544,-0.01155138936878121,-0.1483536883012616
488,7.547154087337259,-1.483267787897096,-0.011988586836228636,-0.1522399500729663
489,7.560441330448769,-1.4950387763613324,-0.012635642636986012,-0.1542352477844979
490,7.573728573560277,-1.493327772384435,-0.013516715121511005,-0.1533955379286092
491,7.587015816671787,-1.472860678482768,-0.01463982893078129,-0.14893060300393526
492,7.600303059783297,-1.4288547048277216,-0.01598394916659284,-0.14037128168626872
493,7.613590302894805,-1.3580399196868036,-0.017486746272847173,-0.127726144564384
494,7.626877546006315,-1.2597525999237835,-0.019038423094892957,-0.11158907766607738
495,7.640164789117824,-1.1367876726583674,-0.020487009129670806,-0.09315382629409108
496,7.653452032229334,-0.9956919796634351,-0.021657860217486058,-0.07410263238217737
497,7.666739275340842,-0.846295269374314,-0.022385183929708518,-0.05636824136463649
498,7.680026518452352,-0.7004862659600044,-0.02254814318808208,-0.04181285106302323
499,7.693313761563862,-0.5704740839829379,-0.022101012894952365,-0.031904053397193786
500,7.70660100467537,-0.4669401948463879,-0.021087765529467763,-0.027476688784874186
501,7.71988824778688,-0.39751703522432436,-0.01963624968149715,-0.028643647486705247
502,7.733175490898389,-0.365916724400823,-0.01793375294838006,-0.03486849209185242
503,7.746462734009898,-0.37182845505135126,-0.016191322043091396,-0.045160691857914395
504,7.759749977121407,-0.41149025151514584,-0.01460661023204705,-0.05832208062162385
505,7.773037220232917,-0.47869411146483626,-0.013333846398037206,-0.07317110900785696
506,7.786324463344426,-0.5659352048383097,-0.012465994075550114,-0.08869476974729325
507,7.799611706455935,-0.6654535293619905,-0.012030145895678626,-0.10411210935342022
508,7.812898949567445,-0.7700052243694755,-0.01199411787318855,-0.11886290204267821
509,7.8261861926789535,-0.8733064671088343,-0.012280610155088805,-0.13255187759318685
510,7.839473435790463,-0.9701906672887373,-0.012784996588379916,-0.14488220865098558
511,7.852760678901972,-1.0565897762590495,-0.013393332033617217,-0.1556055896540707
512,7.866047922013482,-1.1294754595518175,-0.013998114830252413,-0.16450461881778228
513,7.879335165124991,-1.1868669539039982,-0.014510405906253977,-0.17140976457309168
514,7.8926224082365,-1.2279396680072265,-0.014867812307350362,-0.1762407576460797
515,7.90590965134801,-1.2531824912493534,-0.015038376823228668,-0.17905358515247077
516,7.919196894459518,-1.2644917094660781,-0.015020556413291093,-0.18007183921554143
517,7.932484137571028,-1.2650842238499602,-0.014839456346552982,-0.17968600681778554
518,7.945771380682537,-1.2591654238239267,-0.014539656734271917,-0.17841497289182376
519,7.959058623794046,-1.2513733414518597,-0.014175495007200018,-0.17683680218813577
520,7.972345866905556,-1.2461025822133251,-0.01380038426308919,-0.17550596418427233
521,7.985633110017065,-1.2468565578379893,-0.013457241193390371,-0.17487758342296128
522,7.998920353128574,-1.255771417566197,-0.013172001727593682,-0.1752546596128066
523,8.012207596240083,-1.2734071549963168,-0.012951453300016156,-0.17676380944984504
524,8.025494839351593,-1.2988310861246573,-0.012785481314272294,-0.17935441153363668
525,8.038782082463102,-1.3299496802554953,-0.012652735781536558,-0.18281113027233054
526,8.052069325574612,-1.3639954827003087,-0.012528011594694567,-0.1867734834677004
527,8.06535656868612,-1.3980568851961683,-0.01238944118291537,-0.19076552673899505
528,8.07864381179763,-1.4295496825746858,-0.012223879971478536,-0.1942463303378217
529,8.09193105490914,-1.4565607402217378,-0.012029480726176794,-0.1966901027629581
530,8.105218298020649,-1.4780302314536267,-0.011815222937981323,-0.19769126863579103
531,8.118505541132157,-1.4937670703250072,-0.011597908768760656,-0.19707024097367393
532,8.131792784243666,-1.5043098767483976,-0.011397703746626188,-0.1949415691753415
533,8.145080027355176,-1.510660927199352,-0.0112335638416306,-0.19170854844046936
534,8.158367270466686,-1.5139423087274846,-0.011119751768102705,-0.18797047692069935
535,8.171654513578195,-1.5150511414610763,-0.011064086179391409,-0.18436270630922771
536,8.184941756689703,-1.5144096801957263,-0.011067771266008839,-0.18137970156170166
537,8.198228999801213,-1.511896252057975,-0.011126030902613071,-0.17924215012456945
538,8.211516242912722,-1.5069940540155629,-0.011228731977367599,-0.17785431948555533
539,8.224803486024232,-1.49911775753346,-0.011360786387741269,-0.17686347804324978
540,8.238090729135742,-1.4880035483960214,-0.011502933246595097,-0.17579467881461303
541,8.25137797224725,-1.474013118782176,-0.011633836180905174,-0.1742083860309886
542,8.26466521535876,-1.4582284650099806,-0.011733854815243019,-0.171825551749137
543,8.277952458470269,-1.4422961879904617,-0.011789589652657789,-0.16858423479326337
544,8.291239701581778,-1.428083170490406,-0.011797199570844281,-0.16462324170023546
545,8.304526944693286,-1.4172823265866747,-0.01176248514308032,-0.16021650808112145
546,8.317814187804796,-1.4111191791563558,-0.011697150420163161,-0.1556945156398697
547,8.331101430916306,-1.4102482039238058,-0.011612881485979356,-0.15138196370849322
548,8.344388674027815,-1.4148195692711425,-0.01151662644887541,-0.14756064909228336
549,8.357675917139325,-1.4245957413825419,-0.01141053157995866,-0.14444626355357548
550,8.370963160250833,-1.4389587358043787,-0.011298019569903433,-0.14215973628091846
551,8.384250403362342,-1.4567013381346576,-0.011194237933405023,-0.14068182440215066
552,8.397537646473852,-1.4756239077848623,-0.01113608122007287,-0.13979813857351836
553,8.410824889585362,-1.4921061719903765,-0.011185758960430803,-0.13905956595572458
554,8.424112132696871,-1.5009183122082776,-0.011423300136725854,-0.13779009609945939
555,8.43739937580838,-1.4955228980314785,-0.011927204548281467,-0.1351657620618033
556,8.450686618919889,-1.468987607446684,-0.012747375980527496,-0.13036659361857408
557,8.463973862031398,-1.4154165551200517,-0.013878628627015808,-0.12277531569820407
558,8.477261105142908,-1.3315890979849005,-0.015244671315379394,-0.11217251006370912
559,8.490548348254416,-1.2183515460036212,-0.01670052305002946,-0.09886865582935817
560,8.503835591365926,-1.0813014193080042,-0.018056009281574997,-0.08372497538589507
561,8.517122834477435,-0.9304546810519384,-0.019115914727057946,-0.06804515119370348
562,8.530410077588945,-0.7788587688759736,-0.01972608484704551,-0.05335826887446229
563,8.543697320700455,-0.6404261712468458,-0.01981182555691796,-0.04114575204304657
564,8.556984563811962,-0.5275106324662752,-0.019396709086673194,-0.03258058811936882
565,8.570271806923472,-0.4488413996775633,-0.01859583844778617,-0.028342024424567323
566,8.583559050034982,-0.4083307642318789,-0.01758561336255254,-0.0285465033627453
567,8.596846293146491,-0.40500595758219243,-0.01655926438225528,-0.03280357610707578
568,8.610133536258001,-0.43397904459134123,-0.015681463258970404,-0.04037288265309062
569,8.623420779369509,-0.48807567306827504,-0.015054928402662815,-0.05037337963774468
570,8.636708022481018,-0.5595929748490616,-0.014707404764510925,-0.06198514860286627
571,8.649995265592528,-0.6416883410650538,-0.014600415477243268,-0.07459010957997035
572,8.663282508704038,-0.7290863756363075,-0.014654287799900264,-0.0878189965105444
573,8.676569751815546,-0.8180543852151647,-0.014779538583436851,-0.1015018591828998
574,8.689856994927055,-0.9058445061341636,-0.014904093098844771,-0.11554923386000777
575,8.703144238038565,-0.9899546262683863,-0.014988814502986733,-0.12981181896987434
576,8.716431481150074,-1.0675776279705225,-0.015028923682703909,-0.14397147823707065
577,8.729718724261584,-1.1354924114295362,-0.01504396709124321,-0.15750422546989676
578,8.743005967373092,-1.1904494867186086,-0.015062211381866458,-0.16973087589704194
579,8.756293210484602,-1.2298970828636713,-0.015105872225208131,-0.17994176605778003
580,8.769580453596111,-1.252758825730874,-0.015181799399964079,-0.18755786136358688
581,8.782867696707621,-1.2599568987051823,-0.015279369744487445,-0.19227916821861352
582,8.79615493981913,-1.2544716290002051,-0.015374720765230058,-0.19417582016533563
583,8.809442182930638,-1.2408932920270808,-0.015438878857994989,-0.19369529206917982
584,8.822729426042148,-1.2245896806060996,-0.015446863499659725,-0.19158411875512701
585,8.836016669153658,-1.2107267229643446,-0.015385134821928978,-0.18874576623733813
586,8.849303912265167,-1.203407521581682,-0.015255454920616161,-0.18607121484285258
587,8.862591155376675,-1.2051369896629696,-0.015074195849579773,-0.18428249088352724
588,8.875878398488185,-1.2167020003944047,-0.014867278175591232,-0.18382270114663246
589,8.889165641599694,-1.2374254441927026,-0.014662113210795665,-0.18481229000622992
590,8.902452884711204,-1.2656528970637664,-0.01447887575394431,-0.18707427857695552
591,8.915740127822714,-1.2992924580758498,-0.014323836540877238,-0.19021507082232883
592,8.929027370934222,-1.336254510768106,-0.014187095780817015,-0.1937354660706171
593,8.942314614045731,-1.3747070411891487,-0.014045830087505722,-0.1971415453693968
594,8.95560185715724,-1.4131410388320718,-0.013872334393001841,-0.20002856709325112
595,8.96888910026875,-1.4503014668499201,-0.01364427765274789,-0.2021222193920542
596,8.98217634338026,-1.4850682547722924,-0.013353462996270587,-0.2032771626090275
597,8.995463586491768,-1.516368279252169,-0.013009627915941213,-0.20344729050825736
598,9.008750829603278,-1.5431707868879003,-0.012637579200141847,-0.2026498004234579
599,9.022038072714787,-1.5645758857852403,-0.012268676260562248,-0.2009425096559511
600,9.035325315826295,-1.5799617177792145,-0.01193021838822637,-0.1984219571913664
601,9.048612558937805,-1.5891259896371057,-0.011637383524614539,-0.19523478063586142
602,9.061899802049314,-1.5923549335651743,-0.011391259983641776,-0.19158514194203238
603,9.075187045160824,-1.5903810999551267,-0.011183535484950232,-0.18772244097594706
604,9.088474288272334,-1.5842396303016524,-0.011004983133507961,-0.18390533184844432
605,9.101761531383843,-1.575078485555198,-0.010852847114186331,-0.18035284561351528
606,9.115048774495351,-1.5639989490263038,-0.010732775644742234,-0.1772023224798164
607,9.12833601760686,-1.5519876774861654,-0.010653872523151753,-0.17449209342083627
608,9.14162326071837,-1.5399567667411795,-0.010619210613740828,-0.17217619628414774
609,9.15491050382988,-1.528853192086554,-0.010616791346836914,-0.17016501563264072
610,9.16819774694139,-1.5197566170129717,-0.01061614343806981,-0.16837574757035387
611,9.181484990052898,-1.5138716424063483,-0.010573556616560372,-0.16677308334469867
612,9.194772233164407,-1.5123424843889053,-0.01044549429914213,-0.165383321286602
613,9.208059476275915,-1.515869894574457,-0.010206516695341297,-0.1642725413657925
614,9.221346719387428,-1.5241804881833407,-0.009866151057525443,-0.16348971450112193
615,9.234633962498934,-1.535472321819065,-0.009478947962502333,-0.1629871087299566
616,9.247921205610444,-1.5460185723030566,-0.009143313130985561,-0.16254122445796138
617,9.261208448721954,-1.5501307069003878,-0.008987227868403917,-0.16170485831677706
618,9.274495691833463,-1.5406415827059876,-0.009142223783070667,-0.1598208246301103
619,9.287782934944971,-1.5099576501572658,-0.009710418379799857,-0.15611678787579758
620,9.30107017805648,-1.4515635924149326,-0.010732307695052918,-0.14987811676909787
621,9.31435742116799,-1.3616880022427327,-0.012164402284506692,-0.14066658248520858
622,9.3276446642795,-1.2407183671223445,-0.013874762445539679,-0.1285270120821625
623,9.34093190739101,-1.0939431252954621,-0.015660629685358213,-0.11411301916307663
624,9.35421915050252,-0.9313202658376676,-0.017286271220506272,-0.09867434619232783
625,9.367506393614027,-0.766203157729392,-0.01853261138211042,-0.0838821505578929
626,9.380793636725535,-0.6132327971501361,-0.019245633217511136,-0.07151607054354459
627,9.394080879837048,-0.48584948061332695,-0.019369936822049308,-0.06308344147120018
628,9.407368122948556,-0.3940098417764336,-0.018957858394253905,-0.05947099460856258
629,9.420655366060066,-0.34266934908682184,-0.018151954532269306,-0.060731307234621695
630,9.433942609171574,-0.3314005652314814,-0.01714681204443649,-0.06607616776411405
631,9.447229852283083,-0.3552068023074516,-0.016142108253668096,-0.07409186050636551
632,9.460517095394591,-0.40624641075741896,-0.01530054674808898,-0.08312162798591438
633,9.473804338506104,-0.47591685922280397,-0.014721358003090788,-0.09170066962580593
634,9.48709158161761,-0.55665968390716,-0.014433930295961066,-0.0989035403276167
635,9.50037882472912,-0.642979747565834,-0.014409383281037644,-0.1044888202917261
636,9.51366606784063,-0.7314822304547076,-0.01458299235320596,-0.1087982553161559
637,9.52695331095214,-0.820100674347983,-0.014878682942413,-0.11246139243132976
638,9.540240554063647,-0.9069748894094233,-0.015228252314172882,-0.11603266432366835
639,9.553527797175157,-0.989529956571017,-0.015581381486375247,-0.11971150961747595
640,9.566815040286668,-1.064179400674155,-0.015906354062415383,-0.12325602974586702
641,9.580102283398176,-1.1267891553774312,-0.01618442611774226,-0.1261150172237438
642,9.593389526509686,-1.1737164200504184,-0.01640223722035264,-0.1277107183933112
643,9.606676769621195,-1.2030074498479995,-0.016546329736387384,-0.12774555442122457
644,9.619964012732703,-1.2152825190595888,-0.01660209693897133,-0.12640296263044418
645,9.633251255844211,-1.2139609524515678,-0.016557094921462612,-0.12436222254923743
646,9.646538498955724,-1.2047209790459628,-0.016406607645476464,-0.12262462445660899
647,9.659825742067232,-1.194349477537343,-0.016158423809569753,-0.12222024040786017
648,9.67311298517874,-1.1893235625985352,-0.015834208467967136,-0.12390363624408601
649,9.68640022829025,-1.1945259378281126,-0.015466308583133161,-0.12794181129796187
650,9.69968747140176,-1.2124251541940572,-0.015090680360538688,-0.13405553678381876
651,9.712974714513267,-1.242888479693998,-0.014738183567613588,-0.1415168528473833
652,9.72626195762478,-1.2836003550933635,-0.01442720031606394,-0.14935539513757679
653,9.739549200736286,-1.3308960514963084,-0.014160134183319033,-0.15660179379655548
654,9.752836443847796,-1.3807330969190057,-0.013924989607105328,-0.16250078559668338
655,9.766123686959306,-1.4295280845151883,-0.013701473209072442,-0.166650125051724
656,9.779410930070815,-1.4746693553050325,-0.013469563435999416,-0.16904916301066686
657,9.792698173182323,-1.5146412050833797,-0.013217725950824454,-0.17006228502346257
658,9.805985416293831,-1.5488197581347027,-0.01294805452063271,-0.17031444383166136
659,9.819272659405344,-1.5770879814789533,-0.012676499097277642,-0.17054201928075205
660,9.832559902516852,-1.5994470853993674,-0.012427789389200292,-0.17142655913543609
661,9.845847145628362,-1.6157725563724084,-0.012226368116179895,-0.17344298288933258
662,9.85913438873987,-1.625789983563728,-0.012086190062070326,-0.1767548579296994
663,9.87242163185138,-1.629253076637768,-0.012003086893878854,-0.18118260083091917
664,9.885708874962887,-1.6262228493815092,-0.011953035933507909,-0.1862531871293953
665,9.8989961180744,-1.6173021513281398,-0.011897904705450591,-0.19131554047789742
666,9.912283361185908,-1.6036951548553777,-0.011797470076352753,-0.19568433393309553
667,9.925570604297416,-1.5870381584260635,-0.011623767851561618,-0.1987682662978071
668,9.938857847408926,-1.5690574040958842,-0.011372411508317566,-0.2001518443328836
669,9.952145090520435,-1.5511993672428182,-0.011066297768565199,-0.19962501232651728
670,9.965432333631943,-1.5343987871670524,-0.010749967527166532,-0.19717703225342
671,9.978719576743456,-1.519081299369376,-0.010476660247765356,-0.19297688747014255
672,9.992006819854964,-1.505369341848917,-0.010293157004025284,-0.18735101072535093
673,10.005294062966472,-1.493335574160014,-0.010228511474260345,-0.18075104321709773
674,10.018581306077982,-1.4830952294525337,-0.010291230448730357,-0.1736940993713028
675,10.031868549189491,-1.4745863279552236,-0.01047592094330746,-0.16666448489750926
676,10.045155792301,-1.4670424830365527,-0.010776239964201012,-0.15998740484868326
677,10.058443035412507,-1.4583536168654667,-0.011197880041830517,-0.15371094415352687
678,10.07173027852402,-1.4446437610448277,-0.011764681536157739,-0.1475473631746019
679,10.085017521635528,-1.4203944968313416,-0.012513233627906076,-0.14091657556241896
680,10.098304764747038,-1.3792850996516524,-0.013475810836774118,-0.13310210206825773
681,10.111592007858546,-1.3156566454589125,-0.014656590985906114,-0.12348504822083917
682,10.124879250970055,-1.2262413529684388,-0.016009877042822817,-0.11178576619996147
683,10.138166494081563,-1.1116410167145214,-0.01742988313943321,-0.09823383614324822
684,10.151453737193076,-0.9770578651738765,-0.018758846500314258,-0.08360903502953093
685,10.164740980304584,-0.8319764499597097,-0.019814399139093053,-0.06913799750204164
686,10.178028223416092,-0.6887995016979422,-0.020430162336371266,-0.056275144601154195
687,10.191315466527602,-0.5607500892803386,-0.020498010497561912,-0.0464270818371456
688,10.204602709639111,-0.4595647964020497,-0.01999870171674899,-0.04069028083800282
689,10.21788995275062,-0.39355279828807754,-0.019010582155972355,-0.03966335025147735
690,10.231177195862127,-0.3664744893956985,-0.017692940273286807,-0.043372837094482704
691,10.24446443897364,-0.3774459176249373,-0.01624878358060561,-0.05132200556723398
692,10.257751682085148,-0.4217830377347531,-0.01487824001045014,-0.06264211243504215
693,10.271038925196658,-0.4924532878981787,-0.013736160307032837,-0.07630160344217665
694,10.284326168308167,-0.5816734046226704,-0.012905269182470577,-0.09131593312408497
695,10.297613411419675,-0.6822134775937733,-0.012390601077761002,-0.10690309306915045
696,10.310900654531183,-0.7881200030007385,-0.012134201464707478,-0.1225476464750209
697,10.324187897642696,-0.8947956798504804,-0.01204344410533832,-0.1379647569446652
698,10.337475140754204,-0.9985931774737783,-0.012023341628019216,-0.1529871448752255
699,10.350762383865714,-1.096225196786808,-0.012003378860193845,-0.16742243796877979
700,10.364049626977222,-1.184323576157646,-0.011952160481634597,-0.18093794679231953
701,10.377336870088731,-1.2593923730200123,-0.01187740773490285,-0.19302068567866226
702,10.39062411320024,-1.3182256491189235,-0.011813272139530722,-0.20303456681555815
703,10.40391135631175,-1.358659424654678,-0.011800433396681404,-0.21036219577803816
704,10.41719859942326,-1.3803703562252958,-0.011866196753063094,-0.21458744655190884
705,10.430485842534768,-1.385381778102119,-0.012011358774105557,-0.2156582865643876
706,10.443773085646278,-1.3780163753472328,-0.0122080306943652,-0.21397320216180712
707,10.457060328757787,-1.3642200921175347,-0.01240861254387653,-0.21035735772901018
708,10.470347571869295,-1.3504059913170527,-0.012562039364130381,-0.20592789915515175
709,10.483634814980803,-1.3421429632656539,-0.012630844542679164,-0.20188009364763657
710,10.496922058092316,-1.343072542642362,-0.012602616666917634,-0.19924704401865714
711,10.510209301203824,-1.3543551505039262,-0.012492074751459843,-0.19869000780243293
712,10.523496544315334,-1.3747607402093172,-0.012334024034284529,-0.2003647707416281
713,10.536783787426844,-1.4013066141920336,-0.012170996326301519,-0.20388849425512393
714,10.550071030538351,-1.430191502327272,-0.01204088452699164,-0.20840943551996488
715,10.56335827364986,-1.457730896825501,-0.0119689422735461,-0.21276485116102875
716,10.57664551676137,-1.481061323740876,-0.011965951968332528,-0.2157009313405995
717,10.58993275987288,-1.498502884876187,-0.012031603660903683,-0.21611950971992847
718,10.603220002984388,-1.509588191704211,-0.012160388363901535,-0.21330702435079751
719,10.616507246095898,-1.514839353291506,-0.012347046038473095,-0.20709458156487923
720,10.629794489207407,-1.51539665134414,-0.012589513360135574,-0.19790232755701334
721,10.643081732318915,-1.5125950073230223,-0.012888696432783038,-0.1866444647588586
722,10.656368975430428,-1.507574092384285,-0.01324559018522775,-0.17451185083175225
723,10.669656218541936,-1.5010046153722891,-0.01365691473897748,-0.16269293737003487
724,10.682943461653444,-1.4930047280048575,-0.014110544839200054,-0.15211953967925446
725,10.696230704764954,-1.483286603730658,-0.014581858754530736,-0.14331609950712126
726,10.709517947876463,-1.471507112104794,-0.015032054498334677,-0.13639071841927486
727,10.722805190987971,-1.4577155149411507,-0.015409550742879185,-0.13115112239040175
728,10.73609243409948,-1.442730599094271,-0.015655531204131726,-0.1272835169227955
729,10.74937967721099,-1.4282735289572552,-0.015714088253305558,-0.12451567201064027
730,10.7626669203225,-1.4167437408835615,-0.015546093478229682,-0.1227022891915954
731,10.77595416343401,-1.4106367256288632,-0.015144166408007038,-0.12181104416244148
732,10.789241406545518,-1.4117252991337081,-0.014544635273318314,-0.12183267228827584
733,10.802528649657027,-1.4202160512361373,-0.013831974072682588,-0.12266817269402308
734,10.815815892768535,-1.4341208312423392,-0.013132323436786515,-0.12404880203574749
735,10.829103135880048,-1.4490450959715475,-0.01259524686873276,-0.12552188986522936
736,10.842390378991556,-1.4585078423887026,-0.01236617180184433,-0.12650196193417895
737,10.855677622103064,-1.4547970934981878,-0.01255503317111862,-0.12636068286863664
738,10.868964865214574,-1.4302521806210724,-0.013208479128744356,-0.12452276160506329
739,10.882252108326083,-1.3787645947800942,-0.014292892847678144,-0.12054742193640039
740,10.895539351437591,-1.2972172548971537,-0.01569325827726583,-0.11419430710251306
741,10.908826594549105,-1.1865559212381138,-0.017229097638176847,-0.10548375248099541
742,10.92211383766061,-1.052224653791614,-0.018684480146911164,-0.0947559539046599
743,10.93540108077212,-0.9038064315910571,-0.01984573385792681,-0.08271545334749966
744,10.94868832388363,-0.7538741950555246,-0.020538875801318204,-0.07043005947044281
745,10.96197556699514,-0.6162372090642357,-0.02065911993300466,-0.05925148281494442
746,10.97526281010665,-0.5039124577225002,-0.020186766550919704,-0.05064482516779087
747,10.988550053218155,-0.42721812406361803,-0.019186726451342413,-0.04594880889742532
748,11.001837296329668,-0.39235598845830455,-0.01779233745465701,-0.046121748071283324
749,11.015124539441176,-0.40072993971138965,-0.016177493030662512,-0.05154264860806899
750,11.028411782552686,-0.44907203046107363,-0.014523785172452832,-0.06192414863238258
751,11.041699025664194,-0.5302652800518798,-0.01299051742068573,-0.07635917362572764
752,11.054986268775703,-0.6346165974531022,-0.011694347424623514,-0.09348178160634288
753,11.068273511887211,-0.75128252112979,-0.010701992034887664,-0.11169283134773346
754,11.081560754998725,-0.8695923721212812,-0.010034982294128662,-0.129393921465574
755,11.094847998110232,-0.9801173223164441,-0.009681723072779522,-0.14518714018242287
756,11.10813524122174,-1.0754443317851654,-0.00961068443060525,-0.15802163421471452
757,11.12142248433325,-1.150679890171786,-0.009779870915023567,-0.1672864167641631
758,11.13470972744476,-1.203711570338883,-0.010140848677927248,-0.17285399450069724
759,11.14799697055627,-1.235217962458378,-0.010638838477228067,-0.17507351364675053
760,11.16128421366778,-1.2483859323990831,-0.01121216840737963,-0.1747051801720488
761,11.174571456779288,-1.2483080809422353,-0.011794119849978423,-0.17279000221285126
762,11.187858699890796,-1.2411010468447854,-0.012318379712785309,-0.1704637992625268
763,11.201145943002306,-1.232878682589596,-0.012727093175355527,-0.1687459844497688
764,11.214433186113816,-1.2287846859065092,-0.012979057674824799,-0.16835036150335578
765,11.227720429225323,-1.2322954162948452,-0.01305551154055819,-0.16956692585028862
766,11.241007672336831,-1.2449335551903569,-0.012962067289769313,-0.17224712004938741
767,11.254294915448344,-1.2664118854179034,-0.012726840379424011,-0.17589517139150523
768,11.267582158559852,-1.2951030526936071,-0.012395848704700767,-0.17983579229207539
769,11.280869401671362,-1.3286544586310067,-0.012026875119794304,-0.18340553435466206
770,11.29415664478287,-1.3645620203740305,-0.011682457043710653,-0.18610995038197742
771,11.30744388789438,-1.400573770282521,-0.011422187099274669,-0.18770356659021917
772,11.32073113100589,-1.4348810312150897,-0.011294625061633064,-0.18817929122359048
773,11.3340183741174,-1.4661326538037684,-0.011329809379232345,-0.1876870464520168
774,11.347305617228908,-1.4933505014023416,-0.01153405834314919,-0.18642484208245705
775,11.360592860340416,-1.5158269923468068,-0.011888811138174405,-0.18454985689997536
776,11.373880103451926,-1.5330606733409404,-0.012354400832116185,-0.1821417441151244
777,11.387167346563436,-1.5447520429127133,-0.012878158528098978,-0.17922369962261372
778,11.400454589674943,-1.5508523244489263,-0.013404770692338327,-0.1758213610963544
779,11.413741832786451,-1.5516374606878447,-0.013885995210690347,-0.17202558294967532
780,11.427029075897964,-1.547769659511022,-0.014287044319004337,-0.16802652727112755
781,11.440316319009472,-1.5403112209944505,-0.01458814954372778,-0.1641009022788942
782,11.453603562120982,-1.5306696296504707,-0.0147816825278331,-0.1605548894311692
783,11.466890805232492,-1.5204713420790288,-0.014867091963935873,-0.15764389103728738
784,11.480178048344,-1.5113718757182277,-0.014847050969293297,-0.15549907869688392
785,11.493465291455507,-1.504805374577004,-0.014727904204793144,-0.15408601144354647
786,11.50675253456702,-1.5016672098887989,-0.014525542900055925,-0.15320473901088397
787,11.520039777678528,-1.5019303623149933,-0.014274778111919654,-0.15252218266902623
788,11.533327020790038,-1.5042378549206108,-0.01403741294431617,-0.15161652135424963
789,11.546614263901546,-1.5055832567439589,-0.01390303250752861,-0.15001614514605308
790,11.559901507013056,-1.5012537705363254,-0.013978006683003506,-0.14723056207650484
791,11.573188750124563,-1.4852157695644472,-0.014362207404528848,-0.1427876573445262
792,11.586475993236077,-1.4510358233551983,-0.015118160549076779,-0.13629851373198174
793,11.599763236347584,-1.393258077283572,-0.01624171598414806,-0.1275602170156687
794,11.613050479459092,-1.308957591867103,-0.017644829391983877,-0.11668175409081193
795,11.626337722570602,-1.1990449841537172,-0.0191586592740929,-0.1041913072253088
796,11.639624965682112,-1.068886931177142,-0.02055936929069472,-0.09107118942332
797,11.65291220879362,-0.927957331233035,-0.02161173603995797,-0.07867952535083103
798,11.666199451905127,-0.7885055512860133,-0.022119568186624583,-0.0685534987254792
799,11.67948669501664,-0.6635273628651485,-0.021969326818521033,-0.06213359143393982
800,11.692773938128148,-0.5645408985328618,-0.021155145433123784,-0.06048221642471167
801,11.706061181239658,-0.49972400207632917,-0.019778960846907938,-0.06407753440484108
802,11.719348424351168,-0.472843596676639,-0.018026677067670704,-0.07273932331119691
803,11.732635667462675,-0.4831541749347095,-0.016127749087416002,-0.08569788102314577
804,11.745922910574183,-0.526157940760579,-0.014309330072654844,-0.10176876976828642
805,11.759210153685697,-0.5949022592950948,-0.012756319246350916,-0.119566590021739
806,11.772497396797204,-0.6814027453230517,-0.011585676085212084,-0.13769149347291287
807,11.785784639908712,-0.7778305397875375,-0.010838553898125405,-0.15484946104672975
808,11.799071883020222,-0.8772522600617951,-0.010488812364109286,-0.16990581434160298
809,11.812359126131732,-0.9738987779865123,-0.01046271205160814,-0.18190207307284434
810,11.82564636924324,-1.0631000475683388,-0.010662891418375531,-0.19007639572900248
811,11.83893361235475,-1.1411076707696246,-0.010990188814111956,-0.19391553287749919
812,11.85222085546626,-1.205012135435353,-0.011358987257605419,-0.19323927928176485
813,11.865508098577768,-1.2528610829863531,-0.011704620005689163,-0.1882899555904617
814,11.878795341689278,-1.2839457110916868,-0.011983991132388877,-0.17978265214592198
815,11.892082584800788,-1.299107294384816,-0.012172179442648466,-0.16887503014724364
816,11.905369827912295,-1.3008749159199227,-0.012258083202140849,-0.15703809276281255
817,11.918657071023803,-1.29329279156412,-0.012241287002190132,-0.14584250608691693
818,11.931944314135317,-1.281404500955032,-0.01213082408582619,-0.13670522671267266
819,11.945231557246824,-1.2704819740236248,-0.01194504914276407,-0.13065690480514766
820,11.958518800358334,-1.2651722805345307,-0.011711006104155878,-0.12818724249646785
821,11.971806043469842,-1.268760767091706,-0.011461774494406152,-0.12920587321299298
822,11.985093286581352,-1.282716155992591,-0.01123126191143306,-0.1331270109878622
823,11.99838052969286,-1.3066091714359567,-0.01104738334906148,-0.13905441226576487
824,12.01166777280437,-1.3384032890059248,-0.010925858331481917,-0.14601620514532862
825,12.02495501591588,-1.3750262852814974,-0.010867249463116345,-0.15318434408336415
826,12.038242259027388,-1.413065621606996,-0.010858973381452251,-0.16001768949070228
827,12.051529502138898,-1.4494078346810102,-0.010882074450775202,-0.16629310711473694
828,12.064816745250408,-1.4816716316864347,-0.01092040577341644,-0.17202850879562723
829,12.078103988361915,-1.5083600930509669,-0.010968565575027478,-0.17733993676489618
830,12.091391231473429,-1.5287555750232518,-0.011035185801797853,-0.18229521621560668
831,12.104678474584937,-1.5426669779915585,-0.011139903532088017,-0.18682127399293386
832,12.117965717696444,-1.5501803159749037,-0.011304791176498461,-0.19069507449562337
833,12.131252960807954,-1.5515428270773164,-0.011543147217466717,-0.19361223790624718
834,12.144540203919464,-1.547235009448821,-0.011849598735437186,-0.19529779751692253
835,12.157827447030972,-1.538183568877613,-0.012195215023877706,-0.1956112223217463
836,12.17111469014248,-1.525982301354941,-0.01252999777013045,-0.19460589149806776
837,12.18440193325399,-1.5129527742716213,-0.012793132795228179,-0.19252574553528862
838,12.1976891763655,-1.5019081300728965,-0.012929243931584695,-0.18974680438967098
839,12.21097641947701,-1.4955734219203056,-0.012907034785632389,-0.18668712355639752
840,12.224263662588518,-1.4957381931997848,-0.012735518030658501,-0.1837111067542473
841,12.237550905700028,-1.5023362445540176,-0.01247279551085896,-0.18104698653630358
842,12.250838148811535,-1.512727863074741,-0.012223262973234674,-0.17872779099166727
843,12.264125391923049,-1.5214710944577483,-0.012121277906173707,-0.17656188741363596
844,12.277412635034556,-1.520793240999318,-0.012302638195909264,-0.17413923630576042
845,12.290699878146064,-1.5018148184768785,-0.012869120113938355,-0.17087967719180566
846,12.303987121257574,-1.4563661570598174,-0.013854708618750204,-0.16612558979961567
847,12.317274364369084,-1.3790279235163754,-0.015203604381373213,-0.15927174433520758
848,12.330561607480591,-1.2688902627123584,-0.01676848918974265,-0.14991242586417047
849,12.3438488505921,-1.1305210041659752,-0.018332710935655878,-0.13797499016903267
850,12.35713609370361,-0.9737873002493121,-0.01965314445073485,-0.12380534617166433
851,12.37042333681512,-0.8124608133656073,-0.02051370797649774,-0.10817779202684953
852,12.38371057992663,-0.6618752263447071,-0.02077537743965991,-0.09221837222453695
853,12.39699782303814,-0.5361876347018993,-0.020408773552100426,-0.0772524445938949
854,12.410285066149648,-0.4459232237198899,-0.01950012634765977,-0.064606256237245
855,12.423572309261155,-0.3964056941753622,-0.018229094476326545,-0.05540292731706045
856,12.436859552372669,-0.38741506237525525,-0.016824992947432102,-0.050392982447016926
857,12.450146795484176,-0.41405550319677203,-0.015513919690321109,-0.04985030089987664
858,12.463434038595686,-0.46847860706709576,-0.014471303076814237,-0.05355007209735682
859,12.476721281707194,-0.5419012548971678,-0.013791981257084321,-0.06082938306278807
860,12.490008524818704,-0.626341281873446,-0.013483923799440608,-0.0707152345358156
861,12.503295767930211,-0.7156579810797729,-0.013484176901265271,-0.08209102543075184
862,12.516583011041725,-0.8057587151922075,-0.013689170881027855,-0.09386463078840974
863,12.529870254153233,-0.8941188216511438,-0.013988351083569642,-0.10510346397322008
864,12.54315749726474,-0.9789662312904073,-0.01429101376116952,-0.11511541356833137
865,12.55644474037625,-1.0585435095218485,-0.014540403365033167,-0.12347429814984426
866,12.56973198348776,-1.1307660546488367,-0.014714504295151613,-0.13000514599623905
867,12.58301922659927,-1.1933881099946297,-0.014817301454266386,-0.13475013390808901
868,12.596306469710775,-1.2445535356706312,-0.01486617992164364,-0.13792917850307113
869,12.609593712822289,-1.2834434370373582,-0.014880483960059745,-0.13989658184373302
870,12.622880955933796,-1.3107047844375879,-0.014874055922980998,-0.14108686081914332
871,12.636168199045306,-1.3284572519915998,-0.01485221764773159,-0.14194569087953127
872,12.649455442156816,-1.3398688263414837,-0.01481215729734221,-0.1428544968149512
873,12.662742685268324,-1.3484698835541469,-0.01474528215847226,-0.14407062030461715
874,12.676029928379831,-1.3574603462861377,-0.014640397068190793,-0.145707936653655
875,12.689317171491345,-1.369227580616677,-0.014487016906104006,-0.147769607283209
876,12.702604414602853,-1.3851674258080262,-0.014278401293273705,-0.15022029323822855
877,12.715891657714362,-1.4057591824056657,-0.014013980057635133,-0.15306324991796913
878,12.72917890082587,-1.4307582616848102,-0.013700812713683423,-0.15638212473079113
879,12.74246614393738,-1.459371819447313,-0.013353694501834639,-0.16032283716061266
880,12.75575338704889,-1.4903571485891223,-0.012993604190123796,-0.16502015668549316
881,12.7690406301604,-1.5220765008419368,-0.012644511318706985,-0.17050135835429087
882,12.782327873271909,-1.552595991285605,-0.012329121277932481,-0.17661169558521728
883,12.795615116383416,-1.5798986022095793,-0.012064683117226008,-0.1829978833384332
884,12.808902359494926,-1.6022055590546285,-0.011860116641673163,-0.18916119986663166
885,12.822189602606436,-1.6183164041639482,-0.011715205223465277,-0.19456315165093818
886,12.835476845717944,-1.627841327526533,-0.011621661004478867,-0.19874681785458698
887,12.848764088829451,-1.6312357196719414,-0.011565073120924956,-0.20143383815283947
888,12.862051331940965,-1.6296360556478378,-0.011526626707297156,-0.20256998418717573
889,12.875338575052472,-1.6245835093794612,-0.011484126865315985,-0.20231331547579748
890,12.888625818163982,-1.6177528451867256,-0.01141288879729697,-0.20097725918561693
891,12.901913061275492,-1.6107600936318471,-0.011287849554574104,-0.19894910095637777
892,12.915200304387,-1.6050326283441625,-0.0110882827980935,-0.19660202709697164
893,12.92848754749851,-1.6016501114060175,-0.01080549893599411,-0.19421196650446607
894,12.94177479061002,-1.601059388113826,-0.010452078317288909,-0.19188630814140115
895,12.955062033721529,-1.6026460821109627,-0.010069265085673634,-0.18951332057624404
896,12.968349276833036,-1.6042744608247008,-0.009728270669325217,-0.18674593725478125
897,12.981636519944546,-1.602015270394217,-0.009522289710095985,-0.18303518661261095
898,12.994923763056056,-1.590301001016642,-0.009548987119645934,-0.17772195682377542
899,13.008211006167564,-1.562649822102267,-0.009886958357042145,-0.17018075555221396
900,13.021498249279077,-1.51290942206683,-0.010572558913546986,-0.1599903896215703
901,13.034785492390585,-1.4367630134931726,-0.011584251617906821,-0.14709148357197604
902,13.048072735502092,-1.3330992435616442,-0.01283986473742755,-0.13188646050290706
903,13.061359978613602,-1.20483829328056,-0.014208495364241625,-0.11524764363870856
904,13.074647221725112,-1.058938035569223,-0.015534481641117964,-0.09842189334526237
905,13.08793446483662,-0.9055306278374318,-0.01666734133923781,-0.08284874159203268
906,13.10122170794813,-0.7563804718964556,-0.017489991605778715,-0.06993320464643488
907,13.11450895105964,-0.6230285468660821,-0.017938403528284123,-0.06082515585496749
908,13.127796194171149,-0.5150471346268605,-0.01800871080479974,-0.05625077233705085
909,13.141083437282658,-0.4387696337374454,-0.017751574766097268,-0.05642270939129051
910,13.154370680394166,-0.3967157893271224,-0.017256952675679057,-0.06103457833185978
911,13.167657923505676,-0.3877522725115076,-0.016634269828848414,-0.06933118772869368
912,13.180945166617184,-0.40785891254202117,-0.015992992249357286,-0.08024069751697807
913,13.194232409728697,-0.4512485989864602,-0.015427133795477914,-0.09255251676582861
914,13.207519652840205,-0.5115381314160795,-0.015005210426370494,-0.105118111354508
915,13.220806895951712,-0.5826970978445607,-0.014765487534072173,-0.1170395567556545
916,13.234094139063222,-0.6596022984772119,-0.014715530817726967,-0.1278001809684195
917,13.247381382174732,-0.7381671339486182,-0.014834994057239518,-0.1372949411803335
918,13.26066862528624,-0.8151557268071022,-0.015080875894737833,-0.14574266185156692
919,13.273955868397753,-0.8878840181435897,-0.015394786834542738,-0.15350309421146083
920,13.28724311150926,-0.9540198917510738,-0.0157118781399442,-0.16086139780761288
921,13.300530354620768,-1.0116148595964258,-0.015970900516305148,-0.1678596613409395
922,13.313817597732278,-1.0593624639629444,-0.016124369163171358,-0.17423777494348647
923,13.327104840843788,-1.096945295765178,-0.016147152039229805,-0.17950132021088722
924,13.340392083955296,-1.1252681768791333,-0.016041319408688373,-0.18308440425329797
925,13.353679327066803,-1.146412677366003,-0.015835261476237858,-0.18454393894040946
926,13.366966570178317,-1.1632693435199861,-0.015576224900891252,-0.1837193807067197
927,13.380253813289825,-1.1789475977519037,-0.01531742510663582,-0.1808128412788243
928,13.393541056401334,-1.1961579866490386,-0.015103064337440476,-0.1763746116641568
929,13.406828299512842,-1.2167639298040636,-0.014955869020804353,-0.17120594881650106
930,13.420115542624352,-1.2416164206321612,-0.014871305709052969,-0.16620840241673282
931,13.43340278573586,-1.2706641761854158,-0.014820384868200167,-0.16221639478538794
932,13.446690028847373,-1.3032353453087222,-0.014759817306901483,-0.15984898549830484
933,13.45997727195888,-1.338354963850004,-0.014645688387988562,-0.15940992288689684
934,13.473264515070388,-1.374994284265641,-0.014445944036336339,-0.16085397999906112
935,13.486551758181898,-1.4122104443327832,-0.01414808619734224,-0.16382342420181475
936,13.499839001293408,-1.4491876759911784,-0.013760758513838994,-0.1677427434011519
937,13.513126244404916,-1.4852133681834725,-0.013310097045601006,-0.17194562549466727
938,13.526413487516423,-1.519619567686051,-0.012832903452994933,-0.1758007847728054
939,13.539700730627937,-1.5517132691037903,-0.012368749765129214,-0.17880688928504349
940,13.552987973739445,-1.580721879036245,-0.011952557736606967,-0.18064101305993244
941,13.566275216850954,-1.6057906874771821,-0.01160862306403627,-0.18116306053017994
942,13.579562459962464,-1.6260703513377546,-0.011346752085262488,-0.1803916205516726
943,13.592849703073972,-1.6409087439646841,-0.011161023934709491,-0.178469570028193
944,13.60613694618548,-1.6501130321237412,-0.011031417402236917,-0.17563177596433266
945,13.619424189296993,-1.6541937955857564,-0.0109280551520178,-0.1721778591322873
946,13.6327114324085,-1.6544726934410285,-0.010817308629639345,-0.16844534342444095
947,13.64599867552001,-1.6529510964248022,-0.010668762216741397,-0.16477515143129576
948,13.659285918631518,-1.6519009970349572,-0.010462141683968404,-0.1614628188548579
949,13.672573161743028,-1.653230284557058,-0.01019354450073743,-0.15869486665557728
950,13.685860404854536,-1.6577590728245901,-0.009880320146467912,-0.15647962015203923
951,13.699147647966049,-1.6645932373285677,-0.0095635882736065,-0.15459233627958807
952,13.712434891077557,-1.6707817129879399,-0.009306885575040728,-0.1525602690564344
953,13.725722134189065,-1.6713975386088071,-0.009189323205478566,-0.14970891140369946
954,13.739009377300574,-1.6601013707101262,-0.009292424020908444,-0.14527497231072706
955,13.752296620412084,-1.6301458999753407,-0.009681639760639037,-0.1385697233626788
956,13.765583863523592,-1.5756760997967016,-0.010385999286026596,-0.12915710928959126
957,13.7788711066351,-1.4930903865449539,-0.011381462798673334,-0.11700232238611784
958,13.792158349746613,-1.3821720253739835,-0.012584216793294745,-0.10255122445856941
959,13.80544559285812,-1.246701802770988,-0.013858536782668672,-0.08671647693583263
960,13.81873283596963,-1.0943404178232767,-0.01503998519063221,-0.07076715965863259
961,13.83202007908114,-0.9357219730193417,-0.015969639291739963,-0.05613995460627097
962,13.845307322192648,-0.7828987680960545,-0.016530588757519792,-0.04420802134687612
963,13.858594565304156,-0.6474650775755456,-0.01667605173007512,-0.03605552428155425
964,13.871881808415669,-0.5387964688587799,-0.016440290543992937,-0.032308095556953485
965,13.885169051527177,-0.46282172213855205,-0.015928727627255567,-0.0330593191515369
966,13.898456294638684,-0.42158966100169454,-0.015290403156200253,-0.03791020302188296
967,13.911743537750194,-0.41364985026663625,-0.014681551997622007,-0.04610729639763537
968,13.925030780861704,-0.43502168856778833,-0.01423141857734171,-0.056735729060277885
969,13.938318023973212,-0.4803742997621905,-0.01401969603701546,-0.06890791564950455
970,13.951605267084725,-0.5440362921261402,-0.014070077901432667,-0.08189442696612943
971,13.964892510196233,-0.6205921391430088,-0.01435847011919252,-0.09516867857878684
972,13.97817975330774,-0.7050333008464356,-0.014829836610771372,-0.1083707199351207
973,13.99146699641925,-0.7926241079856231,-0.015416124108951192,-0.1212233064110258
974,14.00475423953076,-0.8787386306612073,-0.016049476560587608,-0.13344531530906176
975,14.01804148264227,-0.9588957279724866,-0.01666873562215174,-0.14470135623042618
976,14.031328725753776,-1.02908917394717,-0.01722093302433572,-0.15460764928366047
977,14.044615968865289,-1.0863414123565487,-0.017661325946009686,-0.16279187430826836
978,14.057903211976797,-1.1292782092446045,-0.01795494542996716,-0.1689865766376718
979,14.071190455088306,-1.1584829669717613,-0.018080400551527112,-0.17312598796343143
980,14.084477698199816,-1.1764566201575695,-0.018034285740067622,-0.17541522307124252
981,14.097764941311324,-1.187147715029535,-0.017833288003351683,-0.1763471302998051
982,14.111052184422832,-1.1951649663764856,-0.01751157125750852,-0.17665370987123807
983,14.124339427534345,-1.2048819325059628,-0.017112962812621747,-0.1771944412636242
984,14.137626670645853,-1.2196604455277327,-0.0166799524430855,-0.17880103853726143
985,14.15091391375736,-1.241362913424761,-0.01624332386322743,-0.18211306271013025
986,14.16420115686887,-1.270226057900171,-0.015816400417513112,-0.18744549767471785
987,14.17748839998038,-1.3050688386671818,-0.015396180427862952,-0.19472288128837648
988,14.19077564309189,-1.3437342946405335,-0.014970784873459542,-0.2034952665370754
989,14.2040628862034,-1.3836315315744014,-0.01452997629422133,-0.21302657308397324
990,14.217350129314909,-1.422248548200021,-0.014074277281792039,-0.22242656113646603
991,14.230637372426417,-1.4575390155871235,-0.013618934855596183,-0.23079124418991995
992,14.243924615537926,-1.4881331410542102,-0.013191230582660751,-0.23732313450583045
993,14.257211858649436,-1.5133707846898736,-0.012822367016381142,-0.24141623876937637
994,14.270499101760944,-1.5331927260401197,-0.012537211768106018,-0.24270374439829584
995,14.283786344872452,-1.5479467718396294,-0.012345818519081215,-0.24107396124145386
996,14.297073587983965,-1.5581687954872174,-0.01223980952626826,-0.23666127154956895
997,14.310360831095473,-1.5643896027171371,-0.012194883200497383,-0.2298158866175928
998,14.323648074206982,-1.567003486554458,-0.012178588824779698,-0.22105329918207106
999,14.33693531731849,-1.5662186261833373,-0.01216069830704297,-0.21098531626711137
1000,14.35022256043,-1.5620952566378927,-0.012122475993203607,-0.20024047527079955
1001,14.36350980354151,-1.5546648293919179,-0.012061265123322834,-0.18938937397168196
1002,14.37679704665302,-1.5441111906317508,-0.011988235853630668,-0.17889412679872183
1003,14.390084289764529,-1.530981262774004,-0.011919628179996838,-0.1690960000378799
1004,14.403371532876037,-1.516375956943502,-0.011864604518740067,-0.16024134458693498
1005,14.416658775987546,-1.5020531869211684,-0.011814792378513529,-0.15252900571789257
1006,14.429946019099056,-1.4903615699045802,-0.011740754711978,-0.1461509275669704
1007,14.443233262210564,-1.48393016849674,-0.011598594075221316,-0.1412981692379477
1008,14.456520505322077,-1.4850819335057006,-0.011346183780402828,-0.13811812094874643
1009,14.469807748433585,-1.4950219798852917,-0.010964423336972206,-0.1366305304128911
1010,14.483094991545093,-1.5129616133702666,-0.010476067306143443,-0.13663114431992027
1011,14.496382234656602,-1.5354370025836597,-0.009954371913043247,-0.13762292717932512
1012,14.509669477768112,-1.5561169782821045,-0.009516411138257058,-0.13881031822161374
1013,14.52295672087962,-1.566327578712132,-0.009300666902443638,-0.13917325365865119
1014,14.53624396399113,-1.5563469320764065,-0.009433798570962836,-0.13761283620749235
1015,14.54953120710264,-1.517285617012591,-0.009995552303643697,-0.1331397946563919
1016,14.562818450214149,-1.4431448242785343,-0.010992204473517711,-0.1250668074872353
1017,14.576105693325658,-1.3325247281537083,-0.012347147017216674,-0.1131667708157084
1018,14.589392936437166,-1.1894961647345474,-0.013912538237846654,-0.09776744799263469
1019,14.602680179548676,-1.0233512590966638,-0.015499624848332928,-0.07976452067077205
1020,14.615967422660184,-0.8472529123062396,-0.016919408309247763,-0.060547425971682826
1021,14.629254665771697,-0.6761078384295239,-0.018021957496793244,-0.04184464442635338
1022,14.642541908883205,-0.5241895631170508,-0.01872326797547951,-0.025507128145874844
1023,14.655829151994713,-0.4030717218362291,-0.019013009749726865,-0.013259995252014928
1024,14.669116395106222,-0.3202967649220129,-0.018943071831208844,-0.006461945194141441
1025,14.682403638217732,-0.27895923271970924,-0.01860293635503803,-0.0059156409819844805
1026,14.695690881329242,-0.27811661763412154,-0.01809132179268357,-0.011766267969515761
1027,14.70897812444075,-0.31374114004889914,-0.01749319543992742,-0.023507720907646655
1028,14.72226536755226,-0.3798470326780475,-0.016867738129169012,-0.04009009399130289
1029,14.735552610663769,-0.4694786430650536,-0.01624794091713541,-0.0600974189741021
1030,14.748839853775278,-0.575388272588368,-0.01564834671429226,-0.08195086812246132
1031,14.762127096886788,-0.6904030174716446,-0.015075505736925758,-0.1040950570691869
1032,14.775414339998296,-0.8076082467539761,-0.014536282641342588,-0.12514108745789412
1033,14.788701583109804,-0.9205185352695257,-0.014041417948143132,-0.14396081148348178
1034,14.801988826221317,-1.0233618947523566,-0.01360437827027205,-0.15974228326696505
1035,14.815276069332825,-1.1115021689213498,-0.013237395681940387,-0.17202026680439558
1036,14.828563312444334,-1.1819162203752451,-0.012947198826048893,-0.18068890854182593
1037,14.841850555555842,-1.2335722018384647,-0.012732435943837862,-0.18599306252011225
1038,14.855137798667352,-1.2675499927278628,-0.012583702042390675,-0.188488203751259
1039,14.86842504177886,-1.2868069460211733,-0.012485936686612423,-0.18896078488186102
1040,14.881712284890371,-1.295598547177422,-0.012422111122410234,-0.18831064748556
1041,14.89499952800188,-1.2986744523082145,-0.012376764231538571,-0.1874103708478375
1042,14.908286771113389,-1.300443568430029,-0.012338143814461976,-0.18696753190887874
1043,14.921574014224898,-1.3043101370584271,-0.01229838395501416,-0.18741987186359832
1044,14.934861257336408,-1.3123247246710774,-0.012252043418970002,-0.1888879618729505
1045,14.948148500447918,-1.32519323932602,-0.012194066406021642,-0.19119613747669217
1046,14.961435743559424,-1.3425809607849095,-0.01211846583777522,-0.19395428898401862
1047,14.974722986670937,-1.3635727258961419,-0.012018649691821091,-0.19667645488224153
1048,14.988010229782445,-1.3871263513605587,-0.011889497529271814,-0.19890289134653572
1049,15.001297472893954,-1.4123860656469287,-0.011730449512064464,-0.2002938142689959
1050,15.014584716005464,-1.4387902111377289,-0.011548382878056231,-0.200674691928936
1051,15.027871959116972,-1.4659858300935642,-0.011359084206731988,-0.2000302658196823
1052,15.04115920222848,-1.4936242088932514,-0.011186581516378495,-0.19846096361652182
1053,15.054446445339993,-1.521137871642754,-0.011060255212305258,-0.19612530133111095
1054,15.0677336884515,-1.5475886605592248,-0.011010294712377265,-0.19319214903888104
1055,15.081020931563009,-1.571640811174969,-0.01106253936534831,-0.18981784099896895
1056,15.094308174674518,-1.5916709522117638,-0.011233881073465195,-0.186149033315946
1057,15.107595417786028,-1.6059932277695672,-0.011529132244133895,-0.182339149681261
1058,15.120882660897538,-1.6131566872455596,-0.011939695619952726,-0.17856014827558708
1059,15.134169904009047,-1.6122600333918977,-0.012443824087837162,-0.174995021217429
1060,15.147457147120557,-1.603221646129783,-0.013008028945438163,-0.1718079794086251
1061,15.160744390232065,-1.5869424492193738,-0.013589341847184952,-0.16910285665296945
1062,15.174031633343574,-1.5653124099959417,-0.014138447579429846,-0.16688913427625535
1063,15.187318876455084,-1.5410414382827955,-0.014603905787161675,-0.16507466972310547
1064,15.200606119566594,-1.517334647092154,-0.014937646263477366,-0.16349432849776419
1065,15.2138933626781,-1.4974642312691253,-0.015101700352455514,-0.1619680288263261
1066,15.227180605789613,-1.4843014444204148,-0.015075784624936283,-0.1603667392413939
1067,15.24046784890112,-1.4798603718312955,-0.014864873641027544,-0.1586575249042051
1068,15.25375509201263,-1.4848827562874742,-0.014505298539615108,-0.15690292682678605
1069,15.267042335124138,-1.4984796879281574,-0.014067363045337022,-0.15520512549340756
1070,15.280329578235648,-1.5178572994892165,-0.013652304276755232,-0.1536063204287458
1071,15.293616821347156,-1.5381914890015305,-0.013381940104386448,-0.15197630484650557
1072,15.306904064458667,-1.5527633345508782,-0.013380635245569955,-0.14992974905972165
1073,15.320191307570177,-1.5534875493096811,-0.013751146795099358,-0.14681476526491244
1074,15.333478550681685,-1.5319234515138749,-0.014548152791163935,-0.14179911928827246
1075,15.346765793793194,-1.480734081926096,-0.015755315648923945,-0.13405281993883814
1076,15.360053036904704,-1.3953775770416816,-0.017272835761679546,-0.12299242665063997
1077,15.373340280016214,-1.2756421916794023,-0.018921705094412343,-0.10852427391884104
1078,15.386627523127723,-1.1265586416741789,-0.020467647884555226,-0.09121253824420475
1079,15.399914766239233,-0.9583045745829382,-0.02166233591069226,-0.07231033787256146
1080,15.41320200935074,-0.7849584966266607,-0.0222934808292411,-0.053625819446413085
1081,15.42648925246225,-0.6222933851575732,-0.022231270017744234,-0.037240403483480365
1082,15.43977649557376,-0.48510442816056737,-0.021458387842931605,-0.0251392054188035
1083,15.453063738685268,-0.38472541812343264,-0.020075026905973646,-0.018841216926045234
1084,15.466350981796776,-0.32734280968215573,-0.01827740103403921,-0.019120442940402164
1085,15.479638224908287,-0.31348130451402456,-0.01631572590576939,-0.025886490572469403
1086,15.492925468019797,-0.3386927649377567,-0.014442937983864196,-0.038249441342370814
1087,15.506212711131306,-0.3951466071095375,-0.012867130931231584,-0.05474204521672228
1088,15.519499954242814,-0.4736013671982612,-0.011718671335556048,-0.07362944296951804
1089,15.532787197354324,-0.5651964625379942,-0.01103814827254044,-0.09321778286785176
1090,15.546074440465834,-0.6626384966823342,-0.01078529215773764,-0.11208447790526237
1091,15.559361683577343,-0.7606055083101142,-0.010863567843550439,-0.12918873617412957
1092,15.572648926688853,-0.8554608283380242,-0.01115186087805227,-0.14386641738445308
1093,15.58593616980036,-0.9445676665247061,-0.011534322392382734,-0.15575085534274108
1094,15.59922341291187,-1.0255738851374954,-0.011921704245845138,-0.16467821304898989
1095,15.61251065602338,-1.0959860653819582,-0.012261165505237018,-0.1706278972270315
1096,15.62579789913489,-1.15320302740685,-0.012535078080274379,-0.17372048162122114
1097,15.639085142246396,-1.1949858694406705,-0.012751787876645626,-0.17425989456841573
1098,15.652372385357909,-1.2201685371542916,-0.01293233826028836,-0.17277906350475203
1099,15.665659628469417,-1.2293170261984039,-0.013097109580886175,-0.17004144512742236
1100,15.678946871580926,-1.2250579772724344,-0.013255580754913728,-0.16696821978324405
1101,15.692234114692436,-1.2119110258020998,-0.013401283378720581,-0.16449415556753716
1102,15.705521357803944,-1.1956285356204046,-0.013512698953303042,-0.16338851014485198
1103,15.718808600915454,-1.182207031530716,-0.013559520678788132,-0.16409586740579102
1104,15.732095844026963,-1.1768309755796353,-0.013512522412653395,-0.16664869683016065
1105,15.745383087138473,-1.1830158862397342,-0.013354376186410222,-0.17068203482140212
1106,15.758670330249982,-1.2021441486201738,-0.013088285040859791,-0.17555063917000624
1107,15.77195757336149,-1.2334678685966471,-0.012741492527088505,-0.18052006270410226
1108,15.785244816473,-1.2745297879321673,-0.01236184085742202,-0.18498170763603164
1109,15.79853205958451,-1.3218578687854616,-0.012007549703629033,-0.18863149329654905
1110,15.81181930269602,-1.3717392201689314,-0.011732761780529044,-0.1915550811030893
1111,15.825106545807529,-1.4208794204108333,-0.01157325398642374,-0.19418235925405355
1112,15.838393788919037,-1.4668005566797264,-0.01153716949038446,-0.19711007162088043
1113,15.851681032030546,-1.5079151557745518,-0.011604266885776354,-0.20083722675387436
1114,15.864968275142056,-1.5433143694184102,-0.011734289413529143,-0.2054980671531042
1115,15.878255518253566,-1.5723988342598494,-0.011881605968663866,-0.21069292312678564
1116,15.891542761365072,-1.5945288993892863,-0.012010656790133021,-0.2154951777302479
1117,15.904830004476583,-1.6088574817490022,-0.012106216866274225,-0.2186551069847557
1118,15.918117247588093,-1.6144351091584268,-0.01217455879375828,-0.21894834943112712
1119,15.931404490699602,-1.610566734858971,-0.01223553914814896,-0.21555802200628263
1120,15.944691733811112,-1.5972919002834427,-0.012309687147404854,-0.2083609587680711
1121,15.95797897692262,-1.5757933943875275,-0.012406551377687267,-0.19801921665403133
1122,15.97126622003413,-1.5485426687050767,-0.012519723323028692,-0.18584516803409912
1123,15.98455346314564,-1.5190685447963028,-0.012630503597884028,-0.17348437766298053
1124,15.997840706257149,-1.4913670318845502,-0.012717856227831253,-0.16251628198125842
1125,16.011127949368657,-1.4691082650617513,-0.012769259798206496,-0.15409147008613588
1126,16.024415192480166,-1.4548868490295257,-0.01278674770096433,-0.14870511453061677
1127,16.037702435591676,-1.4497631736530505,-0.012784895430474095,-0.14615973090779968
1128,16.050989678703186,-1.45324795231588,-0.012781530783083335,-0.14571303835683658
1129,16.064276921814695,-1.463722287394955,-0.012785650400113603,-0.14635456351379697
1130,16.077564164926205,-1.4791207442494136,-0.012788772685822777,-0.14712134242938685
1131,16.090851408037715,-1.497598857786636,-0.012764955400109428,-0.1473568772559318
1132,16.104138651149224,-1.5179022800734008,-0.012681287901169763,-0.1468392559025217
1133,16.11742589426073,-1.539259522975366,-0.012516129910762081,-0.1457471620904321
1134,16.13071313737224,-1.5608025398043188,-0.012278496970222022,-0.14448359180388337
1135,16.14400038048375,-1.5807187839222665,-0.012020401114549781,-0.14342121404550512
1136,16.15728762359526,-1.5954838886845897,-0.011835456242579399,-0.14265717997598523
1137,16.17057486670677,-1.5995567487469649,-0.01184133021523248,-0.1418616614494004
1138,16.18386210981828,-1.5858124711617023,-0.0121493049624521,-0.14027498436337152
1139,16.197149352929788,-1.5467636783886545,-0.012829315184561879,-0.13686252243991834
1140,16.210436596041298,-1.4763436436082225,-0.013881427028473479,-0.13058877448854458
1141,16.223723839152807,-1.3717909779719397,-0.015223597816684191,-0.12073622010318434
1142,16.237011082264313,-1.2350755043451198,-0.016700872969514082,-0.10718012971662165
1143,16.250298325375823,-1.0733871447379122,-0.01811450277830309,-0.09054054321648644
1144,16.263585568487333,-0.8984574775899826,-0.019263226403189167,-0.07216386056272606
1145,16.276872811598842,-0.7248177497852716,-0.019985426678352788,-0.053930591964392226
1146,16.290160054710352,-0.5674044855847148,-0.02019112866613364,-0.037931276333145914
1147,16.30344729782186,-0.43910140096616396,-0.01987647684922179,-0.026087267274770964
1148,16.31673454093337,-0.3488010152528269,-0.019118744804179872,-0.019807441852749304
1149,16.33002178404488,-0.3003957700874963,-0.018055109570977054,-0.01976163396633777
1150,16.34330902715639,-0.292836441230385,-0.016851874223025618,-0.025819052688730693
1151,16.356596270267897,-0.321115852902387,-0.01567199670838178,-0.03715385633839495
1152,16.369883513379406,-0.3778248427210661,-0.014647937254501343,-0.052474056712139
1153,16.383170756490916,-0.4548294333506778,-0.013864615201746266,-0.0702991409731173
1154,16.396457999602426,-0.5446455941130929,-0.013354369071873167,-0.08920719965778964
1155,16.409745242713935,-0.6412261878752261,-0.013102904547530587,-0.10799504870700191
1156,16.423032485825445,-0.7400830814756459,-0.013062926895449606,-0.12573431472323812
1157,16.436319728936954,-0.8378823588126387,-0.013170982617264574,-0.141745263030196
1158,16.449606972048464,-0.9318016127814676,-0.013363138444644379,-0.15553280214750723
1159,16.462894215159974,-1.0189758172073209,-0.013586261584123063,-0.16672953542737162
1160,16.476181458271483,-1.0962769010252855,-0.013803360007071724,-0.17507378994184816
1161,16.48946870138299,-1.1605129694628284,-0.013993222360194329,-0.18042735447142969
1162,16.5027559444945,-1.2089630071062802,-0.014146079437510624,-0.18281871990683848
1163,16.51604318760601,-1.2400435338575495,-0.01425787062465929,-0.1824882512909798
1164,16.52933043071752,-1.2538675834643895,-0.014325699606847143,-0.1799117611800718
1165,16.542617673829028,-1.252500482620093,-0.014346170499297492,-0.17578540791143796
1166,16.555904916940538,-1.239812969108263,-0.014316796183171686,-0.17096465187200383
1167,16.569192160052047,-1.220944296111171,-0.014239143240295194,-0.16636113701595653
1168,16.582479403163557,-1.2014864515879253,-0.014121480047693211,-0.1628123929822905
1169,16.595766646275067,-1.1865670087178966,-0.013978862852024205,-0.16094849160960945
1170,16.609053889386573,-1.1800332026897908,-0.013829813709169358,-0.16108500381777086
1171,16.622341132498082,-1.183920112184769,-0.01369051122196746,-0.1631705277473925
1172,16.635628375609592,-1.198322557114575,-0.013568921313119606,-0.16680827603126325
1173,16.6489156187211,-1.2216919633477799,-0.013461762748965498,-0.17135485587920538
1174,16.66220286183261,-1.251465552533692,-0.01335626411669929,-0.17607793645186492
1175,16.67549010494412,-1.2848374188011251,-0.013236624125156044,-0.18033366901727296
1176,16.68877734805563,-1.319436104879332,-0.013092837581562898,-0.1837128758237373
1177,16.70206459116714,-1.3537070425181865,-0.012928182726076999,-0.18610975700733953
1178,16.71535183427865,-1.3869076555790012,-0.012761894615148888,-0.1876899605842575
1179,16.728639077390156,-1.418769571734432,-0.01262534201954864,-0.18876946978614778
1180,16.741926320501666,-1.4490062922462166,-0.012552626232281063,-0.18964857827191398
1181,16.755213563613175,-1.4768936005283477,-0.012568822227713225,-0.19046255212726282
1182,16.768500806724685,-1.5011060610705527,-0.012680136663529908,-0.19110471125410144
1183,16.781788049836194,-1.519879960501295,-0.012869659827942826,-0.1912503876271168
1184,16.795075292947704,-1.5314418649743389,-0.013100387447837165,-0.19047215037814358
1185,16.808362536059214,-1.534545308634153,-0.013324537756083754,-0.18840291700633474
1186,16.821649779170723,-1.5289286421876547,-0.013495895160848575,-0.184887359348235
1187,16.834937022282233,-1.5155471206077413,-0.013580912456202241,-0.1800690899597802
1188,16.848224265393743,-1.4965168402944842,-0.013565065610132333,-0.17438712892778527
1189,16.86151150850525,-1.4747985621469317,-0.013453138167750222,-0.16848788522936103
1190,16.87479875161676,-1.453712829620191,-0.013264625920491626,-0.1630845654966604
1191,16.888085994728268,-1.4364014273261931,-0.01302702925853902,-0.15880624408687738
1192,16.901373237839778,-1.4253427618748742,-0.012769752757717188,-0.15607428917583
1193,16.914660480951287,-1.422007656126801,-0.012519954135619333,-0.155031218250075
1194,16.927947724062797,-1.4267182869148447,-0.012300015838128247,-0.1555332987027024
1195,16.941234967174307,-1.4387447449395736,-0.012125435882697147,-0.15720585352837163
1196,16.954522210285816,-1.4566321380679368,-0.01200231980625099,-0.15954798682819435
1197,16.967809453397326,-1.4786919930509788,-0.011924943649735899,-0.16206065442367268
1198,16.981096696508832,-1.503524319462668,-0.01187514046504166,-0.16436210783834657
1199,16.99438393962034,-1.5303860966013494,-0.011825614936126393,-0.16625402684597704
1200,17.00767118273185,-1.5592214584229351,-0.01174826653071887,-0.1677143595809167
1201,17.02095842584336,-1.590244184164202,-0.011626483327808362,-0.16881693790953964
1202,17.03424566895487,-1.6231130989789102,-0.011468058392336328,-0.16960481420339266
1203,17.04753291206638,-1.655925659055709,-0.011313967324062283,-0.16996296449999634
1204,17.06082015517789,-1.6844018449810818,-0.01123847397670487,-0.16953847763895907
1205,17.0741073982894,-1.7016624531473818,-0.011337989105211369,-0.167741518528958
1206,17.08739464140091,-1.698880363699451,-0.01170928172374006,-0.16383454783845441
1207,17.100681884512415,-1.666821288609965,-0.01242119340144508,-0.15709075488866128
1208,17.113969127623925,-1.597976521848626,-0.013486972712153447,-0.14698418659057108
1209,17.127256370735434,-1.4887409593340017,-0.014845745633848927,-0.133367170346563
1210,17.140543613846944,-1.3410051214477539,-0.01636061820487629,-0.1165938563447477
1211,17.153830856958454,-1.1626516163321856,-0.01783714388401128,-0.09755876785663543
1212,17.167118100069963,-0.9667405668103075,-0.019060033236644822,-0.07763406403302135
1213,17.180405343181473,-0.7695386398656596,-0.019839789563065712,-0.05850816204495576
1214,17.193692586292983,-0.5878693587179994,-0.020056759435495328,-0.0419500074232323
1215,17.206979829404492,-0.4364332648593028,-0.019689805618725967,-0.0295431806616978
1216,17.220267072516002,-0.32571573480589083,-0.01882094520234023,-0.022445180782910728
1217,17.233554315627508,-0.2608901682139803,-0.01761456226400729,-0.02122355644080883
1218,17.246841558739018,-0.24181778503476375,-0.016277601819873262,-0.025801162864738502
1219,17.260128801850527,-0.2639520396954415,-0.015012657331334634,-0.03551381979094588
1220,17.273416044962037,-0.3197689660989749,-0.013977193753499751,-0.0492557988668974
1221,17.286703288073547,-0.40030684657056026,-0.013259072988217543,-0.06567181851093173
1222,17.299990531185056,-0.4964896421931482,-0.01287250428778579,-0.08335257563545857
1223,17.313277774296566,-0.6000646224391736,-0.012771958870185323,-0.10100108945954932
1224,17.326565017408075,-0.7041335747546726,-0.012876830595580459,-0.11755193968732389
1225,17.339852260519585,-0.8033521105695614,-0.013098032560017988,-0.1322381983133881
1226,17.35313950363109,-0.8939042022967157,-0.01335920727427912,-0.14460872528676336
1227,17.3664267467426,-0.9733486399908019,-0.01360858330296947,-0.1545027361353352
1228,17.37971398985411,-1.0404076182097308,-0.013821136742601653,-0.16199190481612127
1229,17.39300123296562,-1.0947433501428951,-0.013993374391390787,-0.16730407016355558
1230,17.40628847607713,-1.13675131244368,-0.014134258278423545,-0.17074551473036662
1231,17.41957571918864,-1.167385417434008,-0.01425572270037566,-0.172638133619616
1232,17.43286296230015,-1.1880181167219257,-0.014365380700645376,-0.17328239521824057
1233,17.44615020541166,-1.20032809171086,-0.014462819081615116,-0.17294841872696043
1234,17.45943744852317,-1.2062029257580023,-0.014539642066096023,-0.17188894534776208
1235,17.472724691634678,-1.2076456149597348,-0.014582396163113838,-0.1703619626261309
1236,17.486011934746184,-1.206680485205823,-0.014576931477524844,-0.16864820320400245
1237,17.499299177857694,-1.205262650159322,-0.014512730107490284,-0.16705003877292482
1238,17.512586420969203,-1.2052017892999907,-0.014386108644754807,-0.165864128527622
1239,17.525873664080713,-1.2081119289579778,-0.014201673253289733,-0.16533079326471134
1240,17.539160907192223,-1.2153909315977065,-0.013971781441653813,-0.16557612646511138
1241,17.552448150303732,-1.2282169480762881,-0.013714107302434496,-0.1665723612903783
1242,17.565735393415242,-1.2475313103659866,-0.013447862291482694,-0.16814073065347956
1243,17.57902263652675,-1.2739710688752548,-0.013189736855786623,-0.17000570242750573
1244,17.59230987963826,-1.3077308082597674,-0.012950896566777833,-0.17188509366490254
1245,17.605597122749767,-1.3483724162951654,-0.012736099970987003,-0.17357957723080344
1246,17.618884365861277,-1.3946472079496157,-0.012545221349342712,-0.17502030823010822
1247,17.632171608972786,-1.4444212817520576,-0.012376512570916843,-0.1762495854405368
1248,17.645458852084296,-1.4947809792703006,-0.012230263691125051,-0.17733969211090872
1249,17.658746095195806,-1.5423394577934781,-0.012111376454995621,-0.17828470167012747
1250,17.672033338307315,-1.5836908238040204,-0.012029745125143952,-0.17891530429049096
1251,17.685320581418825,-1.615901557980956,-0.01199807987298653,-0.17888146192418622
1252,17.698607824530335,-1.6369187930063307,-0.012027676226084371,-0.17772461101842651
1253,17.711895067641844,-1.6458146187508633,-0.012123363905737091,-0.1750285791477313
1254,17.72518231075335,-1.6428505582780633,-0.01227922075739816,-0.17060674022039932
1255,17.73846955386486,-1.6293994170621222,-0.012476510127075215,-0.16466228453538911
1256,17.75175679697637,-1.6077756676740795,-0.012684778224994508,-0.15785684147870815
1257,17.76504404008788,-1.5810005751646907,-0.012866307770996158,-0.15124353184320685
1258,17.77833128319939,-1.5524924370946844,-0.012983280225576658,-0.14606025182907592
1259,17.7916185263109,-1.5256632650944122,-0.013006096258578289,-0.1434264431028531
1260,17.804905769422408,-1.5034414810054022,-0.012920510772133471,-0.1440258212515879
1261,17.818193012533918,-1.4878109433510895,-0.012731010046923397,-0.14787317134651454
1262,17.831480255645427,-1.4795133561832399,-0.012458748398618377,-0.1542466664494604
1263,17.844767498756937,-1.478051752160458,-0.012134472971305313,-0.16182046812547346
1264,17.858054741868443,-1.4820351268120866,-0.01178941802771906,-0.16896961840857902
1265,17.871341984979953,-1.4897493613624635,-0.01144871657901661,-0.17416228271609682
1266,17.884629228091462,-1.4997036804019206,-0.011131258350834158,-0.17632461179448963
1267,17.897916471202972,-1.5108677195481635,-0.010857006242763973,-0.17507207188838567
1268,17.91120371431448,-1.522421762246818,-0.010658737004135681,-0.1707438649248249
1269,17.92449095742599,-1.5330607421374063,-0.010591905616888535,-0.1642373886502302
1270,17.9377782005375,-1.54012944951112,-0.01073560526774301,-0.15669734512847824
1271,17.95106544364901,-1.5390124583032239,-0.011180179609581455,-0.1491535076019188
1272,17.96435268676052,-1.5231814801383339,-0.012002255681195244,-0.1422142739847476
1273,17.977639929872026,-1.4851069145756004,-0.01323378690146319,-0.1359080930740691
1274,17.990927172983536,-1.4179332816592713,-0.014835581780846227,-0.12972440851685452
1275,18.004214416095046,-1.3175119385810299,-0.01668584745323478,-0.12284799420662275
1276,18.017501659206555,-1.1841969219988473,-0.01859017481978972,-0.11451977901571421
1277,18.030788902318065,-1.0238195188506227,-0.020312574690706964,-0.10441197003417754
1278,18.04407614542957,-0.8474705977819477,-0.021620229268120347,-0.09289227670153755
1279,18.057363388541084,-0.6700648631658312,-0.022330173938476992,-0.08107939629186747
1280,18.070650631652597,-0.5080146309128297,-0.022345714428025718,-0.07065430144269635
1281,18.083937874764104,-0.37657815935682554,-0.021673874694225694,-0.06347036029018262
1282,18.09722511787561,-0.28749515385268937,-0.02042095777102147,-0.06107290351472606
1283,18.11051236098712,-0.24738425910733397,-0.018769186315010632,-0.06427074603230373
1284,18.12379960409863,-0.25712815417032725,-0.016941534987508763,-0.07288682312743291
1285,18.13708684721014,-0.3122145781837391,-0.015163377017629,-0.0857593905760413
1286,18.150374090321648,-0.4038189316725177,-0.013628597733172737,-0.10099039961100774
1287,18.16366133343316,-0.5203359859213282,-0.012475318238117863,-0.11636900587271806
1288,18.176948576544667,-0.649073743911062,-0.011773505268724357,-0.12985530833956652
1289,18.190235819656177,-0.777868460178483,-0.011524368126142515,-0.14000132552314912
1290,18.203523062767687,-0.896432574240695,-0.011669817765375932,-0.14621116157330286
1291,18.2168103058792,-0.9972969461839264,-0.01210923038868463,-0.14879024439653996
1292,18.230097548990702,-1.0762630682401426,-0.012720114243497383,-0.1487895376705765
1293,18.24338479210221,-1.1323496023452235,-0.013378996817850687,-0.14769925711127319
1294,18.25667203521372,-1.1672991783242266,-0.013979061759935917,-0.14707625124027768
1295,18.26995927832523,-1.184789061702197,-0.014441899524378436,-0.14819504547568638
1296,18.28324652143674,-1.18953728076097,-0.014722153838173357,-0.1517966327385798
1297,18.29653376454825,-1.1864930147568267,-0.014805560789916938,-0.1579780957388787
1298,18.30982100765976,-1.1802435569345806,-0.014702396316730156,-0.16622900604449062
1299,18.32310825077127,-1.1746801022960849,-0.014439137880372203,-0.17558684206193617
1300,18.33639549388278,-1.1728769392071745,-0.014050890182632168,-0.1848618340401439
1301,18.34968273699429,-1.177088784260389,-0.013575961307614532,-0.1928762365054631
1302,18.362969980105795,-1.188776018953369,-0.013052522938550963,-0.19867232555469555
1303,18.376257223217305,-1.2086162197245922,-0.01251633411819136,-0.20166003491062884
1304,18.38954446632881,-1.2365185047778227,-0.011998517569904193,-0.20169063407250845
1305,18.402831709440324,-1.2716875956854272,-0.011523180563643676,-0.19905324905469973
1306,18.416118952551837,-1.312769445367458,-0.011105590067081469,-0.19439847392283185
1307,18.429406195663343,-1.3580624510996653,-0.01075194446944912,-0.18860221974184563
1308,18.442693438774853,-1.4057318484465586,-0.01046129126056589,-0.18259440830803003
1309,18.455980681886363,-1.4539534193486745,-0.010229160361143528,-0.1771870757570587
1310,18.46926792499787,-1.500947898436498,-0.010051635978975014,-0.17293889829872938
1311,18.48255516810938,-1.544931910271657,-0.009928338472431597,-0.17008499090619256
1312,18.495842411220888,-1.5840677494094133,-0.009863203482826509,-0.16854397825557854
1313,18.5091296543324,-1.6165068764417365,-0.009862790735531892,-0.16799415318722072
1314,18.522416897443907,-1.6405772287206737,-0.009932804477794446,-0.16799296221713558
1315,18.535704140555417,-1.6550818719755847,-0.010074275068079815,-0.16810389990680197
1316,18.548991383666927,-1.6596007230157594,-0.010281168710727949,-0.16799534646835693
1317,18.56227862677844,-1.6546630829906772,-0.01054081220030068,-0.16748777063271666
1318,18.575565869889942,-1.6417040974403911,-0.01083738756607341,-0.1665459168425968
1319,18.588853113001456,-1.622810514974019,-0.011157234963432214,-0.16523334392909977
1320,18.60214035611296,-1.60035064245636,-0.01149356045789803,-0.16365826074354156
1321,18.61542759922447,-1.576623817569835,-0.011848103735544993,-0.16193611803729707
1322,18.62871484233598,-1.553639421733545,-0.0122285364132181,-0.16017850235300987
1323,18.64200208544749,-1.5330628469521907,-0.01264226652606895,-0.15849964110740217
1324,18.655289328559,-1.5162834148819975,-0.013089007530650657,-0.15702203789696095
1325,18.66857657167051,-1.5045016630461785,-0.013555243156798102,-0.15586571933802484
1326,18.68186381478202,-1.4987196324795489,-0.014013388921405778,-0.1551172670758106
1327,18.69515105789353,-1.4995505714786543,-0.014427183735373383,-0.1547869429546794
1328,18.70843830100504,-1.5068348475473534,-0.01476293156826423,-0.15476826471337407
1329,18.721725544116545,-1.5191388613414767,-0.015004022430582057,-0.15481311874287926
1330,18.73501278722805,-1.5332975236997768,-0.015164252776078533,-0.154530267742984
1331,18.748300030339564,-1.5442084068258415,-0.015294596720495237,-0.15341032248753708
1332,18.761587273451077,-1.5450711593544075,-0.015478948345486316,-0.15087779861042275
1333,18.774874516562583,-1.5281777159183976,-0.015817167114125598,-0.14636911862728288
1334,18.788161759674093,-1.4862084782389196,-0.01639791908697379,-0.139431171755401
1335,18.801449002785603,-1.4138140556902132,-0.017267978705057536,-0.12982714053325073
1336,18.814736245897112,-1.3091186159695152,-0.01840720798289647,-0.11762769455130936
1337,18.828023489008626,-1.1747297730825745,-0.019718105404425545,-0.10326203390398621
1338,18.84131073212013,-1.0179188439899662,-0.021035330857517243,-0.08750902753822638
1339,18.85459797523164,-0.8498363593885349,-0.022154887935700904,-0.07142343525326975
1340,18.867885218343147,-0.6838924777382425,-0.022876536283507488,-0.05621053527053974
1341,18.881172461454657,-0.5336705140777176,-0.02304861215256516,-0.043076950262333394
1342,18.894459704566167,-0.4108690169683542,-0.022603289655368043,-0.033090334372465245
1343,18.90774694767768,-0.32373980959182364,-0.021572825519936063,-0.02707428890112664
1344,18.921034190789182,-0.2763219524461165,-0.02008267086892914,-0.02555039307963073
1345,18.934321433900696,-0.26853079594220414,-0.018323784040935022,-0.028722640993894166
1346,18.947608677012205,-0.2969320169919606,-0.016512026483113115,-0.03648757648584534
1347,18.960895920123715,-0.35588138851911333,-0.014845525552275137,-0.048450851998321956
1348,18.97418316323522,-0.4386744908714756,-0.013470583644076873,-0.06393890842108767
1349,18.98747040634673,-0.5384224268857771,-0.012463417508117315,-0.08200953242094462
1350,19.00075764945824,-0.6485181584273341,-0.011829929256360778,-0.10147988386024974
1351,19.01404489256975,-0.7627332949417549,-0.011520500264463444,-0.12099664948806767
1352,19.02733213568126,-0.8751279748637646,-0.011453069857330236,-0.13916452175617766
1353,19.04061937879277,-0.9800143600391936,-0.011536593051046528,-0.15472689649584892
1354,19.05390662190428,-1.0721625352272566,-0.011688545061798035,-0.16676471253688474
1355,19.06719386501579,-1.14729561627827,-0.011843628610105439,-0.1748588438007207
1356,19.080481108127294,-1.2027497427173128,-0.011954716565132653,-0.17916065059083644
1357,19.093768351238804,-1.2380525745002617,-0.011989741989407544,-0.18033870242786515
1358,19.107055594350317,-1.2551594017857934,-0.011928767445411345,-0.17940993720772844
1359,19.120342837461823,-1.2581884548796034,-0.011763867018641492,-0.1775036141884682
1360,19.133630080573333,-1.2526721026508592,-0.01150170325096044,-0.1756281982739511
1361,19.146917323684843,-1.2445126806478686,-0.011166208018145477,-0.17450531461883365
1362,19.160204566796352,-1.2389302610382602,-0.010797857322578184,-0.17450514619604954
1363,19.173491809907866,-1.2396802449983153,-0.01044721465309154,-0.17567869722418342
1364,19.18677905301937,-1.2487133485062014,-0.010163213406508092,-0.17785137643264012
1365,19.20006629613088,-1.266297240071211,-0.00997966935162878,-0.18073093112778119
1366,19.21335353924239,-1.2914777589221493,-0.009905141216472166,-0.18399231264260982
1367,19.226640782353897,-1.322676246408262,-0.009920525081438824,-0.18732446477647233
1368,19.239928025465407,-1.358218165225466,-0.009985928211403825,-0.19044660803575406
1369,19.25321526857692,-1.3966552257140787,-0.010054747724138243,-0.19311368435885692
1370,19.266502511688422,-1.4368434053984964,-0.010090125398557347,-0.19512844390981587
1371,19.279789754799936,-1.477830431919065,-0.010078172478074477,-0.19636513824197455
1372,19.293076997911445,-1.5186576382654555,-0.010033694236572145,-0.19679557091812383
1373,19.306364241022955,-1.5581834921510385,-0.009996874567364844,-0.19650074061095513
1374,19.319651484134464,-1.5950011978444885,-0.010022383589421724,-0.1956543912057286
1375,19.33293872724597,-1.627473522676881,-0.01016460182526817,-0.1944763798458655
1376,19.34622597035748,-1.653866900979812,-0.010463475496032574,-0.19316762036714874
1377,19.35951321346899,-1.6725465483824133,-0.010934827808578405,-0.1918476530071101
1378,19.3728004565805,-1.6821936063291956,-0.011567144065473866,-0.1905165405251279
1379,19.38608769969201,-1.6820128348169137,-0.0123246484104248,-0.18905479754728005
1380,19.39937494280352,-1.6719033638243355,-0.013154699176992976,-0.18726199322074782
1381,19.41266218591503,-1.6525630972305547,-0.013996726358047216,-0.18492190211658657
1382,19.425949429026534,-1.625497672246201,-0.014790244521101963,-0.1818744271448052
1383,19.439236672138048,-1.5929172066962656,-0.015480565268386032,-0.17807405583445565
1384,19.45252391524956,-1.5575288369994764,-0.016022138324819156,-0.1736199623083978
1385,19.465811158361063,-1.5222586492364962,-0.01638044917431475,-0.16875070229279235
1386,19.479098401472573,-1.4899476152663595,-0.016533789147411604,-0.16380404649417443
1387,19.492385644584083,-1.4630550584242412,-0.01647593751786133,-0.1591490284331727
1388,19.505672887695592,-1.4433766580754848,-0.016220010289189193,-0.15510282958692168
1389,19.518960130807105,-1.43176064758113,-0.01580271392609714,-0.15184903842832087
1390,19.53224737391861,-1.427807199232361,-0.015287293246133529,-0.14937460512436274
1391,19.54553461703012,-1.4295737400852357,-0.014762860482957892,-0.1474396112626909
1392,19.55882186014163,-1.4333732856676444,-0.014337824017377137,-0.1455876608537736
1393,19.57210910325314,-1.4338100645954246,-0.014126079021592429,-0.14319733004430507
1394,19.58539634636465,-1.4242026395144083,-0.014226582302881086,-0.13956860754479022
1395,19.59868358947616,-1.3974707317073396,-0.014699589395428066,-0.13403371196742114
1396,19.611970832587662,-1.3474172657092354,-0.015545327356221234,-0.12607931191887478
1397,19.625258075699172,-1.2701717077507575,-0.016692031094198992,-0.11546626831183686
1398,19.638545318810685,-1.1654441713060253,-0.01799909657602387,-0.1023319431220177
1399,19.651832561922195,-1.0372280062147778,-0.01927740978067509,-0.08725744275752667
1400,19.665119805033704,-0.8936974155669389,-0.020323656164690458,-0.07127866679654192
1401,19.67840704814521,-0.7462447888020621,-0.020960520653269456,-0.05581988009782513
1402,19.691694291256724,-0.6078259459882855,-0.02107223866257961,-0.04253750064117911
1403,19.704981534368237,-0.4909599840871936,-0.020626151324364305,-0.033082698388023614
1404,19.71826877747974,-0.4058125785232434,-0.0196753470037397,-0.0288198716589587
1405,19.73155602059125,-0.35875978573546907,-0.01834325946956534,-0.030562748850894772
1406,19.74484326370276,-0.351700048516069,-0.01679587891473774,-0.03839775707370475
1407,19.75813050681427,-0.38219562044503724,-0.015209424791130284,-0.051648066316961797
1408,19.771417749925774,-0.4443318349294789,-0.013740813690330277,-0.06899434090789595
1409,19.784704993037288,-0.5300324064433919,-0.012506098604065805,-0.08872249946641735
1410,19.7979922361488,-0.6304969565729146,-0.011569535118436185,-0.10903198076995992
1411,19.811279479260307,-0.7374460170178785,-0.010943708020855519,-0.12832419493054165
