,time,Red,Green,Blue
0,0.0,-9.423661118093092,-0.034980202284683126,-1.5041028423876217
1,0.0132932747684196,-8.868462626230249,-0.0309535157854694,-1.3868332523938611
2,0.0265865495368393,-8.317219221020945,-0.027089627275129008,-1.2725444996082003
3,0.0398798243052589,-7.774172692455799,-0.023543154969939632,-1.1637823458376821
4,0.0531730990736786,-7.24506426484094,-0.02044835498874619,-1.0625536995317115
5,0.0664663738420982,-6.7375482006858185,-0.017908771907896658,-0.9702731768123929
6,0.0797596486105179,-6.2611611101847995,-0.01598752001579078,-0.8878547976519846
7,0.0930529233789375,-5.826966586013348,-0.014700881403526385,-0.8159160379831785
8,0.1063461981473572,-5.446995699034754,-0.014018172254175745,-0.7550237696545762
9,0.1196394729157768,-5.133502473231924,-0.013869380194563461,-0.7058912934172125
10,0.1329327476841965,-4.897941851627503,-0.014159312687150424,-0.6694407314392679
11,0.1462260224526161,-4.749563804697348,-0.014784311802468317,-0.646678779471528
12,0.1595192972210358,-4.693656646320817,-0.015646546117183496,-0.6383919191999662
13,0.1728125719894554,-4.729722302433305,-0.01666216150736247,-0.6447349778877756
14,0.1861058467578751,-4.850096077814351,-0.01776248352902042,-0.6648409097247335
15,0.1993991215262947,-5.039586060273747,-0.018890434815036317,-0.6965957928435387
16,0.2126923962947144,-5.276525407513036,-0.0199958700069327,-0.7366884657558771
17,0.225985671063134,-5.535246869088671,-0.021033082550191845,-0.7809659323831024
18,0.2392789458315537,-5.789548235840196,-0.021961859667905394,-0.8250298688717634
19,0.2525722205999733,-6.016395926963305,-0.022751314215341857,-0.8649314405357524
20,0.265865495368393,-6.199032904827588,-0.02338433093194236,-0.8977899794180099
21,0.2791587701368127,-6.328832014739274,-0.0238602736883872,-0.9221857253618786
22,0.2924520449052323,-6.405583994292793,-0.024194460089264354,-0.9382454335716909
23,0.3057453196736519,-6.43630229713975,-0.024414300405754555,-0.9474250234293862
24,0.3190385944420716,-6.432948980029373,-0.024553283444002396,-0.952066818767222
25,0.3323318692104912,-6.409668302148669,-0.024644667872183106,-0.9548513403724828
26,0.3456251439789109,-6.380138522637448,-0.02471663014696671,-0.9582701416482247
27,0.3589184187473305,-6.355537305575718,-0.02478991323465267,-0.9642231437975505
28,0.3722116935157502,-6.343408115327932,-0.02487808278684532,-0.9738028964051028
29,0.3855049682841698,-6.347474519631149,-0.024989676068077477,-0.9872808857393655
30,0.3987982430525895,-6.368236716051455,-0.025131051424028734,-1.004267011066248
31,0.4120915178210091,-6.404044984113226,-0.025308713917565534,-1.0239801458692708
32,0.4253847925894288,-6.45229966754872,-0.025530280327628094,-1.0455512081049996
33,0.4386780673578485,-6.510474725949631,-0.02580389443040125,-1.0682837410029387
34,0.4519713421262681,-6.576779001656185,-0.02613654804822986,-1.0918190060001898
35,0.4652646168946877,-6.650413501089338,-0.02653212709720608,-1.116184847981532
36,0.4785578916631074,-6.731499197090761,-0.026989926254166085,-1.1417378663037934
37,0.491851166431527,-6.8207931435106826,-0.027503944392512938,-1.1690267659675997
38,0.5051444411999467,-6.919273382115321,-0.028062790591485073,-1.1986089086681289
39,0.5184377159683663,-7.0275940987694,-0.02864978916589326,-1.2308469113126348
40,0.531730990736786,-7.14535968603167,-0.029242945028724293,-1.2657060963394986
41,0.5450242655052057,-7.270202312182173,-0.029814720737620662,-1.3025756880064443
42,0.5583175402736253,-7.396792603820884,-0.030331928270052832,-1.3401502319391223
43,0.5716108150420449,-7.516126218055828,-0.030756315027430457,-1.3764251053592629
44,0.5849040898104646,-7.6156185071955464,-0.03104663555471447,-1.408867378202234
45,0.5981973645788843,-7.6805888154340405,-0.031163239835831053,-1.4348090716194812
46,0.6114906393473039,-7.6975192012934475,-0.03107631484413861,-1.452067032434746
47,0.6247839141157235,-7.6589850739516185,-0.03077837079940267,-1.4597222524692879
48,0.6380771888841432,-7.569449076106359,-0.030299900404712497,-1.4589047419499646
49,0.6513704636525629,-7.4503902331704355,-0.029724525763707703,-1.4533565356016658
50,0.6646637384209825,-7.342800429718646,-0.029197427712919142,-1.4495210992006906
51,0.6779570131894022,-7.305198279858182,-0.028919987326612523,-1.455961302356472
52,0.6912502879578218,-7.406134446235863,-0.02912563477780003,-1.4820481016686835
53,0.7045435627262414,-7.71161464721597,-0.030037065199948816,-1.5360662212590352
54,0.7178368374946611,-8.269602251214915,-0.031811904706248784,-1.6230988105077395
55,0.7311301122630808,-9.095218832684575,-0.0344900347189092,-1.7432067949276395
56,0.7444233870315003,-10.160823962392527,-0.0379583133366477,-1.8904389632016239
57,0.75771666179992,-11.394417493429126,-0.04194564625890327,-2.053058240313376
58,0.7710099365683397,-12.68781139283859,-0.046053621929181957,-2.21507105853238
59,0.7843032113367594,-13.913330973298004,-0.049817779085751496,-2.3587868514151995
60,0.797596486105179,-14.945336312656687,-0.05278570358708671,-2.467834984266589
61,0.8108897608735987,-15.681477670300614,-0.054593708628510866,-2.5299332771399534
62,0.8241830356420183,-16.058774037269824,-0.05502509850528842,-2.538780726259966
63,0.8374763104104379,-16.061199082380288,-0.05403897104369577,-2.494703035057438
64,0.8507695851788576,-15.717849866794376,-0.05176665269817358,-2.4040188520848154
65,0.8640628599472773,-15.093147964780282,-0.04848035092282327,-2.277405927052406
66,0.877356134715697,-14.272205409086508,-0.044543461111200965,-2.1277448893852613
67,0.8906494094841165,-13.345137584446276,-0.04035359151540096,-1.967968383796584
68,0.9039426842525362,-12.393729419495003,-0.03628837957885981,-1.8093562410648738
69,0.917235959020956,-11.482720579470548,-0.03266169641681228,-1.660535940068976
70,0.9305292337893756,-10.656466473308477,-0.029694872119800438,-1.527230066789705
71,0.9438225085577951,-9.940286255410903,-0.02750469756474675,-1.4125997287969039
72,0.9571157833262148,-9.34479636560993,-0.026107371503461357,-1.317914781689499
73,0.9704090580946344,-8.871163274593632,-0.02543533271318405,-1.2432622561926006
74,0.983702332863054,-8.515495332760812,-0.02536221622661931,-1.188073513747129
75,0.9969956076314738,-8.271338562353279,-0.025730347288709644,-1.1513702692415284
76,1.0102888823998937,-8.130141478049302,-0.026375587717894,-1.1317516839414852
77,1.023582157168313,-8.08030823708034,-0.0271460055915652,-1.1272312188204539
78,1.0368754319367326,-8.105862549147702,-0.02791324011689083,-1.1350656649029887
79,1.0501687067051524,-8.18573392220955,-0.028577656272262168,-1.151702409053828
80,1.063461981473572,-8.294325497170645,-0.029069548268945516,-1.1729193425214308
81,1.0767552562419918,-8.403492793601313,-0.029348422011408217,-1.1941642169781825
82,1.090048531010411,-8.485549828603789,-0.029401186007681678,-1.2110361579855575
83,1.103341805778831,-8.516588035131132,-0.02923884708067865,-1.2198083310526442
84,1.1166350805472507,-8.479330389400326,-0.02889093235935241,-1.217878570895708
85,1.1299283553156705,-8.364932112206212,-0.028397628387122273,-1.2040559681334007
86,1.1432216300840898,-8.173475580487738,-0.027801034529691043,-1.1786368452476699
87,1.1565149048525096,-7.913248457675207,-0.027137988326295718,-1.14327611629895
88,1.1698081796209292,-7.599125800784835,-0.02643680451063283,-1.100701730307199
89,1.1831014543893488,-7.250455153667656,-0.025718825295546373,-1.0543394622149975
90,1.1963947291577686,-6.888796464944376,-0.025003540538738545,-1.0079119605785523
91,1.209688003926188,-6.535763354471724,-0.024314292952074254,-0.9650580917734441
92,1.2229812786946077,-6.211114727532882,-0.02368122216248086,-0.9289987668979247
93,1.2362745534630275,-5.931193397288487,-0.023139456327169693,-0.9022639193717145
94,1.249567828231447,-5.707801023970573,-0.022723033423969117,-0.8864950877814699
95,1.2628611029998666,-5.547604561229625,-0.02245732534961207,-0.8823433641660963
96,1.2761543777682864,-5.452145232496804,-0.022353572356190687,-0.8894826193148045
97,1.289447652536706,-5.4184411187967445,-0.02240806239689886,-0.9067448569009325
98,1.3027409273051258,-5.440052566930717,-0.022606153210620733,-0.9323591081883742
99,1.3160342020735454,-5.508365382301382,-0.022929017796680336,-0.964247445527463
100,1.329327476841965,-5.613794331413991,-0.023359820597671242,-1.000314415065662
101,1.3426207516103847,-5.746643693917474,-0.023886405728094338,-1.0386676140538285
102,1.3559140263788043,-5.897469750695109,-0.02449915214261711,-1.0777271490223992
103,1.369207301147224,-6.056940687628564,-0.02518468201387867,-1.1162139515722993
104,1.3825005759156437,-6.215352808553138,-0.025917857969249447,-1.1530427798630718
105,1.3957938506840633,-6.362112808715116,-0.0266554517922002,-1.1871769010965139
106,1.4090871254524828,-6.485603017530517,-0.027334771222227612,-1.217520866740858
107,1.4223804002209026,-6.573869551476557,-0.02787943363627762,-1.2429299896878891
108,1.4356736749893222,-6.616471987432256,-0.028212668306033965,-1.262396375123622
109,1.4489669497577418,-6.607580833351519,-0.028276466860785228,-1.2754295785384202
110,1.4622602245261616,-6.550006332165671,-0.028053053020791155,-1.2825861262378448
111,1.4755534992945811,-6.45933881679575,-0.027583861213061132,-1.2860246617274094
112,1.4888467740630007,-6.366903430750476,-0.026980716725233514,-1.2898933179882024
113,1.5021400488314205,-6.319986453008703,-0.026424362847667998,-1.3003255488159213
114,1.51543332359984,-6.378004160905171,-0.026147069461655525,-1.3248625267192187
115,1.52872659836826,-6.6040891843540495,-0.026398915647968715,-1.371248014569456
116,1.5420198731366794,-7.052876927228725,-0.027401301194680032,-1.4457350027868945
117,1.555313147905099,-7.756737555061657,-0.029295590023749606,-1.5512464817692302
118,1.5686064226735188,-8.71379033036553,-0.032098214449774724,-1.6858696459015736
119,1.5818996974419384,-9.88124616439856,-0.035674496277424854,-1.8421660962118493
120,1.595192972210358,-11.17669025868105,-0.03974069508810152,-2.0076220265813047
121,1.6084862469787775,-12.487992831516015,-0.04389741770202613,-2.166273281553451
122,1.6217795217471973,-13.690188175586464,-0.047689224189400484,-2.3012082613392333
123,1.6350727965156169,-14.665673121172327,-0.050677946771374494,-2.3973904168351807
124,1.648366071284037,-15.323129644321966,-0.05251362559683654,-2.444144288754594
125,1.6616593460524562,-15.610980638124012,-0.052988210354890285,-2.436747559136001
126,1.6749526208208758,-15.522767186466817,-0.05206240584588718,-2.3768277032721223
127,1.6882458955892956,-15.094027521610164,-0.04986305804427356,-2.2715846941487516
128,1.7015391703577152,-14.392345164335856,-0.046654950825281455,-2.1321456741794957
129,1.7148324451261348,-13.503608231269574,-0.042795209019242365,-1.9715226290719776
130,1.7281257198945543,-12.517881298328716,-0.03868008891396392,-1.8026579975794315
131,1.741418994662974,-11.51770306379707,-0.03469309859898694,-1.6369269188497175
132,1.754712269431394,-10.570438955995536,-0.031161080295149583,-1.4832762467586298
133,1.7680055441998137,-9.72499347066416,-0.02832226439569793,-1.3479869422284985
134,1.781298818968233,-9.01210903078162,-0.02630819966536507,-1.2349010150147914
135,1.7945920937366528,-8.446872201735044,-0.02514003333088491,-1.1458841676581397
136,1.8078853685050724,-8.031968368697486,-0.02473847648516039,-1.0813030664203678
137,1.821178643273492,-7.76058283626829,-0.02494551892368395,-1.0403651705898302
138,1.834471918041912,-7.618445761939059,-0.025554516108824647,-1.0212704258072827
139,1.8477651928103316,-7.585118924137725,-0.026344040835516735,-1.0212236161657782
140,1.861058467578751,-7.6350129707646825,-0.02711035271549202,-1.036422437992213
141,1.8743517423471707,-7.738697825802393,-0.027693734602132536,-1.0621498108632543
142,1.8876450171155903,-7.864855756484585,-0.02799519769872032,-1.0930581616596744
143,1.9009382918840096,-7.982863675987861,-0.027981872770888806,-1.1236560658533725
144,1.9142315666524297,-8.065653115761792,-0.027681404669300098,-1.1489242462253562
145,1.9275248414208488,-8.092317279560081,-0.02716746919238539,-1.1649302279303109
146,1.9408181161892688,-8.049960882119986,-0.02653981587574031,-1.1692994392552343
147,1.9541113909576888,-7.934476904180112,-0.025902807181362498,-1.1614368874654424
148,1.967404665726108,-7.750189839113719,-0.02534622192998912,-1.1424608217153247
149,1.980697940494528,-7.508531579855455,-0.024931226895945437,-1.1148808905511718
150,1.9939912152629475,-7.226055804151223,-0.024683155264276623,-1.082103817427669
151,2.0072844900313678,-6.922140833568236,-0.024591405674068832,-1.047868758116443
152,2.020577764799787,-6.616706188151747,-0.02461567675502654,-1.0157074123774261
153,2.0338710395682065,-6.328210704436106,-0.024696994653658606,-0.9885043902959101
154,2.047164314336626,-6.072133109318805,-0.024771520085692864,-0.9682122609385151
155,2.0604575891050456,-5.860061104302181,-0.02478482549647429,-0.95575446171177
156,2.073750863873465,-5.699422699699907,-0.024704187016961386,-0.9511220080716569
157,2.087044138641885,-5.593781424837871,-0.024526562414446812,-0.953633028463395
158,2.1003374134103048,-5.543502921123504,-0.024280504716243385,-0.9622838264418555
159,2.1136306881787243,-5.546519057773945,-0.02402134647066423,-0.9760919400607605
160,2.126923962947144,-5.598902044760882,-0.023820391139004575,-0.9943311120917623
161,2.1402172377155635,-5.695033394912429,-0.023750171552905854,-1.0165905836567142
162,2.1535105124839835,-5.8273068246898605,-0.023868668703530282,-1.042648007848184
163,2.166803787252403,-5.985515768494015,-0.024205525267296153,-1.072208149670798
164,2.1800970620208227,-6.156300796834638,-0.024752861335453277,-1.1046088241604037
165,2.1933903367892422,-6.323202752922756,-0.025462636624022948,-1.1386177113401046
166,2.206683611557662,-6.467899015603271,-0.026251842102474256,-1.1724336355440323
167,2.2199768863260814,-6.5730166313131075,-0.027016058381014188,-1.203964512724132
168,2.2332701610945014,-6.62649208629094,-0.027650753236793384,-1.2313851642647815
169,2.246563435862921,-6.626845304363474,-0.028077868840208044,-1.253888535172992
170,2.2598567106313405,-6.588110846402986,-0.028272976816519815,-1.272448980560245
171,2.27314998539976,-6.542742545521317,-0.028286294499779697,-1.2903447543040958
172,2.28644326016818,-6.540804815413976,-0.028250187386151537,-1.3131759681601622
173,2.2997365349365992,-6.644336739013959,-0.028367293628698467,-1.3481939460711454
174,2.3130298097050197,-6.916916195550709,-0.02887733570266312,-1.402929779050071
175,2.326323084473439,-7.409932076553905,-0.030006384126027352,-1.4833355990773125
176,2.3396163592418584,-8.148455244418185,-0.03190830608049547,-1.5918595845155623
177,2.352909634010278,-9.12035571382603,-0.03461236917555253,-1.7259837473604303
178,2.366202908778697,-10.272034151783592,-0.037991634769368635,-1.8777046440454086
179,2.3794961835471176,-11.512736459038512,-0.0417629823273615,-2.034225241128228
180,2.392789458315537,-12.72724144389286,-0.04552204685591463,-2.179806317365034
181,2.4060827330839567,-13.794427595754165,-0.04880726562184716,-2.298398656565517
182,2.4193760078523763,-14.607586879295562,-0.051179544454899834,-2.3764518198697298
183,2.432669282620796,-15.091888719118014,-0.05230011231271293,-2.4052453641384886
184,2.4459625573892154,-15.215216110191612,-0.05198984538269087,-2.3822248726159243
185,2.4592558321576354,-14.990388042506959,-0.05025815787054536,-2.311096615622401
186,2.472549106926055,-14.468972761108148,-0.047296934652505916,-2.2007524162076493
187,2.4858423816944746,-13.728854041222483,-0.04344288521910919,-2.063368035266615
188,2.499135656462894,-12.858932523921688,-0.039118079032524004,-1.91217533628949
189,2.5124289312313137,-11.944568884265498,-0.034761810762612824,-1.759420794659785
190,2.5257222059997333,-11.056650798419847,-0.030766952237912138,-1.614903492295453
191,2.5390154807681533,-10.24580959889758,-0.0274312675866501,-1.4852830682443114
192,2.552308755536573,-9.54179284051971,-0.02493000983173028,-1.3741288576122361
193,2.5656020303049925,-8.956760807865036,-0.023311556012684427,-1.2825080531512785
194,2.578895305073412,-8.490602080539203,-0.022513574781695432,-1.209822827052909
195,2.592188579841832,-8.136327639314162,-0.022393785737587074,-1.1546131144434821
196,2.605481854610252,-7.884093526653567,-0.022767327283783587,-1.115124853601086
197,2.618775129378671,-7.723190692666044,-0.023442565112604213,-1.089566609725387
198,2.6320684041470908,-7.642156739113205,-0.024248882297517517,-1.0760984110958847
199,2.6453616789155103,-7.627768254428077,-0.02505303295375532,-1.0726790716759143
200,2.65865495368393,-7.6639188032875145,-0.025764025719836048,-1.076922087396212
201,2.671948228452349,-7.731257742834275,-0.026329205283778183,-1.0860764801877436
202,2.685241503220769,-7.808056895936576,-0.02672553759995356,-1.0971781797262041
203,2.698534777989189,-7.872255110115491,-0.026949946727236433,-1.1073406075614378
204,2.7118280527576086,-7.9041852132827275,-0.02701130951779224,-1.1140990548374765
205,2.725121327526028,-7.8892486484329725,-0.02692512696929472,-1.1157084520806873
206,2.738414602294448,-7.8198223292587805,-0.026710665194952365,-1.111316942486011
207,2.751707877062868,-7.695922841212671,-0.026389829336302337,-1.1009826866470809
208,2.765001151831288,-7.524513207813043,-0.02598705331252506,-1.0855478022882132
209,2.778294426599707,-7.3176943499477325,-0.02552964645129642,-1.0664153979850455
210,2.7915877013681265,-7.0902754008000395,-0.025048044448731602,-1.045287532054018
211,2.804880976136546,-6.857308488290143,-0.02457532529373266,-1.0239166995967948
212,2.8181742509049656,-6.632101062793291,-0.0241454605842067,-1.0039083030114908
213,2.8314675256733857,-6.425024183604193,-0.02379026475812715,-0.9865936343471357
214,2.844760800441805,-6.243189121409116,-0.02353572717618959,-0.9729772177808231
215,2.858054075210225,-6.090843426701554,-0.023398949663233037,-0.9637509984667888
216,2.8713473499786444,-5.9701975834854855,-0.023386890051221517,-0.9593598507909228
217,2.884640624747064,-5.882354530149277,-0.023497467878225962,-0.9600957492974632
218,2.8979338995154835,-5.828062423520663,-0.023722619144916024,-0.9661909706266854
219,2.9112271742839035,-5.808113430558987,-0.0240520704509964,-0.9778771202385309
220,2.924520449052323,-5.823332237650213,-0.02447632477371387,-0.9953820139453963
221,2.9378137238207427,-5.874204879269183,-0.024987711381439886,-1.018852988581048
222,2.9511069985891623,-5.9602657455784005,-0.025579148395439025,-1.0482189831927102
223,2.964400273357582,-6.079377977402941,-0.026241130694820924,-1.0830256704049355
224,2.9776935481260014,-6.227024612324534,-0.02695804660900309,-1.1222897617027223
225,2.9909868228944214,-6.395710628818533,-0.02770507995306799,-1.1644177158460993
226,3.004280097662841,-6.5745939959188755,-0.028446727474844016,-1.20722365614406
227,3.017573372431261,-6.7495241633243515,-0.029137561370210407,-1.2480669209338873
228,3.03086664719968,-6.903739201961062,-0.02972551626346226,-1.2841154875734748
229,3.0441599219681,-7.019502551347889,-0.03015781196111286,-1.3127284657510905
230,3.05745319673652,-7.080886907726549,-0.030389594958499213,-1.3319366971699327
231,3.0707464715049397,-7.077690415608286,-0.0303952334250988,-1.3409808262209475
232,3.084039746273359,-7.010088346730891,-0.030181549919711594,-1.340837078110738
233,3.0973330210417784,-6.893135182327655,-0.029800919799112202,-1.3346236703998229
234,3.110626295810198,-6.759777975985828,-0.029360420354792423,-1.327746558900656
235,3.1239195705786176,-6.6608360527084,-0.02902198318134235,-1.327633547627374
236,3.1372128453470376,-6.660661768198014,-0.028988865612146756,-1.3429448785141695
237,3.150506120115457,-6.8280333942702445,-0.029476364693760793,-1.3822499337008036
238,3.1637993948838767,-7.22315063765815,-0.030669282164997515,-1.4523139722115401
239,3.1770926696522963,-7.883073516453597,-0.03267394917386199,-1.5563073745743377
240,3.190385944420716,-8.8090590117948,-0.035476707340672244,-1.6923716298067815
241,3.2036792191891355,-9.959489443650694,-0.03892166030396308,-1.8529874034735208
242,3.2169724939575555,-11.251150606346817,-0.04271710522467215,-2.0254533760054096
243,3.230265768725975,-12.569617036217954,-0.046472773256159707,-2.19351691796018
244,3.2435590434943946,-13.787002769777159,-0.049761124707857,-2.3398762315228874
245,3.256852318262814,-14.783182442069036,-0.052188778525500475,-2.44901065886815
246,3.2701455930312338,-15.465555618069374,-0.05346150483883594,-2.5096905203651825
247,3.2834388677996538,-15.782883427509928,-0.05342890519270005,-2.5166100682946464
248,3.2967321425680733,-15.730471916043609,-0.052101428001818856,-2.470839805627996
249,3.310025417336493,-15.346354220460784,-0.04963977718250771,-2.3791120218909616
250,3.3233186921049125,-14.700324484660081,-0.046322359368481836,-2.2522266983478523
251,3.336611966873332,-13.879075233406253,-0.04249900733851693,-2.1030180426007656
252,3.349905241641752,-12.971043290132153,-0.038539361329481714,-1.9443371520115118
253,3.363198516410172,-12.054002935673138,-0.034783359358658096,-1.7874158133482432
254,3.376491791178591,-11.187295201289182,-0.031500306390953345,-1.6408317576362652
255,3.389785065947011,-10.409225817333839,-0.028862017871754273,-1.5101399621433165
256,3.4030783407154304,-9.73892679019216,-0.02693390063909544,-1.3980944197742173
257,3.41637161548385,-9.18110747394676,-0.025684938326166175,-1.3052779898718772
258,3.429664890252269,-8.731775983068662,-0.025013559384150855,-1.2309010549046686
259,3.442958165020689,-8.383215815392942,-0.024782404074704553,-1.17353488259117
260,3.456251439789109,-8.127129080041078,-0.024852674579119646,-1.1316107443608427
261,3.4695447145575287,-7.955664514118627,-0.025109286012491554,-1.103619329051669
262,3.482837989325948,-7.8607663689168366,-0.025471552217721186,-1.0880515053821738
263,3.496131264094368,-7.832709823989982,-0.025889428625388587,-1.0831964236065166
264,3.509424538862788,-7.858757646401915,-0.026330342111726586,-1.0869366619218723
265,3.5227178136312074,-7.92263694572125,-0.02676437885244878,-1.0966542022390464
266,3.536011088399627,-8.005132934527445,-0.027155037235907016,-1.109304215189594
267,3.5493043631680465,-8.085687291940305,-0.02745926721455973,-1.121651144812923
268,3.562597637936466,-8.144595370375102,-0.02763577672639351,-1.130613984609584
269,3.5758909127048857,-8.165276988344221,-0.027656783448936694,-1.1336443126683593
270,3.5891841874733057,-8.13614061787964,-0.027517172121339077,-1.1290596379876776
271,3.6024774622417253,-8.05171447953551,-0.027236674858353845,-1.1162678971206148
272,3.615770737010145,-7.912909765392951,-0.02685412291377213,-1.0958393831863855
273,3.629064011778565,-7.726454602513112,-0.026416251750325942,-1.069407238417415
274,3.642357286546984,-7.503664541575797,-0.025965495150648485,-1.0394068053541308
275,3.655650561315404,-7.25879225576668,-0.025531105597797598,-1.0086957455439405
276,3.668943836083824,-7.007230135451531,-0.02512616882147181,-0.9801244167042106
277,3.682237110852243,-6.763826270828315,-0.024750596558960107,-0.9561398381882126
278,3.695530385620663,-6.541518384274338,-0.024398024772850663,-0.9384988849231098
279,3.7088236603890814,-6.35040264892026,-0.024063468889533497,-0.9281369132205809
280,3.722116935157502,-6.19725867309486,-0.023748850277168946,-0.9251960940560819
281,3.735410209925922,-6.085474384825064,-0.023464816064379238,-0.9291781804754509
282,3.748703484694341,-6.015270258770177,-0.02322893638400826,-0.9391624247410931
283,3.761996759462761,-5.984113146455326,-0.023061643355805867,-0.9540265703849262
284,3.7752900342311806,-5.9872321795211105,-0.022981751045735466,-0.9726245121595197
285,3.7885833089996,-6.018196048979831,-0.023003068827179837,-0.9939000899259759
286,3.80187658376802,-6.069564946060069,-0.023132786633230762,-1.0169427326311538
287,3.81516985853644,-6.133659979186654,-0.023371382121374504,-1.0410088158216624
288,3.8284631333048593,-6.203467402014731,-0.023713208819488508,-1.065537408847648
289,3.841756408073279,-6.2736108676305795,-0.02414698137495292,-1.0901798936708051
290,3.8550496828416985,-6.341216205317271,-0.024656026292339223,-1.1148437897665324
291,3.868342957610118,-6.406413418235941,-0.025218892701811685,-1.1397292231821543
292,3.8816362323785376,-6.472212450901323,-0.02581103672478378,-1.1653198541254317
293,3.8949295071469576,-6.543569839373714,-0.026407550330004047,-1.1922860562305502
294,3.908222781915377,-6.625630026680986,-0.026985798106658992,-1.221272593404673
295,3.9215160566837968,-6.721362856281224,-0.027526289131195494,-1.2525785899258108
296,3.934809331452216,-6.82909187074315,-0.028010795379047337,-1.2857899100576364
297,3.948102606220636,-6.940646637243269,-0.02841846110078264,-1.3194786341184668
298,3.961395880989056,-7.040978293680183,-0.028722496256647898,-1.351117915715691
299,3.974689155757476,-7.109957220031247,-0.02889087525375355,-1.3773491240571747
300,3.987982430525895,-7.1266761689375535,-0.02889358035183818,-1.394668240481199
301,4.001275705294315,-7.0759346486660295,-0.028716471170426902,-1.4004759189750373
302,4.014568980062735,-6.9557898036522765,-0.028378736220734148,-1.3942887543444311
303,4.027862254831154,-6.7843228390736465,-0.02794835660755201,-1.3787841636550335
304,4.041155529599574,-6.603353561994337,-0.027549154766867787,-1.3602996984363707
305,4.054448804367993,-6.477004766481483,-0.027354265275701343,-1.3484693685650304
306,4.067742079136413,-6.48392496460995,-0.027563979425902264,-1.3548631749869633
307,4.0810353539048325,-6.70354513341789,-0.028370060133494718,-1.3907666152081155
308,4.094328628673252,-7.198617214469008,-0.029912728856813918,-1.4645200608237585
309,4.107621903441672,-7.997886793155295,-0.03223953611195147,-1.579041634207458
310,4.120915178210091,-9.083471629872934,-0.03527637463747498,-1.7302037099041392
311,4.134208452978511,-10.386922677332862,-0.0388194371057319,-1.9065871501804095
312,4.14750172774693,-11.796012034795643,-0.04255290924713979,-2.0908213842600207
313,4.160795002515351,-13.171499946501578,-0.046091262013825705,-2.262311604419955
314,4.17408827728377,-14.37034511064851,-0.04903858948427538,-2.4007738896405284
315,4.18738155205219,-15.26998091229479,-0.051052527048557304,-2.489765404206409
316,4.2006748268206096,-15.788022835203302,-0.0518987394100745,-2.519390939875763
317,4.213968101589029,-15.893169206692782,-0.0514845772929653,-2.4875970166603874
318,4.227261376357449,-15.605590708023163,-0.0498664048125626,-2.3998579587636164
319,4.240554651125868,-14.987893721363289,-0.047232068575766555,-2.2674858710980335
320,4.253847925894288,-14.129903448758146,-0.04386546134234889,-2.1051209541601037
321,4.267141200662707,-13.131480527838404,-0.040102468491068806,-1.9280868203963144
322,4.280434475431127,-12.087273771049796,-0.036286730546165914,-1.7502111037687857
323,4.2937277501995466,-11.076054592016575,-0.03273098125431459,-1.5824730990786156
324,4.307021024967967,-10.155617031976519,-0.02968701066491611,-1.4325471186765124
325,4.320314299736387,-9.362685110233333,-0.02732562769758893,-1.3050606593555318
326,4.333607574504806,-8.716213811721722,-0.025727277068954814,-1.2022454156895268
327,4.346900849273226,-8.222070008603968,-0.02488344273893729,-1.1246468220370285
328,4.360194124041645,-7.877315333055358,-0.024708062382132853,-1.0716521502168241
329,4.373487398810065,-7.673006877535458,-0.02505695268975889,-1.0417465876960272
330,4.3867806735784844,-7.5953017392892175,-0.025752207451436283,-1.0325495847221244
331,4.400073948346904,-7.6253966547376155,-0.026608073108697675,-1.0407707280236502
332,4.413367223115324,-7.739230458252336,-0.0274549128410264,-1.062234711294651
333,4.426660497883743,-7.907847697336674,-0.028158285724928383,-1.0920703970676697
334,4.439953772652163,-8.098947455706304,-0.028630776555249378,-1.1250745635904793
335,4.453247047420583,-8.279611509233376,-0.028835176950986283,-1.1561872393088475
336,4.466540322189003,-8.419731981173586,-0.02877911712110515,-1.1809801295585178
337,4.479833596957422,-8.495394353671713,-0.028503088535871312,-1.1960669869984322
338,4.493126871725842,-8.491471021440535,-0.028065345147954127,-1.1993790734546566
339,4.5064201464942615,-8.402902295228452,-0.02752770391791671,-1.1902869215294143
340,4.519713421262681,-8.234484533606652,-0.026945472730493168,-1.1695747470661937
341,4.533006696031101,-7.999330883220276,-0.026362942072681916,-1.13928279592939
342,4.54629997079952,-7.7164215180038065,-0.025813859985814477,-1.1024335219842751
343,4.55959324556794,-7.407765271174866,-0.0253248491580158,-1.0626608093516987
344,4.572886520336359,-7.095654627985395,-0.024919237483959265,-1.023773144668888
345,4.586179795104779,-6.800356733400889,-0.02461921870781303,-0.9892984306403388
346,4.599473069873199,-6.5384120035325415,-0.024445302935011255,-0.9620712137503467
347,4.612766344641619,-6.3215720770473105,-0.024413249485053946,-0.9439250788401613
348,4.626059619410039,-6.156335534223156,-0.024529726530609513,-0.9355417780459526
349,4.639352894178458,-6.044029886051761,-0.024788500394945154,-0.9364861307104042
350,4.652646168946878,-5.981406017314926,-0.02516882543097741,-0.9454245156485825
351,4.665939443715297,-5.961709342298613,-0.02563693106472934,-0.9604883932948326
352,4.679232718483717,-5.976139475449608,-0.026150436904826265,-0.9797097251058056
353,4.692525993252136,-6.015512469010972,-0.026664661169724317,-1.0014332850427607
354,4.705819268020556,-6.071837768666899,-0.02713942719767789,-1.0246118567947966
355,4.719112542788976,-6.1394712801981095,-0.027545034333919766,-1.0489169699778225
356,4.732405817557395,-6.21554544335503,-0.02786623104320094,-1.0746427899204467
357,4.745699092325815,-6.299511537881539,-0.028103157068673792,-1.1024303721885735
358,4.758992367094235,-6.391833006334879,-0.02826851437504576,-1.132880850044844
359,4.772285641862655,-6.492102969865992,-0.028381016519479052,-1.166151879638922
360,4.785578916631074,-6.597083796427964,-0.02845647280336384,-1.2016399948094116
361,4.798872191399494,-6.699334071285438,-0.028499209987860107,-1.2378433846478614
362,4.812165466167913,-6.787135447598612,-0.028497216474076246,-1.2724761635687978
363,4.825458740936333,-6.846287836668544,-0.028423941149996166,-1.3028666374898306
364,4.8387520157047526,-6.863959827210113,-0.028248099470472087,-1.326617854594327
365,4.852045290473172,-6.834180836016092,-0.027950519920170544,-1.342439834389605
366,4.865338565241592,-6.763853472496041,-0.027544540115253896,-1.350986607351268
367,4.878631840010011,-6.677551879065819,-0.027094311837973714,-1.355466629442392
368,4.891925114778431,-6.6191121657222505,-0.026724254388598892,-1.3617730494760452
369,4.905218389546851,-6.648348888985054,-0.0266135034535562,-1.3779327079854395
370,4.918511664315271,-6.832246266479973,-0.026972006085790368,-1.4128140684949013
371,4.93180493908369,-7.231532544544663,-0.02799972635507525,-1.4742444410544973
372,4.94509821385211,-7.885233309558898,-0.029836136357816602,-1.5669078190705537
373,4.95839148862053,-8.797016748419125,-0.03251189728740737,-1.6905460647211175
374,4.971684763388949,-9.92733265084597,-0.0359164016670179,-1.8389961784260214
375,4.984978038157369,-11.194250398087856,-0.03979242996060457,-2.000435437020542
376,4.998271312925788,-12.483734805196992,-0.04376280143543256,-2.1589075204773582
377,5.011564587694208,-13.667519842512407,-0.047385399145614404,-2.2968561196121815
378,5.0248578624626274,-14.624604212336742,-0.05022514940326804,-2.3981107785821116
379,5.038151137231047,-15.261407104354236,-0.051927063457349695,-2.4506440080810608
380,5.051444411999467,-15.526074427875326,-0.05227458766395394,-2.448484992316065
381,5.064737686767887,-15.414107450146938,-0.05122181123222468,-2.3924065313813294
382,5.078030961536307,-14.964818083998734,-0.0488948216669962,-2.289323676966164
383,5.091324236304726,-14.250376099396181,-0.0455645076347123,-2.150659065126952
384,5.104617511073146,-13.360769138387205,-0.04159855106205409,-1.990151830079121
385,5.117910785841565,-12.388477797568074,-0.03740323027612228,-1.8216564659191312
386,5.131204060609985,-11.416065101891418,-0.03336593026920964,-1.6573876944041985
387,5.1444973353784045,-10.50852008537332,-0.029807531305335026,-1.5068634043270266
388,5.157790610146824,-9.71060321249638,-0.026950906923956748,-1.3765610053017405
389,5.171083884915244,-9.048131789258969,-0.024908256864913218,-1.2701148478533433
390,5.184377159683663,-8.531448220526684,-0.023686434202530294,-1.1887947155873486
391,5.197670434452083,-8.159310741245354,-0.023206309091462728,-1.1320244620691904
392,5.210963709220503,-7.921987942978871,-0.02333012509836236,-1.0977945041042434
393,5.224256983988923,-7.803138661835704,-0.023890253564352325,-1.0829413348940564
394,5.237550258757342,-7.780796056006471,-0.024713891960535278,-1.0833614100535955
395,5.250843533525762,-7.828194410323668,-0.025640684826084954,-1.094263013117436
396,5.2641368082941815,-7.91517115973067,-0.02653306068765473,-1.1105323715553554
397,5.277430083062601,-8.010510710053568,-0.027281204877249124,-1.1272202293799471
398,5.290723357831021,-8.08506994130395,-0.027805307523036234,-1.1400786959312421
399,5.30401663259944,-8.115077350946985,-0.028057022853501527,-1.1460306536339648
400,5.31730990736786,-8.084807855697782,-0.028020586967645474,-1.1434544637452997
401,5.330603182136279,-7.987958361686628,-0.02771265990993808,-1.132212259405098
402,5.343896456904699,-7.827412445614106,-0.02717937753165534,-1.1134205734100329
403,5.357189731673119,-7.613533288318446,-0.026489539057367614,-1.0890312458625526
404,5.370483006441539,-7.361499756132562,-0.025724051130263253,-1.061336932512185
405,5.383776281209959,-7.088387178845803,-0.024963140869714098,-1.032527391023975
406,5.397069555978378,-6.810655408171062,-0.024273872302652773,-1.0043986134837737
407,5.410362830746798,-6.542481847001188,-0.023700791375194867,-0.9782642445420904
408,5.423656105515217,-6.295060183518471,-0.02326198527291224,-0.9550526992905581
409,5.436949380283637,-6.076690509660253,-0.02295158227223109,-0.9355145350206746
410,5.450242655052056,-5.893308037323659,-0.022748016103592048,-0.920433430848166
411,5.463535929820476,-5.749077762689664,-0.02262567473484792,-0.9107427145856696
412,5.476829204588896,-5.646797548475897,-0.02256640568843134,-0.9074946643237597
413,5.490122479357315,-5.588028581240879,-0.02256726579810725,-0.9116931629298998
414,5.503415754125735,-5.573023873343775,-0.022642079913479926,-0.9240551249050947
415,5.516709028894155,-5.6005923611428905,-0.022816489767794358,-0.9447898831389295
416,5.530002303662575,-5.668005062820312,-0.023118416159008774,-0.9734700855015282
417,5.543295578430994,-5.770954363433674,-0.023567262049174816,-1.0090224611880225
418,5.556588853199414,-5.903483925669047,-0.024165171088739508,-1.0498160160730916
419,5.569882127967833,-6.057788361801743,-0.024892390415521628,-1.093795565994583
420,5.583175402736253,-6.2238838524030555,-0.025707082277359933,-1.1386154288587071
421,5.596468677504673,-6.389355497900902,-0.02654874301077518,-1.1817661320965291
422,5.609761952273092,-6.539603328582138,-0.027344251034325102,-1.220731999506155
423,5.623055227041512,-6.659105105648662,-0.028016299316023195,-1.2532403216996195
424,5.636348501809931,-6.734081212994187,-0.02849480631029422,-1.277645661237482
425,5.649641776578351,-6.756554663468126,-0.02873191221848234,-1.2934373269879331
426,5.662935051346771,-6.729217963477562,-0.028719793202755275,-1.3017822809395976
427,5.676228326115191,-6.669907701121655,-0.02850799718700831,-1.3059458925466756
428,5.6895216008836105,-6.61406397867767,-0.028214420961809834,-1.3113960827902875
429,5.70281487565203,-6.613540790792843,-0.028022968323003848,-1.32541541896767
430,5.71610815042045,-6.730694812264767,-0.028162622143261654,-1.3561331252581585
431,5.729401425188869,-7.027813700675485,-0.02886737617728489,-1.4110379545203051
432,5.742694699957289,-7.553421952221462,-0.030323060848060624,-1.4952105392307558
433,5.755987974725708,-8.328378806460663,-0.03261323392274573,-1.6096642846856548
434,5.769281249494128,-9.335426639519907,-0.03567930434342418,-1.7502450254464306
435,5.782574524262548,-10.515548159438316,-0.03930809096808747,-1.9074695174027765
436,5.795867799030967,-11.773060365650739,-0.04315319255946345,-2.067482397985265
437,5.809161073799387,-12.9891480855285,-0.04678710664069104,-2.2140309340424387
438,5.822454348567807,-14.041195700664392,-0.04977242651658847,-2.33108069900858
439,5.835747623336227,-14.823584950818864,-0.05173569172651642,-2.405509716927361
440,5.849040898104646,-15.265159118732216,-0.05242784104322851,-2.429281471550411
441,5.862334172873066,-15.339460936852856,-0.051759924074214876,-2.4006205661445827
442,5.875627447641485,-15.065824437314724,-0.04980960864951879,-2.323964246413794
443,5.888920722409905,-14.501799139284447,-0.04680068703225254,-2.2087682252789342
444,5.9022139971783245,-13.729468804360332,-0.04306251168074931,-2.0675188868514858
445,5.915507271946744,-12.839409992140217,-0.03897841189374239,-1.9134672407142022
446,5.928800546715164,-11.916072458386168,-0.03493200597146521,-1.7586104917937306
447,5.942093821483583,-11.027401846606377,-0.0312589305056055,-1.612314836059458
448,5.955387096252003,-10.219999754752621,-0.028209854929690324,-1.4807539184919853
449,5.968680371020423,-9.5195464066224,-0.025929082324203098,-1.3671065205361457
450,5.981973645788843,-8.935016053151422,-0.02445114439805578,-1.272279617142099
451,5.995266920557262,-8.464623112076897,-0.023715013138235225,-1.1958365287466615
452,6.008560195325682,-8.101482584506481,-0.023591986645979838,-1.1368217741603137
453,6.0218534700941015,-7.837529884250893,-0.02392006239046576,-1.094266866316745
454,6.035146744862521,-7.665092904681929,-0.024536219673433,-1.0672998202723065
455,6.048440019630941,-7.576366383752263,-0.025299419656084968,-1.0549221103209432
456,6.06173329439936,-7.561660619566738,-0.02610089186458474,-1.055619452271502
457,6.07502656916778,-7.607541679640673,-0.02686282957870417,-1.0670110101858241
458,6.088319843936199,-7.6958416495108,-0.02753008996590413,-1.0857115744851862
459,6.101613118704619,-7.804103258123393,-0.028060688829989567,-1.1075002179246314
460,6.114906393473039,-7.907500741677822,-0.02841972972633839,-1.1277864636539197
461,6.128199668241459,-7.981813033282347,-0.0285787980407933,-1.1422717447166597
462,6.141492943009879,-8.006734224157277,-0.028520039878806247,-1.1476437052041317
463,6.154786217778298,-7.968740552032114,-0.028242183574525823,-1.1421273294445358
464,6.168079492546718,-7.862878105259756,-0.02776517835079196,-1.1257524545914261
465,6.181372767315137,-7.6931262418364765,-0.02713089940939109,-1.1002723875114848
466,6.194666042083557,-7.471336300110373,-0.026399041560623365,-1.068761707422047
467,6.207959316851976,-7.215049415539359,-0.02563916943967286,-1.0350038424596837
468,6.221252591620396,-6.944690312796769,-0.02492117930336215,-1.0028237478103192
469,6.234545866388816,-6.6806863798273,-0.024306707864730562,-0.9755149711029443
470,6.247839141157235,-6.440987865976258,-0.023843301445365086,-0.9554609638416829
471,6.261132415925655,-6.2393103105179435,-0.02356184550246935,-0.9439815859943975
472,6.274425690694075,-6.084236600752435,-0.023476477379170642,-0.9413752268254488
473,6.287718965462495,-5.979146825778372,-0.023585552565934854,-0.9470933988690539
474,6.301012240230914,-5.922818677599618,-0.02387249880073041,-0.9599809783599268
475,6.314305514999334,-5.91047452963537,-0.024306394755671847,-0.9785313960392431
476,6.3275987897677535,-5.9350425550674135,-0.024843238230540486,-1.0011271788455254
477,6.340892064536173,-5.988431248311233,-0.02542937587779917,-1.0262509496213346
478,6.354185339304593,-6.062663216281751,-0.02600801315265281,-1.0526565389959823
479,6.367478614073012,-6.150753153205779,-0.026528284555597553,-1.079487104959525
480,6.380771888841432,-6.247239581876733,-0.026954767657722402,-1.106322893465699
481,6.394065163609851,-6.348298604780435,-0.02727442974778751,-1.1331410948966012
482,6.407358438378271,-6.45139766092556,-0.027498302569266116,-1.1601783518536675
483,6.420651713146691,-6.554508304827999,-0.027656607421229898,-1.1877053558506947
484,6.433944987915111,-6.65500640684209,-0.02778809386245685,-1.2157521267920264
485,6.4472382626835305,-6.748545936888218,-0.027926381209321775,-1.2438560909919587
486,6.46053153745195,-6.828361739357746,-0.028087519560451267,-1.2709304227132145
487,6.47382481222037,-6.88555577116492,-0.0282633070621804,-1.2953507839192002
488,6.487118086988789,-6.910847357940387,-0.028423774634046182,-1.3153213986500614
489,6.500411361757209,-6.897949871726161,-0.028529751493501246,-1.3295053581731786
490,6.513704636525628,-6.848188060947989,-0.028553193901065015,-1.337805285647345
491,6.526997911294048,-6.775316665425248,-0.02850001789856615,-1.3420891756905493
492,6.540291186062468,-6.708959883013407,-0.0284284845540993,-1.3466069465263137
493,6.553584460830887,-6.69491768738149,-0.028456277408847992,-1.3578635465787483
494,6.566877735599308,-6.790983462279422,-0.02875133562488148,-1.3838155039646753
495,6.580171010367727,-7.0579390115427145,-0.02950497889355428,-1.4324278295983717
496,6.593464285136147,-7.546853253235469,-0.030890370994584644,-1.5098293775123162
497,6.606757559904566,-8.285284864806085,-0.03301410468483451,-1.6184773368732177
498,6.620050834672986,-9.265924927861153,-0.03587241150320918,-1.7558192413882372
499,6.633344109441405,-10.441148970316087,-0.039324681732656096,-1.9138768340367052
500,6.646637384209825,-11.725730662075149,-0.04309441663828458,-2.079968713598618
501,6.6599306589782445,-13.007891178212084,-0.04680139764527644,-2.2384923354523845
502,6.673223933746664,-14.166573025272697,-0.05002038608803164,-2.373395644101826
503,6.686517208515084,-15.09109967685989,-0.05235392515174674,-2.470782005952388
504,6.699810483283503,-15.698773680430072,-0.053502586591559334,-2.521068195505429
505,6.713103758051923,-15.946621273632507,-0.05331668555833402,-2.520252550600203
506,6.726397032820343,-15.835128659199759,-0.05181860631920109,-2.4700946836766366
507,6.739690307588763,-15.403882465890442,-0.049192539557552886,-2.377279540677107
508,6.752983582357182,-14.720919173520329,-0.04574617559887752,-2.2518614810444118
509,6.766276857125602,-13.868822108686523,-0.04185459781681604,-2.105406656562042
510,6.779570131894022,-12.930927133042708,-0.03789910632805164,-1.9492555491704406
511,6.792863406662441,-11.98043143613783,-0.034212965380575416,-1.7932272522370916
512,6.806156681430861,-11.074013978887725,-0.031042965141442284,-1.6449244780855603
513,6.81944995619928,-10.250183668077183,-0.02853137477039261,-1.509625576361766
514,6.8327432309677,-9.53137872410261,-0.02671833948413234,-1.3906123343778671
515,6.846036505736119,-8.928127384565435,-0.02556077085393602,-1.2897075165926284
516,6.859329780504539,-8.443451077521907,-0.024960889729692303,-1.2077924283024208
517,6.87262305527296,-8.076090123083135,-0.024796361361233595,-1.1451347284602273
518,6.885916330041379,-7.821877675220479,-0.024944802981796986,-1.1014591143821297
519,6.899209604809799,-7.673420701300562,-0.025298249852579998,-1.0758061290691867
520,6.912502879578218,-7.618897095333342,-0.025767104260587557,-1.066310907666932
521,6.925796154346638,-7.6410491527640225,-0.026276729485863414,-1.0700658064823767
522,6.939089429115057,-7.717291647512193,-0.026761770444021723,-1.0831994420555113
523,6.952382703883477,-7.821359859090593,-0.02716285223611245,-1.101223734720106
524,6.9656759786518965,-7.926307742582726,-0.0274280306382496,-1.1196013097758744
525,6.978969253420316,-8.00815693416772,-0.02751853498110155,-1.134403935591047
526,6.992262528188736,-8.049256916101582,-0.027416249176726762,-1.142895842055413
527,7.005555802957155,-8.040497263715107,-0.02712967301199199,-1.1438935333782791
528,7.018849077725576,-7.981854864737854,-0.026695678407302574,-1.137816491833065
529,7.032142352493995,-7.88122806598261,-0.0261756853736327,-1.126427146779742
530,7.045435627262415,-7.751949426515545,-0.025646398448434204,-1.1123353610115547
531,7.058728902030834,-7.6096501272473365,-0.025186630060035308,-1.098390064274484
532,7.072022176799254,-7.4692066921568605,-0.024862778004271717,-1.0870892791944529
533,7.0853154515676735,-7.342349446630552,-0.024716020274593117,-1.0801153133267654
534,7.098608726336093,-7.236237144943714,-0.02475408365080989,-1.0780604507592209
535,7.111902001104513,-7.153019390483779,-0.02494952186117243,-1.0803673110508263
536,7.125195275872932,-7.090211928459246,-0.025244999215493814,-1.085476345921875
537,7.138488550641352,-7.041634669664406,-0.025564489642905936,-1.0911491589398923
538,7.151781825409771,-6.998683853080509,-0.025828016382263192,-1.094914189900109
539,7.165075100178191,-6.951773995731338,-0.02596691722745293,-1.0945592972106502
540,7.178368374946611,-6.891842184155418,-0.025936698798881413,-1.0885811169199098
541,7.191661649715031,-6.811827240167086,-0.0257251511023556,-1.076504399790748
542,7.2049549244834505,-6.708011932326322,-0.025354280151835825,-1.0590104761637373
543,7.21824819925187,-6.581062091990378,-0.024875679424800647,-1.0378562621438518
544,7.23154147402029,-6.436547953849523,-0.024360221684277587,-1.0156097269824136
545,7.244834748788709,-6.284737045650147,-0.02388430105674083,-0.9952608273658621
546,7.258128023557129,-6.139537547688052,-0.02351586116296335,-0.9797819475410898
547,7.271421298325548,-6.016640458471201,-0.02330352957046453,-0.971710182111872
548,7.284714573093968,-5.931109813732242,-0.023271076398074464,-0.9728108987212428
549,7.2980078478623875,-5.894833460882976,-0.023417504147334116,-0.9838632551790679
550,7.311301122630807,-5.914312485348214,-0.02372122999095447,-1.0045865904052478
551,7.324594397399228,-5.9892056380904695,-0.02414588127133716,-1.0337027384553266
552,7.337887672167647,-6.111867525075458,-0.024645509351035357,-1.0691048975245772
553,7.351180946936067,-6.267883443037753,-0.02516821006918351,-1.1080843592267875
554,7.364474221704486,-6.437404084946081,-0.025658516041422188,-1.147562355280906
555,7.377767496472906,-6.5970136245241475,-0.026059848007556667,-1.1842944054824402
556,7.391060771241325,-6.721959919535389,-0.026318486427898427,-1.2150566963403837
557,7.404354046009745,-6.788773758516653,-0.026390035163752882,-1.236870005436774
558,7.417647320778165,-6.778464313332062,-0.026248486595201577,-1.247338816919554
559,7.430940595546584,-6.6804500763375945,-0.025897041608539447,-1.2451592872155561
560,7.444233870315004,-6.497088118587377,-0.025378911303419925,-1.230775979880802
561,7.457527145083423,-6.248137078346113,-0.024785429029835517,-1.2070625165655768
562,7.470820419851844,-5.973894071293607,-0.024258041598477238,-1.1798014422739713
563,7.484113694620263,-5.735344163363865,-0.02398057853131372,-1.157687624885037
564,7.497406969388683,-5.6097444898913436,-0.024159309741242325,-1.1516173874585496
565,7.5107002441571025,-5.680836568990709,-0.024991105213566428,-1.173171877146907
566,7.523993518925522,-6.0243134370009,-0.02662403969638563,-1.232439019353183
567,7.537286793693942,-6.6909193236396085,-0.029118583231100233,-1.3355785164391212
568,7.550580068462361,-7.691018763545079,-0.03241925870005121,-1.4827219528662765
569,7.563873343230781,-8.98497676172631,-0.03634519309709719,-1.6668248608197715
570,7.5771666179992,-10.482827557516812,-0.040603651121660075,-1.8739099270112367
571,7.59045989276762,-12.054552604490066,-0.04482503851683053,-2.084797593251296
572,7.603753167536039,-13.549448996435297,-0.048612970317679145,-2.278018411854965
573,7.617046442304459,-14.820487233553285,-0.05160011113094938,-2.433275542606881
574,7.630339717072879,-15.748124843915049,-0.05349986652794757,-2.5346841860359084
575,7.643632991841299,-16.258239773401804,-0.05414523316853719,-2.5730965384009954
576,7.656926266609719,-16.330563203552128,-0.053508719314941014,-2.547085195235959
577,7.670219541378138,-15.996603953128961,-0.05170086288917239,-2.462508767904425
578,7.683512816146558,-15.328705242231138,-0.04894896970811026,-2.3309119597487826
579,7.696806090914977,-14.423778267442437,-0.04556129880790574,-2.1672342025453206
580,7.710099365683397,-13.385958403055648,-0.04188391840836543,-1.9873759431837938
581,7.723392640451816,-12.311901326158273,-0.03825734478952428,-1.8061050958288123
582,7.736685915220236,-11.281031545690865,-0.03497842727888166,-1.6356180618883527
583,7.749979189988656,-10.351335535814192,-0.03227097557487817,-1.4848579483308568
584,7.763272464757075,-9.559803677208405,-0.030267261294164974,-1.3594959768769628
585,7.776565739525496,-8.925733711182415,-0.029001785456990083,-1.2623475400092066
586,7.789859014293915,-8.45492924865233,-0.028417931444348125,-1.1939491404382276
587,7.803152289062335,-8.143256019139127,-0.02838671140221199,-1.15306891564539
588,7.816445563830754,-7.978806533032326,-0.028734767199006948,-1.1370367807773314
589,7.829738838599174,-7.9427628213011285,-0.029276734418208307,-1.1419132048532998
590,7.8430321133675935,-8.009659284308679,-0.029845865855854727,-1.1626144807362904
591,7.856325388136013,-8.14796379423538,-0.030317042960388983,-1.1931393488062254
592,7.869618662904433,-8.321697642886267,-0.030618081848170345,-1.2269924465506747
593,7.882911937672852,-8.493330455288179,-0.030728141590706633,-1.2578034088439267
594,7.896205212441272,-8.627626964013208,-0.03066525882408556,-1.2800429377149842
595,7.909498487209691,-8.695701156070891,-0.03046762145393507,-1.2896797305142131
596,7.922791761978112,-8.678386387923574,-0.03017438530692436,-1.2846239434340834
597,7.936085036746531,-8.568179568438769,-0.029811314807116115,-1.2648576141095131
598,7.949378311514951,-8.369381277937022,-0.029384555029004247,-1.2322357563314563
599,7.962671586283371,-8.096493205938668,-0.02888314276417184,-1.1900232173040541
600,7.97596486105179,-7.771311715254089,-0.02828831669004243,-1.1422867659481724
601,7.98925813582021,-7.419376792540067,-0.027585997994594103,-1.0932768190344688
602,8.00255141058863,-7.066465833871119,-0.026778333009676455,-1.0469106859281663
603,8.015844685357049,-6.735687422727325,-0.025890877605492597,-1.0064224173561467
604,8.02913796012547,-6.445498536284079,-0.02497348432699711,-0.9741915862375949
605,8.042431234893888,-6.208720475063915,-0.024094676364246143,-0.9517212261434718
606,8.055724509662308,-6.032430807988002,-0.023330788492728984,-0.9397131345137257
607,8.069017784430727,-5.918495089013229,-0.022752230720648813,-0.9381871535103987
608,8.082311059199148,-5.8644746131158865,-0.02240989921610602,-0.9466038688729606
609,8.095604333967566,-5.864685146923096,-0.022324979162014404,-0.9639700038819949
610,8.108897608735987,-5.911256615156544,-0.022484919595678235,-0.9889265317952024
611,8.122190883504405,-5.995121518663813,-0.022846977238777356,-1.0198355058293116
612,8.135484158272826,-6.1069081842892565,-0.023348568937741072,-1.0548865714730336
613,8.148777433041246,-6.237714507947479,-0.02392143931432981,-1.0922340102369787
614,8.162070707809665,-6.379695511876701,-0.024505327359080377,-1.1301527919549823
615,8.175363982578085,-6.526348028796838,-0.02505709040756282,-1.1671782624182339
616,8.188657257346504,-6.6723639948725,-0.02555303037802137,-1.2021824337694627
617,8.201950532114925,-6.812985474223919,-0.02598462957800082,-1.234349571818756
618,8.215243806883343,-6.9429392895992335,-0.02634997805359845,-1.263045369482903
619,8.228537081651764,-7.055235479992312,-0.026644194091094482,-1.287619435090307
620,8.241830356420182,-7.140326760726431,-0.026852105872723044,-1.3072256582862918
621,8.255123631188603,-7.1862584740842985,-0.026945812088820013,-1.3207708964899165
622,8.268416905957022,-7.180388216776944,-0.026888853762022668,-1.3270918505229627
623,8.281710180725442,-7.112946202098257,-0.02664762304255288,-1.3254041380519594
624,8.29500345549386,-6.982143882976519,-0.026209060768287204,-1.3159735924802791
625,8.308296730262281,-6.7998310660067585,-0.0256015378557493,-1.3008523591243706
626,8.321590005030702,-6.596062676017162,-0.024913443338223085,-1.2844372521303216
627,8.33488327979912,-6.420627013577828,-0.024302319290208294,-1.2735809501060922
628,8.34817655456754,-6.3398383390024655,-0.023987534324619628,-1.2770425494653825
629,8.36146982933596,-6.427812769780084,-0.02422231350605601,-1.304206846759137
630,8.37476310410438,-6.752920752624872,-0.025246398311370006,-1.3632083136329507
631,8.388056378872799,-7.361785451083029,-0.02722741863431976,-1.4588140047540799
632,8.401349653641219,-8.264527259198058,-0.03020489129773471,-1.5905776283911581
633,8.414642928409638,-9.42537561346838,-0.03405304864402168,-1.7518053256655546
634,8.427936203178058,-10.761939881749667,-0.03847581903154694,-1.929735803469392
635,8.441229477946477,-12.15443591534839,-0.043039509846159674,-2.107053353890435
636,8.454522752714897,-13.463551644520466,-0.04723843047210065,-2.264500594863109
637,8.467816027483318,-14.553238201885586,-0.05057936386903515,-2.384050312757428
638,8.481109302251737,-15.31332696470945,-0.05266563337490251,-2.4519339695372575
639,8.494402577020157,-15.676934543705084,-0.05326204270201736,-2.460858640889172
640,8.507695851788576,-15.62905558717688,-0.05232761940068773,-2.4109570348388454
641,8.520989126556996,-15.205050581085027,-0.05001167903708373,-2.309334928823029
642,8.534282401325415,-14.480197620363834,-0.046617462937136867,-2.168411891147476
643,8.547575676093835,-13.553419989968734,-0.042544123189054144,-2.0035077943891677
644,8.560868950862254,-12.529271276858044,-0.03822082287266365,-1.8302512374283888
645,8.574162225630674,-11.50210813000788,-0.034046053270794026,-1.662356757936078
646,8.587455500399093,-10.545274587279657,-0.030341780963179854,-1.510156784981473
647,8.600748775167514,-9.706477147294482,-0.02732717014086185,-1.3800378200191774
648,8.614042049935934,-9.008868714227772,-0.025111927513870435,-1.2746921096517125
649,8.627335324704353,-8.456133777260474,-0.023705891464996864,-1.1939225537571687
650,8.640628599472773,-8.03932476229063,-0.023039680827980188,-1.1356676429378207
651,8.653921874241192,-7.7433484828499415,-0.022990766306660818,-1.0969458690815603
652,8.667215149009612,-7.551660545982646,-0.023409787857773055,-1.0745256188868624
653,8.680508423778031,-7.4486135704822765,-0.024143033666721398,-1.0652615544925974
654,8.693801698546451,-7.419733375468586,-0.025048596458917594,-1.066157174711004
655,8.70709497331487,-7.450745635360286,-0.026005630218247387,-1.0742843902244257
656,8.72038824808329,-7.526342361306936,-0.026917902949801936,-1.0867027741786688
657,8.73368152285171,-7.629492559872868,-0.02771389198924808,-1.1004808819576617
658,8.74697479762013,-7.741697421688178,-0.028345591036275562,-1.112851198537009
659,8.76026807238855,-7.844146384870353,-0.02878710629178617,-1.1214576311890334
660,8.773561347156969,-7.919404693725348,-0.02903271784199017,-1.1246071479525823
661,8.78685462192539,-7.953140493667818,-0.029093315929868576,-1.1214314387083841
662,8.800147896693808,-7.935472693744965,-0.02899055989576622,-1.1118994886065163
663,8.813441171462228,-7.861711602537688,-0.028749506327244986,-1.0966801924586593
664,8.826734446230647,-7.73247139429909,-0.02839186970965586,-1.0769096247462793
665,8.840027720999068,-7.553278485286744,-0.02793250462816384,-1.0539476347237133
666,8.853320995767486,-7.333850605614112,-0.027380729104297293,-1.0292025655652675
667,8.866614270535907,-7.087189632997825,-0.026746166292743404,-1.004065392188144
668,8.879907545304325,-6.828557636884704,-0.02604681055253155,-0.9799417290120905
669,8.893200820072746,-6.574339864911504,-0.02531594610192224,-0.9583240921390741
670,8.906494094841166,-6.340780044213283,-0.02460481240089997,-0.9408271332943989
671,8.919787369609585,-6.142614435882479,-0.023979336974334464,-0.9291241090366479
672,8.933080644378006,-5.991710190520701,-0.023511196764051192,-0.9247672659161619
673,8.946373919146424,-5.8958881204958065,-0.02326519255571498,-0.9289293336903052
674,8.959667193914845,-5.858140489510654,-0.02328595354373256,-0.9421452547857355
675,8.972960468683263,-5.876423307650921,-0.023587209967655367,-0.9641455592714346
676,8.986253743451684,-5.944116455664663,-0.0241463782992792,-0.9938500035469394
677,8.999547018220103,-6.0511238277288495,-0.02490613353344767,-1.0295398789668377
678,9.012840292988525,-6.185453912682293,-0.025783127613537217,-1.0691678883418752
679,9.026133567756942,-6.335005656267293,-0.026682274659585118,-1.1107181174008627
680,9.039426842525362,-6.489213123723759,-0.02751347703597585,-1.1525131798719372
681,9.05272011729378,-6.6401976708754775,-0.028206839490425,-1.193385964378746
682,9.0660133920622,-6.783147147280999,-0.028722688506026942,-1.2326792837924405
683,9.079306666830622,-6.915784714642936,-0.029054067098908898,-1.2700888309665104
684,9.09259994159904,-7.036994943550433,-0.029221401846871026,-1.3054056518400021
685,9.10589321636746,-7.144922821857857,-0.02926114018248188,-1.3382360968409528
686,9.11918649113588,-7.235109991342476,-0.029211775052506883,-1.3677819764000938
687,9.1324797659043,-7.299406568526529,-0.029101425895567083,-1.3927569528404586
688,9.14577304067272,-7.326402312392428,-0.028940867785553864,-1.4114995834078083
689,9.15906631544114,-7.303883766669701,-0.028724665385074004,-1.42231678077929
690,9.172359590209558,-7.223331424229542,-0.028441118664262445,-1.4240495675342855
691,9.185652864977978,-7.0857935800048,-0.028089371474842195,-1.4167931085091123
692,9.198946139746395,-6.90776548761647,-0.027699609068826545,-1.4026281144970345
693,9.212239414514816,-6.7251827287238,-0.027350242184572625,-1.386146317214667
694,9.225532689283238,-6.593548363852446,-0.027175041292504237,-1.374511814455138
695,9.238825964051657,-6.582743611926654,-0.027354151123573263,-1.3768357496458195
696,9.252119238820075,-6.766256665125158,-0.028086272465698427,-1.4027826793765195
697,9.265412513588496,-7.20620104342355,-0.02954471585131859,-1.460558397633047
698,9.278705788356916,-7.937134851097828,-0.031826133022167837,-1.5546823912425334
699,9.291999063125337,-8.952747777659056,-0.03490535595862888,-1.6841225699371192
700,9.305292337893755,-10.199438414597653,-0.03861072802799819,-1.8413770930526123
701,9.318585612662174,-11.57945900815585,-0.04263040630221099,-2.0128965017833242
702,9.331878887430594,-12.963926285675775,-0.04655200917105478,-2.180894609347648
703,9.345172162199011,-14.213289090222112,-0.049928274072599144,-2.3262077716537206
704,9.358465436967434,-15.200700698074701,-0.052353624941125894,-2.4315599705801034
705,9.371758711735854,-15.832896850749721,-0.053533583574740654,-2.4844767083180193
706,9.385051986504273,-16.063906126453833,-0.05333160893625066,-2.4791977124212203
707,9.398345261272691,-15.898946181757355,-0.05178477545010642,-2.417224039563913
708,9.411638536041112,-15.388495703937235,-0.049087960353360334,-2.3065002111993684
709,9.424931810809532,-14.614934989818826,-0.04555320516358508,-2.159559508756927
710,9.438225085577953,-13.675625835052498,-0.041554977071294255,-1.991157401772249
711,9.451518360346371,-12.666538266860638,-0.0374728559549291,-1.8159458948593343
712,9.46481163511479,-11.669655385540391,-0.03364148321175741,-1.6466240235077958
713,9.47810490988321,-10.74585380712764,-0.03031465563505972,-1.4928025555366482
714,9.49139818465163,-9.93332278112887,-0.027647179441370323,-1.360616868730308
715,9.50469145942005,-9.250300096586958,-0.02569485472323513,-1.25296225117252
716,9.51798473418847,-8.700211176308052,-0.024429777625048964,-1.170132579270921
717,9.531278008956887,-8.277240628731551,-0.023765354303854562,-1.110617770350403
718,9.54457128372531,-7.97082893589327,-0.023583845221907106,-1.0718484251509257
719,9.557864558493728,-7.76835159172103,-0.023759762004008936,-1.0507516383546804
720,9.571157833262149,-7.656035753031894,-0.02417512663333748,-1.0440767243896119
721,9.584451108030567,-7.6187559869565,-0.024726415243200347,-1.0485352203790608
722,9.597744382798988,-7.639578010562048,-0.025326153361036188,-1.0608500676824222
723,9.611037657567406,-7.699777153899348,-0.025903128241094375,-1.077810666157845
724,9.624330932335829,-7.779664676195451,-0.026403798727178632,-1.0963890081360572
725,9.637624207104244,-7.8601007236999685,-0.026794841770150155,-1.1139110122557896
726,9.650917481872666,-7.924243455428098,-0.027064625027364484,-1.1282281444773576
727,9.664210756641086,-7.958992212067782,-0.027221032025277928,-1.1378216433259343
728,9.677504031409503,-7.955733413713003,-0.027284631239049575,-1.1417996601351386
729,9.690797306177926,-7.910298252710516,-0.027278688916549224,-1.1397993594674516
730,9.704090580946344,-7.8223466975731855,-0.027219507637106163,-1.1318526211394349
731,9.717383855714765,-7.694568253713949,-0.02711089876776808,-1.1182900681772039
732,9.730677130483183,-7.532066431790564,-0.026945044812584133,-1.0997344764218022
733,9.743970405251604,-7.342094730977269,-0.026709327095214282,-1.0771820669352705
734,9.757263680020024,-7.134043859805929,-0.026396187615953467,-1.0521140708249512
735,9.770556954788445,-6.919381487345378,-0.026011936618383302,-1.0265490882135768
736,9.783850229556862,-6.711217113373264,-0.025581068119308756,-1.002956330113255
737,9.797143504325282,-6.523315459460851,-0.025144662398064687,-0.98399903060191
738,9.810436779093704,-6.368630995890695,-0.02475379859712409,-0.9721459629615676
739,9.82373005386212,-6.257661688985632,-0.024460518549063063,-0.969247905324468
740,9.837023328630542,-6.197023929661469,-0.02430921561979212,-0.9761999776212347
741,9.85031660339896,-6.1886004960603485,-0.02433048945481049,-0.9927895452925872
742,9.86360987816738,-6.229444176878086,-0.0245381343577837,-1.0177711130490286
743,9.8769031529358,-6.312407304948881,-0.0249287588342842,-1.0491378109463565
744,9.89019642770422,-6.427293954186717,-0.025483036877246547,-1.0845024502900384
745,9.90348970247264,-6.562252457027049,-0.02616777071429181,-1.1214806507735913
746,9.91678297724106,-6.705148409383901,-0.02693843701815596,-1.1579875461193732
747,9.930076252009478,-6.844742676705803,-0.027742275873350444,-1.1924035094645524
748,9.943369526777898,-6.971587023217054,-0.028522067817837185,-1.2236107453112115
749,9.956662801546315,-7.078603398578645,-0.029220595019444247,-1.2509342116761297
750,9.969956076314736,-7.161330733635213,-0.029785557915144884,-1.2740319249492407
751,9.983249351083158,-7.217828014214613,-0.030174506973007633,-1.292775363518593
752,9.996542625851577,-7.2482339120893755,-0.030359157564992953,-1.3071470907743896
753,10.009835900619995,-7.2540071467055105,-0.030328304600516113,-1.317165679642279
754,10.023129175388416,-7.236911227533648,-0.030088532993334242,-1.322833613649285
755,10.036422450156836,-7.197873672168433,-0.02966214955728475,-1.3240989858983256
756,10.049715724925257,-7.135953515496472,-0.02908231468467617,-1.320830845718147
757,10.063008999693675,-7.047777221724735,-0.028386213371259426,-1.312827950774316
758,10.076302274462094,-6.927897292821392,-0.027608135491047056,-1.299900458967595
759,10.089595549230514,-6.770506187112515,-0.02677520122945838,-1.2820695245474503
760,10.102888823998931,-6.572720821971511,-0.02590862769479824,-1.259909936671586
761,10.116182098767354,-6.33920542440528,-0.025032328975864285,-1.23501264439995
762,10.129475373535774,-6.087274078383978,-0.024188094000392523,-1.2104741675125312
763,10.142768648304193,-5.850974128243455,-0.023453149600394987,-1.1912474869574532
764,10.156061923072611,-5.682266005273025,-0.02295289564060977,-1.1841447030971384
765,10.169355197841032,-5.64757746761444,-0.022860601696764973,-1.1973004398942324
766,10.182648472609452,-5.818897717318092,-0.023378042411653966,-1.2390095410349347
767,10.195941747377873,-6.260106029953431,-0.02469644613180256,-1.3160350919002661
768,10.209235022146292,-7.011000912727827,-0.026944339598599293,-1.431695351797986
769,10.22252829691471,-8.072885580792178,-0.030135376098682578,-1.5842034643455976
770,10.23582157168313,-9.3999509273619,-0.03413227093599866,-1.7657741414026513
771,10.24911484645155,-10.899731680402324,-0.03864068714402283,-1.9628846747131932
772,10.26240812121997,-12.443728053717965,-0.04323939730628324,-2.1578021913985794
773,10.27570139598839,-13.886514216536002,-0.04744259522395881,-2.331144979104449
774,10.288994670756807,-15.089213801825801,-0.05078055971881398,-2.4649465792685006
775,10.30228794552523,-15.941952963427125,-0.0528794909571578,-2.545539384582569
776,10.315581220293648,-16.38022537099972,-0.053522006886398875,-2.5656195243370012
777,10.328874495062069,-16.3918687009758,-0.05267589799527165,-2.525077213818375
778,10.342167769830487,-16.013923126222455,-0.05048780834272215,-2.430499408882529
779,10.355461044598908,-15.321170392098857,-0.04724733090137869,-2.293572045153267
780,10.368754319367326,-14.409894594468161,-0.04333288867468802,-2.1288362718359566
781,10.382047594135749,-13.380967989417014,-0.03915245735207911,-1.9513357307793349
782,10.395340868904166,-12.325781908855394,-0.03509011404457948,-1.774629631711231
783,10.408634143672586,-11.317187049081086,-0.03146527576349335,-1.6094800160962914
784,10.421927418441006,-10.405993297259037,-0.02850730827755112,-1.4633113786352279
785,10.435220693209423,-9.622171741801354,-0.02634521699970881,-1.3403453506699232
786,10.448513967977846,-8.979008385436966,-0.025010531206949144,-1.2421777719897338
787,10.461807242746264,-8.478204522240196,-0.02445066163380906,-1.1685165124503292
788,10.475100517514685,-8.114254372074274,-0.024549358407062735,-1.1178380521245275
789,10.488393792283103,-7.877163106596871,-0.02515037184704136,-1.0878247656154139
790,10.501687067051524,-7.753415549363378,-0.026080444101747428,-1.0755692068959963
791,10.514980341819944,-7.725785464071206,-0.027168690954528316,-1.0776301688755214
792,10.528273616588365,-7.77289951478555,-0.028261076188440207,-1.090067952371946
793,10.541566891356782,-7.869399078920961,-0.02923029719588428,-1.1085690075773895
794,10.554860166125202,-7.98717660933176,-0.029982191328218128,-1.128711037829522
795,10.568153440893624,-8.097679681959969,-0.03045944765144894,-1.146347572745994
796,10.58144671566204,-8.174855919030357,-0.030642422545657844,-1.1580335048739059
797,10.594739990430462,-8.198078943267634,-0.030546128740495324,-1.1613885088042224
798,10.60803326519888,-8.154390937529143,-0.030212747007406372,-1.1553087944352058
799,10.6213265399673,-8.039588722832988,-0.029700337705180775,-1.1399807975831087
800,10.63461981473572,-7.857985872963104,-0.02907008343605963,-1.1167049505526094
801,10.64791308950414,-7.621002031107634,-0.028375362894978006,-1.087583726476804
802,10.66120636427256,-7.34497020284526,-0.02765558232810033,-1.0551524933205658
803,10.67449963904098,-7.048655907664076,-0.026936047891284506,-1.0220312301976535
804,10.687792913809398,-6.75094151331369,-0.026232964079272034,-0.9906546177358874
805,10.701086188577818,-6.468984855637273,-0.025560828538321936,-0.9631059532144317
806,10.71437946334624,-6.216978787576988,-0.024938782503384004,-0.9410465432146514
807,10.727672738114656,-6.005480872380149,-0.024393118338308394,-0.9257066098480613
808,10.740966012883078,-5.841191510858174,-0.023954867671503257,-0.9178945866461341
809,10.754259287651497,-5.727046474730866,-0.02365349355092238,-0.9179924834007258
810,10.767552562419915,-5.662538885846404,-0.02350930940063765,-0.9259315338068255
811,10.780845837188336,-5.644254433807361,-0.023527679613049232,-0.941172383438471
812,10.794139111956756,-5.666640241000836,-0.02369720544802301,-0.9627317621044311
813,10.807432386725177,-5.722996095148481,-0.023992447523778486,-0.989291249321461
814,10.820725661493595,-5.8065803902647914,-0.02438006112452469,-1.0193928258249487
815,10.834018936262014,-5.911608460088461,-0.024826159322043417,-1.0516824749811313
816,10.847312211030436,-6.033853696228127,-0.025302501017757103,-1.0851269427137058
817,10.860605485798851,-6.170592451993732,-0.025789599164888568,-1.1191186021822106
818,10.873898760567274,-6.319775503520042,-0.026275803715568133,-1.1534084422183688
819,10.887192035335694,-6.478536451618151,-0.02675261544613534,-1.1878629263262923
820,10.900485310104113,-6.641407090105027,-0.027207735242418138,-1.2221095877424877
821,10.913778584872531,-6.798830176408334,-0.027618377290325957,-1.2551945979830896
822,10.927071859640952,-6.936665053036395,-0.027947814913211185,-1.2854005904014825
823,10.940365134409372,-7.037308470193546,-0.028147691817361355,-1.3103518788939577
824,10.953658409177793,-7.082773211614821,-0.02816730008140906,-1.3274682756096452
825,10.966951683946212,-7.0595994724417,-0.027969111024101333,-1.3347323695166946
826,10.98024495871463,-6.964886425802958,-0.027547828121364554,-1.3316302568682925
827,10.99353823348305,-6.8121405418658965,-0.026948555833022234,-1.3200364957426287
828,11.00683150825147,-6.635207717874468,-0.026278702925853624,-1.3047649678353728
829,11.02012478301989,-6.488484806056678,-0.025708321102916255,-1.2935217599650868
830,11.03341805778831,-6.442065668896488,-0.02545505620309002,-1.296090552068352
831,11.046711332556727,-6.571523084434056,-0.025752857479472167,-1.3227534347836287
832,11.06000460732515,-6.9435085777091,-0.0268076769442616,-1.3821698343614452
833,11.073297882093568,-7.599883649778383,-0.028747721001115712,-1.4791434753966004
834,11.086591156861989,-8.544147660265535,-0.03157919035688182,-1.6128284246929296
835,11.099884431630407,-9.73400966657856,-0.035159592975846796,-1.7758999472834462
836,11.113177706398828,-11.082836309817623,-0.039198630202533204,-1.9550255981489428
837,11.126470981167246,-12.47058665351623,-0.04329107534403509,-2.132655907520128
838,11.139764255935669,-13.76232110672415,-0.046977979302711595,-2.2898026333419383
839,11.153057530704086,-14.83026120425315,-0.049824264752586105,-2.4091974174596067
840,11.166350805472506,-15.574391759571993,-0.051495225062381814,-2.4781157070773725
841,11.179644080240926,-15.937059756553088,-0.05181388805104913,-2.4902456543835276
842,11.192937355009343,-15.908752270431622,-0.050786151094296655,-2.446247263679666
843,11.206230629777766,-15.524629204115277,-0.048589455918814535,-2.3529962036970744
844,11.219523904546184,-14.853669209362344,-0.045530446838781075,-2.221828799999561
845,11.232817179314605,-13.983791252226975,-0.041984249924514994,-2.06630470778993
846,11.246110454083023,-13.006703981938367,-0.03833065488070776,-1.900035349595627
847,11.259403728851444,-12.005579781121835,-0.034900466956055275,-1.735004842652973
848,11.272697003619864,-11.047329491683508,-0.031940182394391566,-1.5805990725571564
849,11.285990278388285,-10.179761582892326,-0.029597195412759257,-1.4433365964009977
850,11.299283553156702,-9.43267397874706,-0.027922919975064922,-1.3271256660529045
851,11.312576827925122,-8.821215063219572,-0.02688849741113125,-1.2337883722177743
852,11.325870102693544,-8.349750952699909,-0.02640711530969051,-1.1636004110604903
853,11.33916337746196,-8.014911122168177,-0.026357715974678127,-1.1156756361988567
854,11.352456652230382,-7.807237317846507,-0.026606293301694284,-1.0881439208232533
855,11.3657499269988,-7.711637363343081,-0.027022585445559938,-1.078184892629641
856,11.37904320176722,-7.70737347127617,-0.027491495716479075,-1.0820483587131668
857,11.39233647653564,-7.768442549718781,-0.027919774453774825,-1.095193405242048
858,11.40562975130406,-7.8649510119208035,-0.028239125519065034,-1.1126188240343131
859,11.41892302607248,-7.965606852930841,-0.028406871916139043,-1.1293680149635432
860,11.4322163008409,-8.040963736220197,-0.02840483240234833,-1.1411113762322351
861,11.445509575609318,-8.066738500850194,-0.028236552619915107,-1.144669980249737
862,11.458802850377738,-8.026472494301032,-0.02792288166184441,-1.1383573951320864
863,11.47209612514616,-7.912997324946483,-0.027496185548426873,-1.1220706228182307
864,11.485389399914578,-7.7284962913546424,-0.02699402122335737,-1.0971304898865732
865,11.498682674682998,-7.483294602299754,-0.026453466939175337,-1.0659297932189722
866,11.511975949451417,-7.193757287687332,-0.025907187838913628,-1.0314782151901758
867,11.525269224219835,-6.8797715494981935,-0.025381668750185524,-0.9969352007694069
868,11.538562498988256,-6.562250832068502,-0.024897203524323123,-0.9652046315849873
869,11.551855773756676,-6.260975636779279,-0.024468704581242767,-0.9386397841499577
870,11.565149048525097,-5.992945868596122,-0.024106493877817353,-0.9188818187431022
871,11.578442323293515,-5.771305528276618,-0.02381680929619756,-0.9068328531349715
872,11.591735598061934,-5.60482508128426,-0.023602331656839975,-0.9027453600636055
873,11.605028872830356,-5.497880230057301,-0.023463185035819685,-0.9063931641668869
874,11.618322147598771,-5.450834707505209,-0.023398524122064338,-0.9172775553367858
875,11.631615422367194,-5.46071175098225,-0.02340828930298537,-0.9348178394574544
876,11.644908697135614,-5.522020500770813,-0.023494368387330437,-0.9584806723619133
877,11.658201971904033,-5.627586097582697,-0.023660454441374164,-0.9878161558546443
878,11.671495246672452,-5.7692178422327425,-0.023910265663507985,-1.0223890540310083
879,11.684788521440872,-5.938055804636126,-0.02424428879242292,-1.0616185700193899
880,11.698081796209292,-6.124492321524418,-0.024655655491518904,-1.1045666900027236
881,11.711375070977711,-6.31769227071681,-0.025126109082678687,-1.149737318239575
882,11.724668345746132,-6.504925139239516,-0.025623276299490006,-1.194959321781829
883,11.73796162051455,-6.671125009910524,-0.02610060588727153,-1.2374221604235929
884,11.75125489528297,-6.799237225432306,-0.026501276798712507,-1.2739139796175225
885,11.76454817005139,-6.871909038738657,-0.026766951228878205,-1.30128182433402
886,11.77784144481981,-6.874862789926297,-0.02685128886946894,-1.3170922723279506
887,11.79113471958823,-6.801822284769409,-0.026736628219109892,-1.3204164037957637
888,11.804427994356647,-6.6601994793981865,-0.02645048121557837,-1.3125985182268671
889,11.81772126912507,-6.4760589354537705,-0.026077134755882712,-1.2978082075440716
890,11.831014543893488,-6.296429272753981,-0.025759447694585148,-1.2831468978054001
891,11.844307818661909,-6.187105829719453,-0.025687278616937745,-1.2781118395238689
892,11.857601093430327,-6.224858893467073,-0.026071705872897664,-1.2933302346364122
893,11.870894368198748,-6.484376765398128,-0.027107663806899558,-1.3386569950061413
894,11.884187642967166,-7.0220112946076805,-0.028930995808408605,-1.4209439076397865
895,11.897480917735589,-7.8599128256158,-0.03157843870239327,-1.541970399418642
896,11.910774192504006,-8.97483474013907,-0.03496004002673943,-1.6971003009237156
897,11.924067467272426,-10.295317785549647,-0.038852434471216946,-1.8751372498335122
898,11.937360742040848,-11.709094385155948,-0.04291797397994807,-2.0595872602997587
899,11.950654016809263,-13.079852850740433,-0.04674914737757296,-2.2311637005750455
900,11.963947291577686,-14.269832667636653,-0.04993113183220386,-2.371007507801536
901,11.977240566346104,-15.163014285904447,-0.05210967680790003,-2.4638754632539133
902,11.990533841114525,-15.683525459326036,-0.05304908365895129,-2.5005561744324845
903,12.003827115882943,-15.805332463189522,-0.05266718087355132,-2.479004029083563
904,12.017120390651364,-15.55176298415425,-0.051040465367466634,-2.4040469076955184
905,12.030413665419784,-14.986049054056508,-0.04838074965985998,-2.285892122462499
906,12.043706940188205,-14.196071897014757,-0.04499171820959969,-2.137911699710278
907,12.057000214956622,-13.27736946033217,-0.04121738839561034,-1.9742767371870746
908,12.070293489725042,-12.318192892427088,-0.037393874083790996,-1.8079409120446546
909,12.083586764493464,-11.389256374873966,-0.03381211272529579,-1.6492975042165876
910,12.09688003926188,-10.539253396481826,-0.030694429908297648,-1.5056170717156747
911,12.110173314030302,-9.79566187898053,-0.028183992869465956,-1.381172329733604
912,12.12346658879872,-9.169206177867595,-0.026344387379828513,-1.277817505077556
913,12.13675986356714,-8.659821613963683,-0.025166538680556582,-1.1957374453650744
914,12.15005313833556,-8.262120428898625,-0.02458097302400591,-1.1341179988968815
915,12.16334641310398,-7.969031728356584,-0.02447397425837274,-1.0915884051677307
916,12.1766396878724,-7.773192138880038,-0.02470616451880657,-1.0664066604650024
917,12.18993296264082,-7.666486201132927,-0.02513172457822304,-1.0564577995500817
918,12.203226237409238,-7.638647028524848,-0.025616319611089775,-1.0591850935839777
919,12.216519512177658,-7.6759394166973225,-0.02605194708697287,-1.071569243679182
920,12.22981278694608,-7.760708559979111,-0.02636719718481747,-1.0902244260203133
921,12.243106061714498,-7.872131338439883,-0.026531676127300785,-1.1116175265238581
922,12.256399336482918,-7.9880303543211255,-0.026553742442274833,-1.1323636875890153
923,12.269692611251337,-8.087256823298379,-0.026471555177214445,-1.149524805710454
924,12.282985886019755,-8.15200833667469,-0.02633883433420357,-1.160842705796597
925,12.296279160788176,-8.169533215994148,-0.026208334499063988,-1.1648677948849606
926,12.309572435556596,-8.132922025253857,-0.02611711478253574,-1.1609813126179507
927,12.322865710325017,-8.040988928979434,-0.02607755983220845,-1.1493381178975017
928,12.336158985093435,-7.897487433285453,-0.026076547017607626,-1.1307670281764588
929,12.349452259861854,-7.710012696298919,-0.026082625566442266,-1.106657212443582
930,12.362745534630276,-7.488904436667555,-0.026058541006419786,-1.0788407812655174
931,12.376038809398697,-7.246324626395337,-0.025974891532715767,-1.0494649972232908
932,12.389332084167114,-6.995515704480116,-0.02582066579857873,-1.0208408290003301
933,12.402625358935534,-6.750119613788024,-0.025607753640628027,-0.9952602773547916
934,12.415918633703953,-6.523403020280184,-0.025368621430998804,-0.9747896204008573
935,12.429211908472372,-6.32729986139976,-0.025148424707186867,-0.9610624402108183
936,12.442505183240792,-6.17131763243101,-0.024994254426292016,-0.9551073865524848
937,12.455798458009212,-6.061495189184711,-0.02494464860934786,-0.957246012573323
938,12.469091732777631,-5.999678690015662,-0.025021970354759338,-0.9670850950187034
939,12.482385007546052,-5.983358392762742,-0.025229075488237333,-0.9836092738485086
940,12.49567828231447,-6.006189578026027,-0.025550341814916513,-1.0053593744600433
941,12.50897155708289,-6.059152053230433,-0.025956053242217714,-1.0306649757687236
942,12.52226483185131,-6.132142247762534,-0.02640859708156754,-1.0578905576218385
943,12.53555810661973,-6.215684697818112,-0.02686896838326455,-1.0856544076760664
944,12.54885138138815,-6.302418632743964,-0.027302493610084275,-1.1129872355724948
945,12.562144656156567,-6.388062067681776,-0.02768320435028112,-1.1394096956494835
946,12.57543793092499,-6.471662671688786,-0.027996669403814876,-1.164920502545357
947,12.588731205693408,-6.555079846556495,-0.028241212144149947,-1.1898967391009776
948,12.602024480461829,-6.641773174843408,-0.028427326538460442,-1.2149157229039704
949,12.615317755230247,-6.735082106459833,-0.02857493338568495,-1.240516743706438
950,12.628611029998668,-6.836275725019833,-0.028708167648572182,-1.2669345347080547
951,12.641904304767086,-6.942742574241789,-0.02884790585615317,-1.2938542935526123
952,12.655197579535509,-7.046776423212591,-0.02900324515058266,-1.320254892939976
953,12.668490854303926,-7.135464364073281,-0.0291643037677118,-1.344413736795892
954,12.681784129072346,-7.192146039903125,-0.029299455796460108,-1.3641353428414136
955,12.695077403840768,-7.199728354377776,-0.02935990336834823,-1.3772315991919846
956,12.708370678609183,-7.145766866492888,-0.029293081504609922,-1.382224514351506
957,12.721663953377606,-7.02866971322527,-0.029063920736163453,-1.379167047699867
958,12.734957228146024,-6.86373450417898,-0.028679932322613455,-1.37039749259601
959,12.748250502914445,-6.687191090159525,-0.02821320776508165,-1.3609827432495971
960,12.761543777682864,-6.5562648234812,-0.027810810299638812,-1.3585991946628073
961,12.774837052451284,-6.54374243016776,-0.027685838962519374,-1.3726765495322892
962,12.788130327219704,-6.726702254502287,-0.02808536226231716,-1.4127965981991888
963,12.801423601988123,-7.170779282323142,-0.029238037165040403,-1.4865670781710132
964,12.814716876756542,-7.913103085861785,-0.031291770676764294,-1.5974147540729313
965,12.828010151524962,-8.948228865169513,-0.034257535383110216,-1.7428773592170121
966,12.841303426293385,-10.221387719065826,-0.03797679217191214,-1.9139479596864717
967,12.8545967010618,-11.631952073001205,-0.042125532514254965,-2.09581116119948
968,12.867889975830222,-13.047413220674077,-0.046258438720352596,-2.2699520407092444
969,12.88118325059864,-14.325182289041129,-0.0498849217096612,-2.4172248186350744
970,12.89447652536706,-15.337181383248629,-0.05255890006069361,-2.521175379947727
971,12.90776980013548,-15.991338098966308,-0.053959785380465926,-2.5708267288302835
972,12.9210630749039,-16.2450372916178,-0.05394489180755036,-2.5622904086665583
973,12.93435634967232,-16.10795166087798,-0.05256232439545747,-2.498902537732068
974,12.94764962444074,-15.634605751527276,-0.05002501234602762,-2.38998118948586
975,12.960942899209158,-14.909547651029273,-0.04665681089200223,-2.248632270114021
976,12.974236173977578,-14.029401174817949,-0.04282725864494605,-2.0892033615284364
977,12.987529448746,-13.086129283985205,-0.038891468310112344,-1.9249754134384276
978,13.000822723514418,-12.15479668863682,-0.035146771278942175,-1.7665277151364474
979,13.014115998282838,-11.287470622498045,-0.03181058151468698,-1.620981273964422
980,13.027409273051257,-10.5131676853318,-0.029017257669762382,-1.4920896591580393
981,13.040702547819675,-9.842359703739843,-0.026827617476267093,-1.380958254255402
982,13.053995822588096,-9.27376070169232,-0.02524395869855592,-1.287066322029012
983,13.067289097356516,-8.801034053486916,-0.02422527447975696,-1.209255175798763
984,13.080582372124937,-8.417610565179645,-0.023700214249360172,-1.146422482258182
985,13.093875646893355,-8.118759135114736,-0.02357768010210829,-1.0977980441059039
986,13.107168921661774,-7.901074405025393,-0.023756011596355712,-1.0628265110777428
987,13.120462196430196,-7.760330427639445,-0.024131637066269876,-1.0408027820660042
988,13.133755471198617,-7.689001208665078,-0.024607425603322478,-1.030464862625846
989,13.147048745967034,-7.674634214887839,-0.025100272622547746,-1.0297359806466966
990,13.160342020735454,-7.6997934304322895,-0.02554697827588515,-1.035734045047753
991,13.173635295503871,-7.743664529721904,-0.025907369082394445,-1.0450609495859196
992,13.186928570272292,-7.784851159185236,-0.026163936005154664,-1.0542845946050865
993,13.200221845040712,-7.804550916558305,-0.026317980237901398,-1.0604666878313422
994,13.213515119809133,-7.789251493570109,-0.026383170773857982,-1.0615862926717121
995,13.226808394577551,-7.732300579968055,-0.02637818534835855,-1.056756450153791
996,13.240101669345972,-7.634072107201238,-0.026320374172560324,-1.046204376666342
997,13.25339494411439,-7.50084229489446,-0.026221960770210852,-1.0310546938632887
998,13.26668821888281,-7.3427870487158575,-0.026089291593697942,-1.0129976899685567
999,13.279981493651231,-7.171654024526258,-0.025924498954920303,-0.9939334328037172
1000,13.29327476841965,-6.998642993647571,-0.025728199584811734,-0.9756643906297338
1001,13.30656804318807,-6.83288590453531,-0.025501856753047582,-0.9596783383809846
1002,13.319861317956487,-6.680712366050044,-0.025249102831825795,-0.9470333900183452
1003,13.33315459272491,-6.5456766245405635,-0.024976192445003983,-0.9383356352184085
1004,13.346447867493328,-6.429157333906949,-0.024692294535121177,-0.9337883001928478
1005,13.359741142261749,-6.331254040733837,-0.024410243074714084,-0.933287628255246
1006,13.373034417030167,-6.25170424230309,-0.024147757988439003,-0.9365425941874858
1007,13.386327691798588,-6.190613642277913,-0.023928431628849427,-0.9432008355358081
1008,13.399620966567008,-6.148887606963646,-0.023781410427743902,-0.9529680081313993
1009,13.412914241335429,-6.128329984510111,-0.023738931400092908,-0.9657077218451984
1010,13.426207516103846,-6.131418106653258,-0.023831606234257938,-0.9815033337132486
1011,13.439500790872266,-6.160784899949778,-0.024082218605067193,-1.0006568193591228
1012,13.452794065640688,-6.218468567591682,-0.024499403758476753,-1.0236032948572307
1013,13.466087340409103,-6.305039738089555,-0.025072708722855552,-1.050738524793774
1014,13.479380615177526,-6.418772436920937,-0.02577028116052963,-1.0821875208272869
1015,13.492673889945944,-6.555064004878587,-0.02654004854886441,-1.1175732398463025
1016,13.505967164714365,-6.706310167707561,-0.0273148559081829,-1.15586137426651
1017,13.519260439482784,-6.862392792768036,-0.02802151775373007,-1.1953505971392333
1018,13.532553714251204,-7.011832632771605,-0.028592904360628477,-1.2338459115962477
1019,13.545846989019624,-7.143502383693008,-0.028981032974605827,-1.2690035363943912
1020,13.559140263788043,-7.24861595262458,-0.029168074436827444,-1.2987833802048714
1021,13.572433538556462,-7.322562266460511,-0.029171868914543406,-1.3219055429118411
1022,13.585726813324882,-7.366094479070709,-0.029043467580761956,-1.3381920450987894
1023,13.599020088093305,-7.385452174931476,-0.02885632173962876,-1.3486883430394097
1024,13.61231336286172,-7.391183115654116,-0.02868932193216415,-1.3554991895397492
1025,13.625606637630142,-7.395711765616121,-0.02860791246799527,-1.3613348191772647
1026,13.63889991239856,-7.410026932696916,-0.028648157373516735,-1.368838046951966
1027,13.65219318716698,-7.4401695490948025,-0.028807744106348072,-1.379836631437234
1028,13.6654864619354,-7.484419895193879,-0.029045980075024243,-1.3947171041601834
1029,13.67877973670382,-7.532134339885901,-0.029292667691253528,-1.4121235603894784
1030,13.69207301147224,-7.565006232481653,-0.02946400999096377,-1.4291341330877625
1031,13.70536628624066,-7.561104096316977,-0.029482710442929768,-1.4419630656899378
1032,13.718659561009078,-7.501403020735934,-0.029299121309985972,-1.4470990749877406
1033,13.731952835777498,-7.377761029825779,-0.0289103359243396,-1.442653216174701
1034,13.74524611054592,-7.200559747263629,-0.028374130460884273,-1.4295862634849315
1035,13.758539385314338,-7.00375458685784,-0.027814489157481723,-1.4124480072725314
1036,13.771832660082758,-6.845116479848072,-0.027415381133170037,-1.3993123593475816
1037,13.785125934851177,-6.800178145095935,-0.02740017526900253,-1.400741340891433
1038,13.798419209619595,-6.949819875252114,-0.02799628497267376,-1.4278417718225602
1039,13.811712484388016,-7.363274323584755,-0.029388503220352635,-1.4897432755032816
1040,13.825005759156436,-8.080079677388476,-0.0316692234000378,-1.591050680670665
1041,13.838299033924857,-9.095534134651318,-0.034797572783259824,-1.7299264507153487
1042,13.851592308693276,-10.353983523991628,-0.03858030201890377,-1.8973810173977907
1043,13.864885583461694,-11.752650299827252,-0.04268370624422066,-2.0780851742630735
1044,13.878178858230116,-13.156038249142476,-0.04667823222154571,-2.2526303137516166
1045,13.891472132998535,-14.418030583185809,-0.050107995821592345,-2.400765476552245
1046,13.904765407766954,-15.406620325895519,-0.052569573968850196,-2.504866467307102
1047,13.918058682535374,-16.025526186338805,-0.053781201628833764,-2.552835979458339
1048,13.931351957303791,-16.227965183559817,-0.05362622208531931,-2.53981162343907
1049,13.944645232072212,-16.020164022812992,-0.05216228049998114,-2.468403639055603
1050,13.957938506840632,-15.454956611444038,-0.04959743263863457,-2.3475742023777757
1051,13.971231781609053,-14.61813190334026,-0.046242630010397794,-2.1905803410795657
1052,13.984525056377471,-13.611445125042353,-0.04245438499668363,-2.012551092546846
1053,13.997818331145892,-12.536229500348808,-0.03858103970904387,-1.8282422685838062
1054,14.01111160591431,-11.480602350911756,-0.03492201803433688,-1.6503534411713605
1055,14.02440488068273,-10.511818840330378,-0.03170388927661867,-1.4885748950031799
1056,14.037698155451151,-9.67385878550802,-0.029072176216030466,-1.3493279712215236
1057,14.05099143021957,-8.989186584795215,-0.02709490479786562,-1.2360196548219162
1058,14.06428470498799,-8.462999820749722,-0.025773119054919868,-1.1495737716465115
1059,14.07757797975641,-8.088226382949712,-0.02505438413144612,-1.0890231421698362
1060,14.09087125452483,-7.849943841728971,-0.024846804587578757,-1.0520239314909665
1061,14.104164529293248,-7.728559556780802,-0.025032537933256566,-1.0352469435125033
1062,14.117457804061669,-7.701741671903513,-0.025480705725247826,-1.0346741103627917
1063,14.130751078830087,-7.745520114972712,-0.026059824019933123,-1.0458605736331295
1064,14.144044353598508,-7.835099403069117,-0.026649513615788555,-1.0642130274877148
1065,14.157337628366928,-7.945791264535704,-0.027150665616095776,-1.0852994520068864
1066,14.170630903135349,-8.054216923868118,-0.027492862387471062,-1.10516650434893
1067,14.183924177903766,-8.139686448209755,-0.027637970295455002,-1.1206171830530463
1068,14.197217452672186,-8.185525468729274,-0.02757940861724177,-1.129400946791139
1069,14.210510727440608,-8.180106480048133,-0.027337389946170236,-1.1302877315985367
1070,14.223804002209024,-8.117416267706076,-0.02695112740338289,-1.1230250523756873
1071,14.237097276977446,-7.997096079260585,-0.02646948155420687,-1.1082011524791915
1072,14.250390551745864,-7.823982170885001,-0.025941781235722987,-1.0870493772744152
1073,14.263683826514283,-7.607232985637742,-0.025410565391037206,-1.0612294147470314
1074,14.276977101282704,-7.359159139699389,-0.024907607165214684,-1.0326148535365796
1075,14.290270376051124,-7.093885554933582,-0.024453689884578068,-1.0031090636491033
1076,14.303563650819545,-6.825979522599967,-0.02406138678116007,-0.9745046443241165
1077,14.316856925587963,-6.569174490288168,-0.023739050217473183,-0.9483941034879078
1078,14.330150200356382,-6.335303618451755,-0.023493894534874604,-0.9261292574463319
1079,14.343443475124802,-6.133529166754457,-0.02333271068220502,-0.9088152702434129
1080,14.356736749893225,-5.969918424270697,-0.023260131246317556,-0.8973170003387856
1081,14.37003002466164,-5.847380587627231,-0.02327579663378722,-0.8922556941426419
1082,14.383323299430062,-5.765943276620067,-0.023372476916300768,-0.8939846457109755
1083,14.39661657419848,-5.723308906295501,-0.02353672752928788,-0.902549038936894
1084,14.4099098489669,-5.715590531713439,-0.023752207791107927,-0.9176500461974518
1085,14.42320312373532,-5.738096421958627,-0.024004216651148574,-0.9386396579083275
1086,14.43649639850374,-5.786031229642917,-0.024283311395022603,-0.9645681343062651
1087,14.44978967327216,-5.85501706692653,-0.024586541104465603,-0.9942918385995261
1088,14.46308294804058,-5.941394619683813,-0.02491636079533858,-1.026629066154984
1089,14.476376222808998,-6.042311728029485,-0.02527854395536627,-1.0605304009806922
1090,14.48966949757742,-6.155621898369176,-0.02568043465581416,-1.0952153277057801
1091,14.50296277234584,-6.279600909865038,-0.02612971089373955,-1.130226335199124
1092,14.516256047114258,-6.4124714499904165,-0.026632497895284917,-1.1653699405636648
1093,14.529549321882678,-6.5517343599549935,-0.027189391728707445,-1.2005475580953986
1094,14.542842596651097,-6.693361692756793,-0.027789173738522938,-1.2355175516857093
1095,14.556135871419515,-6.831015264438078,-0.02840205486540404,-1.269661168998215
1096,14.569429146187936,-6.955594210616051,-0.028975924810080364,-1.301840767804312
1097,14.582722420956356,-7.0555327053942785,-0.029439272359172503,-1.3304340905846186
1098,14.596015695724777,-7.118281960925881,-0.029712940164671627,-1.3536004334468998
1099,14.609308970493196,-7.133237718641641,-0.029730186657005723,-1.3697826795244734
1100,14.622602245261614,-7.095983680029409,-0.029461545562168262,-1.3783786910351246
1101,14.635895520030036,-7.013168534328986,-0.028938587742744392,-1.3804410483702114
1102,14.649188794798455,-6.906769310734681,-0.028269553298519136,-1.3792073886598044
1103,14.662482069566874,-6.816130070109519,-0.027640309875012998,-1.3802473880195365
1104,14.675775344335294,-6.7962200788593154,-0.02729634371584661,-1.391053779941743
1105,14.689068619103711,-6.911171831237034,-0.027505385271406602,-1.4200093413418464
1106,14.702361893872132,-7.223316841426494,-0.028505299547944025,-1.474818091545362
1107,14.715655168640552,-7.779394836213694,-0.03044696387555792,-1.5606643089001684
1108,14.728948443408973,-8.596924636084106,-0.03334542506693082,-1.6785056290460771
1109,14.742241718177391,-9.654369224793287,-0.03705299539349361,-1.8239590627535642
1110,14.755534992945812,-10.88831290965238,-0.04126411678303988,-1.9871610495121206
1111,14.76882826771423,-12.199346158513974,-0.04555426020186742,-2.1537744096036286
1112,14.78212154248265,-13.466105418062629,-0.04944598394457646,-2.3070258006547273
1113,14.795414817251071,-14.564648946124086,-0.05248768098132545,-2.4303743761604912
1114,14.80870809201949,-15.388827719490845,-0.05432722122597276,-2.5102292468658773
1115,14.82200136678791,-15.867038214748263,-0.05476469377545317,-2.5381119819365474
1116,14.83529464155633,-15.971777573231469,-0.05377477550268058,-2.5118066123435567
1117,14.84858791632475,-15.720380852957518,-0.05149743754017847,-2.435303788469372
1118,14.861881191093168,-15.16756834263913,-0.048202992529370665,-2.317645143097652
1119,14.875174465861589,-14.39231264820501,-0.04424191066762306,-2.1710226472634764
1120,14.888467740630007,-13.482569316982003,-0.03999074496286705,-2.008621972788916
1121,14.901761015398428,-12.521408301483607,-0.03580351497699736,-1.8426925419794684
1122,14.915054290166848,-11.577163103495044,-0.03197442069604092,-1.6831971353758894
1123,14.928347564935269,-10.698764763192663,-0.02871437862521948,-1.537193162008014
1124,14.941640839703688,-9.915941793647184,-0.02614161960314264,-1.4088932447589577
1125,14.954934114472106,-9.24286323371371,-0.024285449551033116,-1.3002015323408673
1126,14.968227389240528,-8.683300085628582,-0.023101399180930255,-1.2114539616230873
1127,14.981520664008944,-8.23548451657085,-0.02249457883242644,-1.1421065441885545
1128,14.994813938777366,-7.895405639860496,-0.022346247964571186,-1.0911961330049376
1129,15.008107213545784,-7.658066581485665,-0.02253753065355139,-1.0575123798239485
1130,15.021400488314203,-7.516992768969853,-0.02296506993575597,-1.039532368180648
1131,15.034693763082624,-7.46281294185462,-0.02354639682412493,-1.0352472625191225
1132,15.047987037851044,-7.481906534335738,-0.024216666400379647,-1.0420310905200378
1133,15.061280312619465,-7.555922157951301,-0.024921248436820278,-1.0566634683514733
1134,15.074573587387883,-7.662539884318576,-0.02560908830136042,-1.0755408566373366
1135,15.087866862156302,-7.7773615667614955,-0.02622987744888879,-1.0950290172871049
1136,15.101160136924722,-7.876448001633138,-0.02673530355748858,-1.111855853069354
1137,15.114453411693145,-7.938884858337751,-0.02708265357777336,-1.1234364717692473
1138,15.127746686461562,-7.948852614597087,-0.027238650654316025,-1.1280574128123197
1139,15.141039961229982,-7.896912846770103,-0.027182299522671854,-1.1249039033952153
1140,15.1543332359984,-7.780480022121255,-0.026906729110477687,-1.1139666054954203
1141,15.16762651076682,-7.6036204381842305,-0.026420694401131133,-1.0958925280334677
1142,15.18091978553524,-7.376363869075212,-0.02575021874178747,-1.0718417810460517
1143,15.19421306030366,-7.113652932857946,-0.024940060766249862,-1.0433845029919393
1144,15.20750633507208,-6.833961942679488,-0.024053816543061886,-1.0124358059974574
1145,15.2207996098405,-6.557570915446351,-0.023171071358273974,-0.9811969318335412
1146,15.234092884608918,-6.3045276161560935,-0.02238044155160265,-0.9520591541535167
1147,15.24738615937734,-6.092457774553006,-0.02176858720734899,-0.927437410440015
1148,15.26067943414576,-5.934524113954202,-0.02140692837556746,-0.9095298347886449
1149,15.273972708914178,-5.8379059516861345,-0.021339177335740006,-0.9000368567267711
1150,15.287265983682598,-5.803122301718925,-0.021573221605878247,-0.8999042080980528
1151,15.300559258451017,-5.824360760243431,-0.022080002093449607,-0.9091636622036916
1152,15.313852533219436,-5.890758542610805,-0.0228000231806872,-0.9269268824430082
1153,15.327145807987856,-5.9883814000529485,-0.023655734041833597,-0.9515466651660803
1154,15.340439082756276,-6.102514624860013,-0.024566212215896065,-0.9809119584492368
1155,15.353732357524695,-6.2198439612053855,-0.025460144464660335,-1.0128073173139147
1156,15.367025632293116,-6.330162116938793,-0.026284207430647875,-1.045256371284933
1157,15.380318907061534,-6.427362981024395,-0.02700601422752249,-1.0767823116571467
1158,15.393612181829956,-6.5096363501645875,-0.02761274857365563,-1.1065456448989388
1159,15.406905456598375,-6.578906596294546,-0.028107529863678142,-1.1343476106025991
1160,15.420198731366794,-6.6396477435216,-0.028505205910574812,-1.1605095736398363
1161,15.433492006135214,-6.697263837657861,-0.02882818898183804,-1.1856545583364275
1162,15.446785280903631,-6.756270497994784,-0.029102005885897182,-1.2104301284796504
1163,15.460078555672052,-6.818564721221284,-0.02935005358212828,-1.2352235067341621
1164,15.473371830440472,-6.882120125203573,-0.029587710622374853,-1.2599288163477842
1165,15.486665105208893,-6.940476655749937,-0.029817036527728488,-1.283830078221036
1166,15.499958379977311,-6.983383829679789,-0.030024182223306474,-1.305659057602846
1167,15.513251654745732,-6.998870537829679,-0.030181812395400135,-1.3238695097924817
1168,15.52654492951415,-6.976806055278033,-0.03025804725262144,-1.3371327476814783
1169,15.539838204282573,-6.913651111468303,-0.030231712597695373,-1.3450008894056584
1170,15.553131479050991,-6.817596527108251,-0.03011134992255281,-1.3486105824267591
1171,15.56642475381941,-6.712767227555647,-0.029953016341343865,-1.3512312416621448
1172,15.57971802858783,-6.640840332226901,-0.0298701781744666,-1.3584270687838176
1173,15.59301130335625,-6.658528776372248,-0.03002896407568981,-1.3776309944634635
1174,15.60630457812467,-6.830086422875294,-0.03062458692619172,-1.4170390986556893
1175,15.619597852893088,-7.2152793875424,-0.031840010550887206,-1.4839186735309864
1176,15.632891127661509,-7.854858639750551,-0.03379469522436974,-1.5826396733760106
1177,15.646184402429927,-8.756934261771312,-0.036496945109985995,-1.71291400477759
1178,15.659477677198348,-9.888183479519185,-0.03981514153209355,-1.868777750600673
1179,15.672770951966768,-11.173104877355215,-0.04347937727660295,-2.038726085155187
1180,15.686064226735189,-12.50259185259176,-0.047116487308615215,-2.207122637630324
1181,15.699357501503608,-13.750501277245563,-0.05031125437071942,-2.3566406752986806
1182,15.712650776272026,-14.794542016758934,-0.05267862173126787,-2.471181726789037
1183,15.725944051040448,-15.536558191841713,-0.05392906796075943,-2.538573905312218
1184,15.739237325808864,-15.917556753283948,-0.05391254038486829,-2.5524273320829227
1185,15.752530600577286,-15.924449536187689,-0.05263366598579263,-2.512781634115486
1186,15.765823875345705,-15.58779556182482,-0.05023915784861534,-2.425519398829527
1187,15.779117150114123,-14.972045862559554,-0.04698450854233201,-2.3008226431717267
1188,15.792410424882544,-14.1613007809175,-0.043189785350866414,-2.1511323152981507
1189,15.805703699650964,-13.244125334316381,-0.0391938259154961,-1.989105222966223
1190,15.818996974419385,-12.300588959407992,-0.035313626930023295,-1.8259701924821787
1191,15.832290249187803,-11.393659772228734,-0.031812757704366895,-1.6705156280574875
1192,15.845583523956224,-10.565737313223947,-0.028880394696088402,-1.5287512296316854
1193,15.858876798724642,-9.839809989665666,-0.026621435233141078,-1.4041275124676071
1194,15.872170073493065,-9.223776396672026,-0.025057617488566292,-1.2981008155871017
1195,15.885463348261482,-8.716052669954404,-0.0241388042379904,-1.2108086763808914
1196,15.898756623029902,-8.310718700448241,-0.023762170201822804,-1.14165948831881
1197,15.91204989779832,-8.001005717475604,-0.023795422264824753,-1.0897172155413901
1198,15.92534317256674,-7.780679967995479,-0.02409937356934299,-1.0538499855272647
1199,15.93863644733516,-7.643598756526352,-0.024545893300407844,-1.0326880469149422
1200,15.95192972210358,-7.582216248695566,-0.02502925497382053,-1.0244859549422536
1201,15.965222996872,-7.58599264338152,-0.025471181450509358,-1.026997690035992
1202,15.97851627164042,-7.640511880782962,-0.025821316018201264,-1.03745229366206
1203,15.991809546408838,-7.727736986702697,-0.02605497258084064,-1.0526715003342844
1204,16.00510282117726,-7.827384331756506,-0.02616924085847575,-1.069317138869514
1205,16.01839609594568,-7.919036101971246,-0.026177712325218563,-1.08421380138315
1206,16.031689370714098,-7.984437697443339,-0.02610392490780298,-1.0946742859541587
1207,16.044982645482516,-8.009461281912834,-0.02597416829854946,-1.0987628655087909
1208,16.05827592025094,-7.985396609001087,-0.025811057109199634,-1.0954553563728726
1209,16.071569195019357,-7.90945494148634,-0.025629596969140262,-1.0846827066575628
1210,16.084862469787776,-7.784552715268386,-0.02543692061027936,-1.0672676108757717
1211,16.098155744556195,-7.618536027612094,-0.025235556533378733,-1.0447785031141237
1212,16.111449019324617,-7.4230222795798255,-0.02502862399612565,-1.019332184090535
1213,16.124742294093036,-7.212007991412307,-0.024824524643878472,-0.9933751760193097
1214,16.138035568861454,-7.000361635040077,-0.024639001673068407,-0.9694648239715372
1215,16.151328843629877,-6.802311591736735,-0.024493687215435173,-0.9500574954847238
1216,16.164622118398295,-6.630053253406232,-0.02441175992702842,-0.9373004837814422
1217,16.177915393166714,-6.492616334046314,-0.02441234746509718,-0.9328244285752839
1218,16.191208667935133,-6.395126171111335,-0.024505487532780604,-0.937546627686821
1219,16.204501942703555,-6.338545544059289,-0.024688957307928593,-0.9515160368551864
1220,16.217795217471974,-6.319907041923082,-0.024947519383126213,-0.9738455286566656
1221,16.231088492240392,-6.3329716954409525,-0.025254498078163864,-1.0027744378412269
1222,16.24438176700881,-6.369204968862439,-0.02557525579577844,-1.0358802577505664
1223,16.257675041777233,-6.418949054968677,-0.02587203522132287,-1.070418870641578
1224,16.270968316545652,-6.472672286890073,-0.02610962352787109,-1.103733186857081
1225,16.28426159131407,-6.522174840268423,-0.02626124511017152,-1.13364778080809
1226,16.297554866082493,-6.561623882084427,-0.026313936687521924,-1.1587715307050264
1227,16.31084814085091,-6.588290953137216,-0.02627244204095742,-1.1786571915742392
1228,16.32414141561933,-6.602874882349143,-0.026160530454165547,-1.1938014535187704
1229,16.33743469038775,-6.609312012265126,-0.026018793517402213,-1.2054963534387118
1230,16.35072796515617,-6.614003328749893,-0.02589853756529561,-1.2155572881705567
1231,16.36402123992459,-6.624440449653194,-0.0258522960977827,-1.2259594651669594
1232,16.37731451469301,-6.647309914383068,-0.02592246599013223,-1.2384226019893014
1233,16.390607789461427,-6.686303804434146,-0.026130290049123678,-1.2539979695627474
1234,16.40390106422985,-6.740043248962196,-0.02646766232006948,-1.2727297273211635
1235,16.417194338998268,-6.800684129881638,-0.02689401980341456,-1.293475819240368
1236,16.430487613766687,-6.853858869931135,-0.02734000539548627,-1.3139730567203531
1237,16.443780888535105,-6.880541318118286,-0.02771868261707556,-1.3312081644235128
1238,16.457074163303528,-6.861134759888346,-0.027943793222794538,-1.3421061653355362
1239,16.470367438071946,-6.781549873003993,-0.027952860089283427,-1.344470184986472
1240,16.483660712840365,-6.640325376510561,-0.02773107802583947,-1.338013459428557
1241,16.496953987608787,-6.455129566029346,-0.027330423268366027,-1.3252383968375179
1242,16.510247262377206,-6.266529680340296,-0.026877903140973845,-1.3118716257040823
1243,16.523540537145625,-6.1369923959517845,-0.026567898706537696,-1.3065908160551263
1244,16.536833811914043,-6.1438442520632846,-0.026636326671686552,-1.3198985141622048
1245,16.550127086682465,-6.366341850616736,-0.027318587341976456,-1.362203865516165
1246,16.563420361450884,-6.86879399054446,-0.028798145619877036,-1.4414232921959698
1247,16.576713636219303,-7.683323419523441,-0.031156750883153228,-1.5606312122208363
1248,16.59000691098772,-8.796729743735051,-0.034339091659757535,-1.7163932446942847
1249,16.603300185756144,-10.14552099456165,-0.03814276983202881,-1.8983302635472115
1250,16.616593460524562,-11.62141369884366,-0.042238685219778714,-2.0901849587774977
1251,16.62988673529298,-13.086886855421222,-0.0462187803331796,-2.2722635110483833
1252,16.643180010061403,-14.397574763654497,-0.04966052079260341,-2.424732861554252
1253,16.656473284829822,-15.426359237394681,-0.052193408727320804,-2.531006032979971
1254,16.66976655959824,-16.08362651045176,-0.053553583674715535,-2.580429886656959
1255,16.68305983436666,-16.329363037386326,-0.05361722709706276,-2.569700319775265
1256,16.69635310913508,-16.17508378952381,-0.05240960318343661,-2.5027869089766654
1257,16.7096463839035,-15.676211714109309,-0.050091740203484496,-2.389530476658481
1258,16.72293965867192,-14.91768063188812,-0.04692984993484131,-2.24337204122834
1259,16.736232933440338,-13.996711014209925,-0.04325384395485918,-2.0788135596972355
1260,16.74952620820876,-13.00675436263277,-0.03941156005659019,-1.9091853320511265
1261,16.76281948297718,-12.02567078685083,-0.03572510526798765,-1.7451309581657328
1262,16.776112757745597,-11.109668413593395,-0.032455080334510056,-1.5939777314407704
1263,16.78940603251402,-10.292875483026773,-0.02977717920207455,-1.4599125928282461
1264,16.802699307282438,-9.591096194347632,-0.027773667093630373,-1.3446999862323878
1265,16.815992582050857,-9.007621461241055,-0.02643966950659413,-1.2486000588025779
1266,16.829285856819276,-8.53899250234308,-0.02570145505609003,-1.1711771926075394
1267,16.842579131587698,-8.179198100741564,-0.025441650746450828,-1.1117998092945058
1268,16.855872406356116,-7.921648975910322,-0.025525376303131533,-1.0697756871151152
1269,16.869165681124535,-7.759120408400338,-0.025822084553151214,-1.0441962799881859
1270,16.882458955892954,-7.682456066978926,-0.02622016742154217,-1.03364502883758
1271,16.895752230661376,-7.679060051568335,-0.026634121617111175,-1.035943307011827
1272,16.909045505429795,-7.732070502416327,-0.027006051450492063,-1.0480682265740522
1273,16.922338780198213,-7.820711944652761,-0.02730379886394551,-1.0663002838270963
1274,16.935632054966636,-7.921833406581936,-0.027517197411730216,-1.08657531692643
1275,16.948925329735054,-8.012229867553067,-0.027652746593876346,-1.104952037057539
1276,16.962218604503473,-8.071139219461864,-0.027726431481495457,-1.1180802613510814
1277,16.97551187927189,-8.0823396932666,-0.02775495471413246,-1.1235676706561155
1278,16.988805154040314,-8.035484717384627,-0.027746920181643733,-1.1201824528768158
1279,17.002098428808733,-7.9265869628985435,-0.02769655542273752,-1.1078764902565383
1280,17.01539170357715,-7.757784275255968,-0.02758253511513276,-1.08765208385407
1281,17.02868497834557,-7.536619490599899,-0.027373159241982185,-1.0613172054804243
1282,17.041978253113992,-7.275043057595409,-0.02703702369742122,-1.0311819257247035
1283,17.05527152788241,-6.988254512175864,-0.02655624529509844,-0.9997474456264541
1284,17.06856480265083,-6.693409078049101,-0.02593808559912105,-0.9694322160868752
1285,17.081858077419252,-6.40818594509053,-0.02522094953596256,-0.9423671650782797
1286,17.09515135218767,-6.149260078832815,-0.02447222916786469,-0.9202746191296354
1287,17.10844462695609,-5.930807288077923,-0.023777864602202024,-0.9044263717318193
1288,17.121737901724508,-5.763243391198981,-0.023226031092453272,-0.8956605062845175
1289,17.13503117649293,-5.6524041916656325,-0.022889206163774278,-0.8944281988981629
1290,17.14832445126135,-5.599305878509005,-0.022809423427219366,-0.9008426638251871
1291,17.161617726029768,-5.600517770482951,-0.022990607193763734,-0.9147120363020863
1292,17.174911000798186,-5.64907425980419,-0.023399802525149827,-0.9355532364901326
1293,17.18820427556661,-5.735774074939142,-0.023976540566914343,-0.9625993518820023
1294,17.201497550335027,-5.850661752263681,-0.02464734106323528,-0.9948225903827875
1295,17.214790825103446,-5.984451911885267,-0.025341162884784,-1.0309938952237458
1296,17.228084099871868,-6.129645868206676,-0.026001795095428826,-1.0697878374933352
1297,17.241377374640287,-6.2811146427106355,-0.02659454946192181,-1.1099198903626692
1298,17.254670649408705,-6.435990364810128,-0.027106554415199886,-1.150278612639601
1299,17.267963924177124,-6.59281885874636,-0.027541701330414944,-1.189997859442521
1300,17.281257198945546,-6.750077701559671,-0.02791232603545719,-1.228417286102478
1301,17.294550473713965,-6.904351387766388,-0.028229958548835445,-1.2649132154506317
1302,17.307843748482384,-7.048653915874799,-0.02849727618950936,-1.2986431588674232
1303,17.321137023250802,-7.171539445299873,-0.028703139051900476,-1.3283139797930745
1304,17.334430298019225,-7.257659522325898,-0.028822371491561558,-1.3521219836616996
1305,17.347723572787643,-7.290238849609769,-0.028821517168107123,-1.3679944121651744
1306,17.361016847556062,-7.255529622167284,-0.028670774818786854,-1.3741791787140005
1307,17.374310122324484,-7.1487156723841485,-0.02836062347797303,-1.3701039036123277
1308,17.387603397092903,-6.98008885943045,-0.027919632960819524,-1.3572963274010983
1309,17.40089667186132,-6.779785729015159,-0.027428327624738652,-1.34007028332214
1310,17.41418994662974,-6.599163391929197,-0.02702346318774724,-1.325670103843735
1311,17.427483221398163,-6.507207974248564,-0.026888187308941984,-1.3236497631625572
1312,17.44077649616658,-6.581306579448341,-0.027226390069535367,-1.344435995453322
1313,17.454069770935,-6.893179703689052,-0.028223720521186373,-1.3972544178332955
1314,17.46736304570342,-7.492426174488913,-0.030002298013579266,-1.487825521079723
1315,17.48065632047184,-8.391443725991017,-0.0325796483928298,-1.6163895282368614
1316,17.49394959524026,-9.555894170955263,-0.03584332602772244,-1.7766289060379066
1317,17.507242870008678,-10.904030395438719,-0.03955012396965883,-1.9558929182398472
1318,17.5205361447771,-12.316157924352263,-0.043353029223960844,-2.1368154992455306
1319,17.53382941954552,-13.652810441497337,-0.04685177379867483,-2.3000418284072692
1320,17.547122694313938,-14.777743038160464,-0.04965633992648496,-2.427461836040591
1321,17.560415969082356,-15.580446341751651,-0.05144926731776246,-2.5052010918552443
1322,17.57370924385078,-15.993051648765324,-0.052033202374701076,-2.525694189296958
1323,17.587002518619197,-15.998156993270117,-0.051354532897799114,-2.4884355207733604
1324,17.600295793387616,-15.626656340154172,-0.049500623252772755,-2.399371345763306
1325,17.613589068156035,-14.947226922291819,-0.046674855266079764,-2.2692403372707766
1326,17.626882342924457,-14.050925788217906,-0.04315823162228511,-2.1113822444377335
1327,17.640175617692876,-13.034931700402634,-0.039267490847722,-1.939568445846155
1328,17.653468892461294,-11.98888090138022,-0.0353177256446361,-1.7662849817609716
1329,17.666762167229717,-10.985891918320846,-0.031593798886034294,-1.601687855821943
1330,17.680055441998135,-10.0787984979751,-0.028331186050862656,-1.4532332570553919
1331,17.693348716766554,-9.300773395194174,-0.02570451077112334,-1.3258227873894515
1332,17.706641991534973,-8.668706410509536,-0.023821369586023274,-1.2222243970255668
1333,17.719935266303395,-8.187488366010491,-0.022719714683977797,-1.1435346678870801
1334,17.733228541071814,-7.853687099223978,-0.022368387409233775,-1.089519801144258
1335,17.746521815840232,-7.657799801622517,-0.022671668035155915,-1.0587804912841552
1336,17.75981509060865,-7.585065835415227,-0.023479356049458614,-1.0487911918099413
1337,17.773108365377073,-7.615453978749739,-0.024603510174771283,-1.055930208172113
1338,17.786401640145492,-7.723706193750857,-0.025841428633731733,-1.0756216901672284
1339,17.79969491491391,-7.880182161353275,-0.02700212331461316,-1.1026570544615844
1340,17.812988189682333,-8.052816767300474,-0.027931417864064948,-1.1316792690203594
1341,17.82628146445075,-8.209986984408864,-0.02853007261240647,-1.1577381925419301
1342,17.83957473921917,-8.323699133675177,-0.02876069156133285,-1.1767912194342696
1343,17.85286801398759,-8.372382986167512,-0.02864226693105452,-1.1860416232241826
1344,17.86616128875601,-8.342723359485884,-0.028234851000635625,-1.184063627570622
1345,17.87945456352443,-8.23027570074435,-0.027619557277472107,-1.1707300884412588
1346,17.89274783829285,-8.038954338676527,-0.026879874751591343,-1.1470079124626826
1347,17.906041113061267,-7.779721235086439,-0.026088955714431313,-1.1147022996276503
1348,17.91933438782969,-7.468872803036949,-0.02530476889014232,-1.0762139481172628
1349,17.932627662598108,-7.126236336517629,-0.02457196746892707,-1.0343367315300454
1350,17.945920937366527,-6.77342348030579,-0.023927180104199388,-0.9920860365034716
1351,17.95921421213495,-6.432146096250743,-0.0234038828362177,-0.9525265542264133
1352,17.972507486903368,-6.122552779059064,-0.02303402817343281,-0.9185706986249289
1353,17.985800761671786,-5.8616039629379815,-0.022845565079240005,-0.892741672814121
1354,17.999094036440205,-5.661620984204744,-0.022856986215702313,-0.8769265958009582
1355,18.012387311208627,-5.5292420157754645,-0.023071315948873926,-0.8721702225702065
1356,18.02568058597705,-5.4650320309395015,-0.023472132642181592,-0.8785668919885505
1357,18.038973860745465,-5.46390411870261,-0.02402340472657783,-0.8952927412994517
1358,18.052267135513883,-5.516340521705867,-0.0246735708146653,-0.9207858089633811
1359,18.065560410282306,-5.610207969753329,-0.025362983011422834,-0.9530397734769442
1360,18.078853685050724,-5.73280386987754,-0.02603299137860924,-0.9899427793117921
1361,18.092146959819143,-5.872694260871429,-0.026634709860222094,-1.0295787015198092
1362,18.10544023458756,-6.020931543977344,-0.02713572403271374,-1.070418895826916
1363,18.118733509355984,-6.171364968995418,-0.027523437243374357,-1.1113632467448051
1364,18.1320267841244,-6.319961017284938,-0.02780428801499561,-1.1516301804368378
1365,18.14532005889282,-6.463311164984866,-0.027998786807346816,-1.1905369068671976
1366,18.158613333661243,-6.596787794925028,-0.028133322948420886,-1.2272472655723263
1367,18.171906608429666,-6.713053840713568,-0.028230866747405808,-1.2605894438564593
1368,18.18519988319808,-6.801742224969054,-0.02830361104583105,-1.2890507287200685
1369,18.1984931579665,-6.850994118611347,-0.028350717949882944,-1.3110306097656577
1370,18.21178643273492,-6.851123617899986,-0.028363319544854618,-1.3253708959639103
1371,18.22507970750334,-6.799998681405857,-0.02833682454372704,-1.332088091532621
1372,18.23837298227176,-6.708943724371983,-0.028287863457685705,-1.333130369098444
1373,18.251666257040178,-6.607318339879667,-0.028270624480780722,-1.332902527047893
1374,18.2649595318086,-6.543687224634396,-0.028385833352470084,-1.3382846224234795
1375,18.27825280657702,-6.581900395411221,-0.028776113752857546,-1.3579421101032414
1376,18.29154608134544,-6.791525068026437,-0.029604406333077933,-1.4008919744603217
1377,18.30483935611386,-7.233728016954212,-0.03101716468923896,-1.4745191162497318
1378,18.31813263088228,-7.9454372303569825,-0.033099832909548356,-1.582462657564352
1379,18.331425905650697,-8.925786462340724,-0.03583658432073041,-1.7229276776527083
1380,18.34471918041912,-10.128910906434644,-0.03908740329328355,-1.887954845620561
1381,18.358012455187534,-11.465899662722796,-0.04259217494653561,-2.0639793803932487
1382,18.37130572995596,-12.816396122749133,-0.04600407262716491,-2.2336797914579054
1383,18.38459900472437,-14.047681136052187,-0.048945623186714596,-2.3787586633274898
1384,18.397892279492797,-15.036956949309422,-0.05107380230491449,-2.4830311901563946
1385,18.411185554261216,-15.69167214111196,-0.05213814311074841,-2.5351103244451387
1386,18.424478829029635,-15.963340288254004,-0.052018821577720746,-2.5300947022609264
1387,18.437772103798054,-15.85214941468621,-0.050738344070509395,-2.469942601927492
1388,18.45106537856648,-15.40210978667554,-0.04844786569712707,-2.3625600409093623
1389,18.46435865333489,-14.688796584421775,-0.04539472115001356,-2.219938478654169
1390,18.477651928103317,-13.803278517533382,-0.04188024759345747,-2.0558629296153605
1391,18.49094520287173,-12.83623563233859,-0.03821661906288958,-1.883735016349131
1392,18.504238477640158,-11.865576975009676,-0.03468922420987299,-1.7149323743179685
1393,18.517531752408573,-10.949422292385535,-0.03152838189354072,-1.5579155374346687
1394,18.53082502717699,-10.124645056562837,-0.02889194530987213,-1.4180736854186993
1395,18.54411830194541,-9.40979274492637,-0.026859005223638342,-1.298134987340289
1396,18.557411576713832,-8.810418941884976,-0.02543415321463387,-1.19888529064952
1397,18.57070485148225,-8.324754567291427,-0.024560965528299214,-1.1199370987410922
1398,18.58399812625067,-7.948095363889758,-0.02414216416010554,-1.0603473101281473
1399,18.59729140101909,-7.675063540062235,-0.0240625746021361,-1.0189711045997674
1400,18.61058467578751,-7.499749308296766,-0.024210236090365073,-0.9945366399538679
1401,18.62387795055593,-7.414411750225373,-0.024491457987259112,-0.9855092828098776
1402,18.637171225324348,-7.407756062448464,-0.024837361169159734,-0.9898669699354017
1403,18.65046450009277,-7.463763221535805,-0.02520198692643907,-1.004919693959549
1404,18.66375777486119,-7.561707246779,-0.025554522638724802,-1.027277389485921
1405,18.677051049629608,-7.677513877034639,-0.025869731166856133,-1.0530144956719896
1406,18.690344324398023,-7.786167072159809,-0.026120772149541935,-1.0780154393635515
1407,18.70363759916645,-7.864585323944756,-0.026277261716342114,-1.098432030373309
1408,18.716930873934867,-7.89431915483992,-0.026309120052501123,-1.1111543944602718
1409,18.73022414870329,-7.863538507020737,-0.026194340045279863,-1.114196332685177
1410,18.743517423471708,-7.7680084725720455,-0.025927189778939968,-1.1069199537644843
1411,18.756810698240127,-7.611005004089506,-0.02552318541939521,-1.0900626857301157
1412,18.770103973008545,-7.402326574555742,-0.025018521729552823,-1.065570097658444
1413,18.783397247776964,-7.156675045004793,-0.024463944560906243,-1.0362712186293392
1414,18.796690522545383,-6.891708560210585,-0.023915264664822806,-1.0054553555718235
1415,18.809983797313805,-6.626037593631597,-0.023423853965941297,-0.9764205548095963
1416,18.823277072082224,-6.377376520620553,-0.023030089328893208,-0.952064260641805
1417,18.83657034685064,-6.161001218106255,-0.022761124311643757,-0.9345761964671041
1418,18.849863621619065,-5.988606056454766,-0.02263241171155656,-0.9252723279305003
1419,18.863156896387483,-5.867601787429693,-0.022650961008258638,-0.924579842250095
1420,18.876450171155906,-5.800853685269557,-0.022817960224472723,-0.9321527187067877
1421,18.889743445924324,-5.7868350732605105,-0.023129198157974058,-0.9470739132007393
1422,18.903036720692743,-5.8201657534143525,-0.023573279555886218,-0.9680902703910491
1423,18.91632999546116,-5.892502971414726,-0.024129169495585877,-0.9938321447149621
1424,18.92962327022958,-5.99373126454686,-0.02476533207983642,-1.022987372753045
1425,18.942916544998003,-6.113344274462033,-0.025442212478082198,-1.054420008364076
1426,18.95620981976642,-6.241837242727686,-0.026118250851666892,-1.0872385377720968
1427,18.96950309453484,-6.371863201061817,-0.0267577554781439,-1.1208204094532062
1428,18.98279636930326,-6.498882545903987,-0.0273377102758998,-1.1547913706667277
1429,18.99608964407168,-6.621081426540893,-0.027850592363063004,-1.1889485963823905
1430,19.0093829188401,-6.738464130939845,-0.0283016230208614,-1.2231180839909883
1431,19.02267619360852,-6.851234722249245,-0.02870107468448616,-1.2569564692208683
1432,19.03596946837694,-6.957839135279633,-0.029054419798531537,-1.2897413594030032
1433,19.04926274314536,-7.053270710784179,-0.0293543194733218,-1.3202275937490482
1434,19.062556017913774,-7.128360247129436,-0.02957816003221774,-1.346660929090376
1435,19.0758492926822,-7.1706997496636955,-0.029693121126368762,-1.367022746990463
1436,19.08914256745062,-7.167552458496507,-0.02966826036708444,-1.379528081658477
1437,19.10243584221904,-7.110599900436267,-0.029490755810835642,-1.3833239656021896
1438,19.115729116987456,-7.0017467218507194,-0.029182013465584373,-1.3792524809541409
1439,19.129022391755875,-6.8585846827907275,-0.02880911155579673,-1.370474432667049
1440,19.142315666524297,-6.717705000690532,-0.0284878551645726,-1.3627194454813891
1441,19.15560894129272,-6.6340614403778195,-0.028375177206941903,-1.3639586339574594
1442,19.16890221606113,-6.675185436802696,-0.028650405933486056,-1.3833978063614076
1443,19.18219549082956,-6.910242625914095,-0.029486855218851842,-1.4298531833402945
