,time,Red,Green,Blue
0,0.0,-2.530407509809378,-0.05843603383264121,-0.9311762919512647
1,0.013293047815397,-2.5907292746296964,-0.057939116030383694,-0.9060222992735775
2,0.0265860956307941,-2.6479282409272136,-0.05727053493286108,-0.8812947629310407
3,0.0398791434461911,-2.6995168850861075,-0.056301278815658586,-0.8574146518275597
4,0.0531721912615882,-2.7439163310530117,-0.05498067526576897,-0.8347933555312427
5,0.0664652390769852,-2.7806838194340497,-0.053345322469944695,-0.813810768799229
6,0.0797582868923823,-2.8105049226861696,-0.05150405967001551,-0.7947830776899135
7,0.0930513347077794,-2.8349613544806513,-0.04960508605236894,-0.7779175715713302
8,0.1063443825231764,-2.8561367517395273,-0.04779611364181301,-0.7632601176022127
9,0.1196374303385735,-2.8761577494886623,-0.04618951865949901,-0.7506510927037956
10,0.1329304781539705,-2.8967780651683888,-0.044841940765549024,-0.7397108284861436
11,0.1462235259693676,-2.919095821872195,-0.04375264677297487,-0.7298715326714386
12,0.1595165737847647,-2.9434518665234393,-0.042878778653384554,-0.7204598450132527
13,0.1728096216001617,-2.9695013639480403,-0.042160261029170545,-0.7108178111616352
14,0.1861026694155588,-2.9964025932136025,-0.04154449324342854,-0.7004366300799664
15,0.1993957172309558,-3.0230454221005685,-0.04100202098995038,-0.6890714983142833
16,0.2126887650463529,-3.0482551561573556,-0.04052872851677574,-0.6768081041609839
17,0.2259818128617499,-3.0709457922894394,-0.04013582306567569,-0.6640602313646458
18,0.239274860677147,-3.090239098661408,-0.039833531126631565,-0.6514916908989988
19,0.252567908492544,-3.105591652288159,-0.03961617818360676,-0.6398730589641132
20,0.2658609563079411,-3.1169692362443406,-0.03945482555573608,-0.6299019871518661
21,0.2791540041233382,-3.125075830255871,-0.03929994138128158,-0.6220298765407659
22,0.2924470519387352,-3.1315907780430865,-0.03909243121647219,-0.6163405526412193
23,0.3057400997541323,-3.139308255356656,-0.03877834340608465,-0.6125140809020417
24,0.3190331475695294,-3.1520303277215245,-0.038321603916537744,-0.6098839184189605
25,0.3323261953849264,-3.1740639781343067,-0.037710312697881235,-0.6075682750891334
26,0.3456192432003235,-3.209233412430345,-0.03695487292091847,-0.6046389822484366
27,0.3589122910157205,-3.2594459482484375,-0.03607956038800424,-0.600290427029301
28,0.3722053388311176,-3.323023408882449,-0.03511199828336546,-0.5939850975921078
29,0.3854983866465146,-3.393186181277591,-0.03407644356745676,-0.5855711037716925
30,0.3987914344619117,-3.4571905030170966,-0.03299621780379265,-0.5753788092924
31,0.4120844822773087,-3.4966065125261405,-0.0319079273142319,-0.5643012741357606
32,0.4253775300927058,-3.489044862450561,-0.03088580818122946,-0.553848196790878
33,0.4386705779081029,-3.411303260595658,-0.030069679479366927,-0.5461451861501764
34,0.4519636257234999,-3.2434850314701853,-0.02968609373086274,-0.5438419126764691
35,0.465256673538897,-2.9732662895804656,-0.030050900446421298,-0.5499020249900278
36,0.4785497213542941,-2.5992965144861127,-0.03154368239891352,-0.5672738547036056
37,0.4918427691696911,-2.13280618069681,-0.0345504404056522,-0.5984750862318914
38,0.5051358169850881,-1.5968719676760244,-0.03937928693929947,-0.6451553346040638
39,0.5184288648004852,-1.023362367482204,-0.04616277007371343,-0.7077196736656639
40,0.5317219126158823,-0.44818922039647674,-0.054767569327681974,-0.7850992596774682
41,0.5450149604312794,0.09406253667374913,-0.06473542595714746,-0.8747386344940403
42,0.5583080082466764,0.5749049110170491,-0.07527671408187739,-0.9728313079170628
43,0.5716010560620735,0.9750828341535183,-0.0853300787693187,-1.0747818998651935
44,0.5848941038774705,1.285502495158615,-0.09368931540015142,-1.1758185817129976
45,0.5981871516928675,1.5059704262065186,-0.099183683218873,-1.27163932960525
46,0.6114801995082646,1.6423119921960985,-0.10088236136378724,-1.358961022899014
47,0.6247732473236617,1.702791725518647,-0.09828153800072847,-1.4358566434061786
48,0.6380662951390588,1.6948345245507195,-0.0914286675644069,-1.5018102810854022
49,0.6513593429544557,1.6228639973283898,-0.08094710252530421,-1.5574828372680087
50,0.6646523907698528,1.4877218159155972,-0.06794655496900617,-1.6042488630750302
51,0.6779454385852499,1.2877151426676678,-0.0538358891372745,-1.6436208525491116
52,0.691238486400647,1.02094036791246,-0.04008421111204415,-1.6767069554975682
53,0.704531534216044,0.6882122449918953,-0.027991952472928957,-1.7038411974015633
54,0.7178245820314411,0.2957491455140524,-0.018527946098538844,-1.72447962105025
55,0.7311176298468381,-0.14321333992324434,-0.012262951227832516,-1.7373811294738664
56,0.7444106776622352,-0.6084625438609256,-0.009395399530843097,-1.741010454601601
57,0.7577037254776322,-1.0746594987146159,-0.00983582293294605,-1.7340399344760435
58,0.7709967732930293,-1.514666969920069,-0.013303838596144615,-1.7158065848723736
59,0.7842898211084264,-1.9036117101192769,-0.019399132843472333,-1.6866045220082453
60,0.7975828689238235,-2.2227313431443294,-0.027630353260649488,-1.6477471059633435
61,0.8108759167392204,-2.462110079564692,-0.03741206699112679,-1.601397692059785
62,0.8241689645546175,-2.6216990139942475,-0.048057898975397806,-1.5502242144851557
63,0.8374620123700146,-2.7104563246254822,-0.05879982128164881,-1.4969694699214238
64,0.8507550601854117,-2.7439039794669977,-0.06884928891010482,-1.444040920755349
65,0.8640481080008087,-2.7407543310107565,-0.07749323700225337,-1.3932107948051002
66,0.8773411558162058,-2.7194204105001387,-0.08419841410395006,-1.3454831457859076
67,0.8906342036316028,-2.695156789554506,-0.08869044545843831,-1.301138061656513
68,0.903927251447,-2.678323983456546,-0.09098185610195193,-1.2599171585274447
69,0.9172202992623968,-2.67392558747006,-0.09134115691606252,-1.221282364968127
70,0.930513347077794,-2.682247670797639,-0.09021433016973182,-1.1846709050313662
71,0.9438063948931912,-2.700219716610154,-0.08812296112140741,-1.149684131445136
72,0.9570994427085882,-2.7230465642524133,-0.0855662805131053,-1.116178580586833
73,0.9703924905239852,-2.7457130464732096,-0.08294843210279916,-1.0842614725174848
74,0.9836855383393822,-2.7640929583013523,-0.08054122041755092,-1.0542178660915322
75,0.9969785861547792,-2.775552487380123,-0.0784811226888784,-1.0264065536053455
76,1.0102716339701765,-2.7790819285582495,-0.0767912234192009,-1.0011575671784523
77,1.0235646817855737,-2.775086210230321,-0.0754156620085512,-0.978692004728546
78,1.0368577296009704,-2.764999538710364,-0.07425561303227536,-0.959071993168358
79,1.0501507774163674,-2.7508686085875627,-0.07319966377245067,-0.9421798707129321
80,1.0634438252317646,-2.734995357457868,-0.07214545065261982,-0.9277222055010667
81,1.0767368730471616,-2.7196716124090106,-0.07101222991876556,-0.9152541668113402
82,1.0900299208625588,-2.706994389946385,-0.06974555636608594,-0.9042202716777666
83,1.1033229686779558,-2.6987309772443986,-0.0683159973921868,-0.8940072185779613
84,1.1166160164933527,-2.6962070201183703,-0.06671434351391087,-0.8840038443373092
85,1.12990906430875,-2.700211881826661,-0.06494610781409371,-0.8736631117126193
86,1.143202112124147,-2.7109411083318316,-0.06302782092925707,-0.8625611681486494
87,1.156495159939544,-2.728010660727511,-0.060986389078203695,-0.8504475820376703
88,1.169788207754941,-2.750570363706302,-0.05886084058748468,-0.8372783603272896
89,1.183081255570338,-2.777514642090042,-0.05670401638905885,-0.8232210581178903
90,1.196374303385735,-2.8077491991064507,-0.054581156542429295,-0.8086225346872583
91,1.2096673512011322,-2.8404407819565223,-0.05256335938728863,-0.7939370571846396
92,1.2229603990165292,-2.8751686265751557,-0.05071616137448673,-0.7796245962214121
93,1.2362534468319264,-2.911917220162724,-0.049085990797139364,-0.7660417745737432
94,1.2495464946473234,-2.9508972056105702,-0.04768886420184515,-0.7533548532905978
95,1.2628395424627203,-2.992241125797402,-0.046505671663927564,-0.7415007968773109
96,1.2761325902781175,-3.035672486645398,-0.04548661271605197,-0.7302086978157645
97,1.2894256380935143,-3.0802695611302884,-0.044564333017165676,-0.7190746855994989
98,1.3027186859089115,-3.124428711790527,-0.04367214011632073,-0.7076669200048247
99,1.316011733724309,-3.166080652177459,-0.042761623682977715,-0.6956301108574764
100,1.3293047815397057,-3.2031439577951692,-0.04181403310330597,-0.6827629632032272
101,1.3425978293551029,-3.2341324164524146,-0.04084198751095254,-0.6690533134552444
102,1.3558908771704998,-3.258779499591475,-0.03988159877358612,-0.6546683458592073
103,1.3691839249858968,-3.2785102666625603,-0.03897832471525392,-0.6399065350541949
104,1.382476972801294,-3.2965824586941266,-0.03817144630776148,-0.6251228664843579
105,1.395770020616691,-3.31774187322107,-0.03748151056151124,-0.6106414143637222
106,1.409063068432088,-3.347302704654369,-0.036903091338027286,-0.596672064121479
107,1.4223561162474851,-3.3896773917792555,-0.036403172648134634,-0.5832519076516836
108,1.435649164062882,-3.4465344595689076,-0.03592454176388258,-0.5702347699385348
109,1.448942211878279,-3.5149281570417856,-0.035394074249125294,-0.5573505586958366
110,1.4622352596936763,-3.5858727676620386,-0.03473694657537101,-0.5443457851837773
111,1.4755283075090733,-3.643871733396198,-0.03389830921247385,-0.5311964149420709
112,1.4888213553244705,-3.667811921140946,-0.03287266212954284,-0.5183573863869783
113,1.5021144031398674,-3.6333825083770015,-0.03173777649583877,-0.5069873936616482
114,1.5154074509552644,-3.516810222628944,-0.030685286719425987,-0.4990729732164577
115,1.5287004987706616,-3.2993043316279884,-0.03003583079203751,-0.4973815183265999
116,1.5419935465860586,-2.9712978686455545,-0.03022516425861665,-0.5052025535990088
117,1.5552865944014558,-2.535475525606359,-0.031751009017651446,-0.5258867436734196
118,1.5685796422168528,-2.007760863150227,-0.03507916942134223,-0.5622510761805359
119,1.5818726900322495,-1.415873748964033,-0.04052021286303637,-0.615969523463072
120,1.595165737847647,-0.7956490020502798,-0.048101290613647624,-0.6870937537955843
121,1.608458785663044,-0.18586113940551083,-0.057466929113664,-0.7738357299093931
122,1.6217518334784409,0.37733400427540426,-0.0678437448510763,-0.8726912038986376
123,1.635044881293838,0.8651554550665099,-0.07809473516087359,-0.9789012486692933
124,1.648337929109235,1.259198364955938,-0.086869553852034,-1.0871607109008394
125,1.661630976924632,1.5521928534489493,-0.09283169950888814,-1.1924154332256445
126,1.6749240247400292,1.7465888351643173,-0.09491844336752392,-1.2905668465825983
127,1.6882170725554262,1.8515223200911735,-0.09257269080620162,-1.3789311941533826
128,1.7015101203708234,1.8790196084202262,-0.08588487984085394,-1.456370663509768
129,1.7148031681862204,1.8403715918660517,-0.07560075105374214,-1.5231000808963906
130,1.7280962160016171,1.7434891798808956,-0.06298475728840279,-1.5802477442923206
131,1.7413892638170143,1.591786220605314,-0.04956998700579486,-1.629294220132333
132,1.7546823116324115,1.384777266750154,-0.03686024644988723,-1.6715248086370385
133,1.7679753594478085,1.1201742562136825,-0.026065075401737737,-1.7076156769610729
134,1.7812684072632057,0.796890786499158,-0.017936850521775422,-1.7374371718899053
135,1.7945614550786029,0.41810911752533747,-0.012743984394846015,-1.7601056202871634
136,1.807854502894,-0.006483638679744316,-0.010368481570864271,-1.7742547517201381
137,1.8211475507093968,-0.45999661849014445,-0.010476924974663168,-1.7784440768143377
138,1.8344405985247936,-0.9194973381104521,-0.012695438987211781,-1.7715911522634797
139,1.847733646340191,-1.3588785724094816,-0.01672689354356978,-1.753317707005155
140,1.861026694155588,-1.752821933870431,-0.022378042254706305,-1.7241327760150909
141,1.874319741970985,-2.080945672861853,-0.029503056567377357,-1.6854250281978802
142,1.887612789786382,-2.3311511328203176,-0.0379027977605697,-1.639284328088123
143,1.9009058376017791,-2.501367717492694,-0.047233923466411906,-1.5882066151983198
144,1.9141988854171763,-2.5992980583667413,-0.05697395567476102,-1.5347512434090904
145,1.9274919332325733,-2.6402750303693785,-0.06646241909830658,-1.4812177300197693
146,1.9407849810479705,-2.6438118502698496,-0.0750058797421231,-1.4293953832201007
147,1.9540780288633677,-2.629715523740747,-0.08200980446183413,-1.3804209510744054
148,1.9673710766787644,-2.614664357354805,-0.08709202164518075,-1.3347600828907151
149,1.9806641244941612,-2.609935916089793,-0.09014251528429836,-1.29230860726296
150,1.9939571723095584,-2.6206049919023835,-0.09131593639074702,-1.2525888915528018
151,2.007250220124956,-2.646136674449835,-0.09096644914223212,-1.2149962627279798
152,2.0205432679403525,-2.68198664214714,-0.08955051887746589,-1.1790356403725852
153,2.033836315755749,-2.7216556693823946,-0.08752781359289667,-1.144486623812238
154,2.047129363571147,-2.7586459474621283,-0.08528452392802431,-1.1114521707686624
155,2.060422411386544,-2.78790689837166,-0.08309155437312352,-1.0802807807113146
156,2.073715459201941,-2.8065769505585165,-0.08109754425627669,-1.0513943201239762
157,2.087008507017338,-2.8140487350293872,-0.07934766626629486,-1.025086600897769
158,2.100301554832735,-2.8115432560690388,-0.07781544497439243,-1.0013670693124217
159,2.1135946026481323,-2.801442930207453,-0.07643593987826404,-0.979905413939905
160,2.126887650463529,-2.786611974176119,-0.07513255204167611,-0.9600948970234334
161,2.140180698278926,-2.7698583967324524,-0.07383418762571417,-0.94121040033872
162,2.153473746094323,-2.7536028058250968,-0.07248306497232238,-0.9226066680937552
163,2.16676679390972,-2.73974476494689,-0.071035663239295,-0.9038920642994864
164,2.1800598417251176,-2.7296732623570326,-0.06946035163969491,-0.8850246429635386
165,2.1933528895405145,-2.724355980925839,-0.06773523184809022,-0.8663048921908821
166,2.2066459373559115,-2.724453349324676,-0.06584858803960783,-0.8482728939583588
167,2.2199389851713085,-2.7304234434927857,-0.06380220729598333,-0.8315453735514196
168,2.233232032986705,-2.7426008144612393,-0.06161551407991935,-0.8166418225189327
169,2.2465250808021024,-2.7612419284655143,-0.05932723717418896,-0.8038462108894486
170,2.2598181286175,-2.786534390423131,-0.056992095788700264,-0.7931351977175904
171,2.273111176432897,-2.818570387940224,-0.054672468539865716,-0.7841818798308409
172,2.286404224248294,-2.857288729939548,-0.05242775538166712,-0.776423290157087
173,2.299697272063691,-2.9023944938690254,-0.050305500250309367,-0.7691662399811698
174,2.312990319879088,-2.95327037973101,-0.04833754017485527,-0.7617030173112486
175,2.326283367694485,-3.008898817101415,-0.046542023036629965,-0.7534146882214758
176,2.339576415509882,-3.067816895790583,-0.044929462178868736,-0.7438497510084829
177,2.352869463325279,-3.1281253063474144,-0.04350939437681383,-0.7327732286759678
178,2.366162511140676,-3.1875680713477372,-0.04229429589937899,-0.720183290548162
179,2.379455558956073,-3.2436949284184444,-0.041298946564963045,-0.7062919999824521
180,2.39274860677147,-3.2941144037310113,-0.04053557365913347,-0.6914690306329642
181,2.4060416545868675,-3.336838757312604,-0.04000688069851246,-0.6761546902981272
182,2.4193347024022644,-3.370703394771001,-0.039699788677607,-0.6607586167692441
183,2.4326277502176614,-3.395807116570506,-0.03958222609236343,-0.6455671881865036
184,2.4459207980330584,-3.4138701721623543,-0.039603929692661036,-0.6306815052958348
185,2.459213845848456,-3.4283608535598065,-0.03970059589025046,-0.6159988665823581
186,2.472506893663853,-3.4442214704207346,-0.0397995446742336,-0.6012386352051703
187,2.4857999414792498,-3.4670534835602513,-0.039824842890789275,-0.5860044995613161
188,2.4990929892946467,-3.5017143520817893,-0.03970076236243821,-0.5698732098726723
189,2.512386037110044,-3.550435890055489,-0.039354270179993024,-0.5525040077805555
190,2.5256790849254407,-3.6107735656983433,-0.03871926932523126,-0.5337679586930386
191,2.538972132740838,-3.6738875438914147,-0.03774651044334276,-0.5138958710667659
192,2.552265180556235,-3.723764910012178,-0.03642246789562478,-0.49363380001182183
193,2.565558228371632,-3.737941503674567,-0.03479749552985656,-0.47437809100928596
194,2.578851276187029,-3.690025886806293,-0.03301864441803858,-0.4582448895095243
195,2.592144324002426,-3.5538869458012865,-0.03135704827092446,-0.4480221025111914
196,2.605437371817823,-3.308840685635057,-0.030215898798794667,-0.44696304420398575
197,2.6187304196332204,-2.944725617437355,-0.030104999754431382,-0.45841234101842276
198,2.6320234674486174,-2.4655684734202086,-0.031573267427072206,-0.485300252603202
199,2.6453165152640143,-1.890733058796382,-0.035101318771116816,-0.5295891582731584
200,2.6586095630794118,-1.2530119372415063,-0.04097025711529968,-0.5917902235523805
201,2.6719026108948083,-0.5939158265900656,-0.04913573518368814,-0.6706748659036788
202,2.6851956587102057,0.04281144785539506,-0.05914334018620747,-0.7632761908503817
203,2.6984887065256027,0.6179348102312869,-0.07011833283287566,-0.8652127025558722
204,2.711781754341,1.102169394182164,-0.08084864518167204,-0.9712862957240485
205,2.7250748021563966,1.4791784905342826,-0.0899575053194736,-1.0762342284274713
206,2.7383678499717936,1.7456924527324795,-0.09613722676965647,-1.1754751071560827
207,2.7516608977871906,1.909064533476022,-0.09839612311916957,-1.2656943753425762
208,2.764953945602588,1.9831476133525368,-0.09626241840212042,-1.3451601236854402
209,2.778246993417985,1.9836400617777796,-0.08989524518998612,-1.4137262325322177
210,2.791540041233382,1.9240103471996635,-0.0800721918061951,-1.4725453585837205
211,2.804833089048779,1.8128436378120591,-0.0680509113766588,-1.5235655935192154
212,2.818126136864176,1.6530534724722081,-0.05533243272040951,-1.5689186714383467
213,2.8314191846795733,1.442954946504597,-0.04337855219728938,-1.6103252727917425
214,2.8447122324949703,1.1787835661255657,-0.033348250429754665,-1.6486416775677906
215,2.8580052803103677,0.857939793884507,-0.02591420858373943,-1.683645684456973
216,2.871298328125764,0.48209852519191426,-0.02120020984900691,-1.71410636830572
217,2.884591375941161,0.05937016400444032,-0.018848579681233383,-1.7381114497477015
218,2.897884423756558,-0.3950726186497134,-0.018192913701495946,-1.7535586099988796
219,2.911177471571956,-0.8601215104544278,-0.018485201857461057,-1.758676460062861
220,2.9244705193873526,-1.311399775622496,-0.01911538033855924,-1.7524417511990829
221,2.9377635672027496,-1.7248645142592496,-0.019767467051277472,-1.7348003666207326
222,2.9510566150181465,-2.080495908552335,-0.02047669087365746,-1.706663891681854
223,2.9643496628335435,-2.365211876689446,-0.021579949524710117,-1.6697171204795291
224,2.977642710648941,-2.574371462276243,-0.023580002444810743,-1.6261141762375344
225,2.990935758464338,-2.711622200011883,-0.026965235143631795,-1.5781524620160425
226,3.004228806279735,-2.787277127960014,-0.03203667405935894,-1.5279973349733385
227,3.017521854095132,-2.815741204427391,-0.038789870708159625,-1.4774978689192235
228,3.030814901910529,-2.8126566517466043,-0.046882324182154274,-1.4280996920982605
229,3.0441079497259262,-2.7923890780777296,-0.055691912045109836,-1.3808359627004263
230,3.057400997541323,-2.7662830692510485,-0.06444584476346259,-1.3363668366519974
231,3.07069404535672,-2.7418593512002603,-0.0723810764890551,-1.2950394761564192
232,3.083987093172117,-2.722883545761108,-0.07889159123093657,-1.2569492699753504
233,3.097280140987514,-2.7100649741697986,-0.0836264152137662,-1.2219930299767894
234,3.110573188802912,-2.7020716335889894,-0.08652039107548536,-1.1899132009927733
235,3.1238662366183085,-2.6965731201611773,-0.08776050542435648,-1.1603374275467195
236,3.137159284433705,-2.691115872056746,-0.08770689429085837,-1.1328200395857018
237,3.1504523322491025,-2.6837455366123035,-0.08679535008668543,-1.106891186455599
238,3.1637453800644995,-2.6733756676635805,-0.08544676627928594,-1.082115519443166
239,3.1770384278798964,-2.6599420855819975,-0.08400110852462654,-1.0581559161728518
240,3.190331475695294,-2.6443872082486335,-0.08268321624038423,-1.034830159814007
241,3.203624523510691,-2.6285094151215698,-0.0815986345464927,-1.0121427153181166
242,3.216917571326088,-2.6147052654972804,-0.08075180981952183,-0.990273940977366
243,3.2302106191414848,-2.605633705469076,-0.0800766897918016,-0.969518336183753
244,3.2435036669568817,-2.6038414891045516,-0.07947029090167737,-0.9501806836472555
245,3.256796714772279,-2.6114037139148305,-0.0788220623553441,-0.9324576661791713
246,3.270089762587676,-2.6296430957391466,-0.07803494078288092,-0.9163432668111173
247,3.283382810403073,-2.658984533350309,-0.07703705258017055,-0.9015919220435737
248,3.29667585821847,-2.698972428251164,-0.07578538535410748,-0.8877539238183683
249,3.309968906033867,-2.7484352590747885,-0.07426395166192426,-0.8742707292685586
250,3.323261953849264,-2.805742701146073,-0.07247899112877887,-0.8605956210822711
251,3.336555001664661,-2.869080700161689,-0.07045305384250364,-0.8462975788441789
252,3.3498480494800584,-2.9366743196878096,-0.06821903220111815,-0.8311160998704785
253,3.3631410972954554,-3.0069119465670666,-0.06581481902407148,-0.8149565998518444
254,3.3764341451108524,-3.0783585222598524,-0.06327926979852001,-0.7978397075446685
255,3.3897271929262494,-3.1496804024554725,-0.06065014884704929,-0.7798336412836071
256,3.4030202407416468,-3.2195307655651066,-0.05796434990339485,-0.7610018643165006
257,3.416313288557044,-3.286454309446976,-0.055259915959502234,-0.7413888466828754
258,3.4296063363724407,-3.348861220888551,-0.05257870091642889,-0.7210496046976065
259,3.4428993841878377,-3.4050990650185216,-0.0499683895198408,-0.7001099416513594
260,3.4561924320032347,-3.453627361181284,-0.04748302186814011,-0.6788296924152474
261,3.469485479818632,-3.4932797296852156,-0.04518166402738743,-0.6576351988583413
262,3.482778527634029,-3.5235817790491755,-0.043124954835867785,-0.6370926785310248
263,3.496071575449426,-3.5450742234437276,-0.04136901189561423,-0.6178116759283389
264,3.509364623264823,-3.55956690769821,-0.039956204124693355,-0.6002937021858386
265,3.52265767108022,-3.5702233486252433,-0.03890317318327597,-0.5847667418558513
266,3.535950718895617,-3.5813567407708886,-0.0381881611608815,-0.5710605377949592
267,3.5492437667110144,-3.5978228899576985,-0.0377414101490402,-0.558572927627131
268,3.562536814526412,-3.6239425764223165,-0.037443154496732335,-0.546354693837077
269,3.5758298623418083,-3.6619904259922738,-0.037132965309048235,-0.5333081972511629
270,3.5891229101572053,-3.7104462585256566,-0.03663207525464994,-0.5184652876718457
271,3.6024159579726023,-3.76238413722863,-0.03577747013668915,-0.5012912586019403
272,3.615709005788,-3.80450967270776,-0.03446372663673677,-0.4819563462774558
273,3.6290020536033967,-3.8173717312058986,-0.03268627887107134,-0.46152177157319957
274,3.6422951014187936,-3.777114895875945,-0.03057810941180832,-0.4419991479635777
275,3.655588149234191,-3.658799994336669,-0.028430706332324068,-0.4262571931617003
276,3.668881197049588,-3.44086790828503,-0.026689703005716717,-0.4177678639038122
277,3.682174244864985,-3.1098869640999633,-0.02591677822110731,-0.4202069268218545
278,3.695467292680382,-2.6644653264104847,-0.026713487568871503,-0.43695214767443497
279,3.708760340495779,-2.1172550257646834,-0.029610631106658798,-0.4705520061171388
280,3.722053388311176,-1.4943590130412148,-0.034937802031640174,-0.5222601615916616
281,3.735346436126573,-0.8320878892387452,-0.04269896983693115,-0.5917344565967823
282,3.74863948394197,-0.17170642279971798,-0.05248689239343305,-0.6769761998271658
283,3.7619325317573673,0.4466632915150403,-0.06346766301283956,-0.774537313044193
284,3.775225579572764,0.9896240806605024,-0.0744549198390321,-0.8799623447554179
285,3.788518627388161,1.434404863448542,-0.08407291749045555,-0.9883789460094562
286,3.8018116752035582,1.770400527013546,-0.09098399330113302,-1.0951217040989616
287,3.815104723018955,1.9982762463959705,-0.09413594619471939,-1.1962770666635856
288,3.8283977708343526,2.1271070233728833,-0.09297476642481106,-1.289064822027497
289,3.8416908186497496,2.1703892256877517,-0.08757150325047329,-1.372009479358726
290,3.8549838664651466,2.141908982778391,-0.07862872003956153,-1.4448901016515336
291,3.868276914280544,2.0523947500697886,-0.06735853381382625,-1.5084861574055726
292,3.881569962095941,1.9076497056671846,-0.05525470455249958,-1.5641643078748535
293,3.8948630099113375,1.7084980735253357,-0.043808116821148727,-1.6133806533235782
294,3.908156057726735,1.452454095659815,-0.03423071145666318,-1.6571998434545177
295,3.921449105542132,1.1366194020914653,-0.0272520619956833,-1.6959426910455042
296,3.934742153357529,0.7610204588565531,-0.02303447394747669,-1.729053606157952
297,3.948035201172926,0.33147829402357437,-0.021221556657806773,-1.7552256618393836
298,3.961328248988323,-0.13880776707062162,-0.02110094103646067,-1.7727483412999185
299,3.97462129680372,-0.6294853803698168,-0.021834323683312173,-1.7799768877476974
300,3.987914344619117,-1.115157274722334,-0.022694442061853178,-1.7757884134942132
301,4.001207392434514,-1.5689485892314785,-0.023251040449841092,-1.7599013324250528
302,4.014500440249911,-1.9667060799282408,-0.02346391894855128,-1.732985073436367
303,4.027793488065308,-2.290822314527068,-0.023665637963143908,-1.6965551245571808
304,4.041086535880705,-2.532786619079521,-0.024443456277520956,-1.6527086769321127
305,4.054379583696102,-2.693924704109968,-0.02645399192653909,-1.6037896754655645
306,4.067672631511499,-2.7842748473035153,-0.030220008464340163,-1.5520729326310607
307,4.080965679326897,-2.8199996332033073,-0.03596283754940813,-1.499531692933567
308,4.094258727142294,-2.820021303145879,-0.043514423083644206,-1.447715781871838
309,4.107551774957691,-2.802645409830287,-0.0523312331276852,-1.3977328008878915
310,4.120844822773088,-2.7828265666583003,-0.06160378086987922,-1.3503019022325684
311,4.134137870588485,-2.770497812634372,-0.07042883471707863,-1.3058406498013557
312,4.147430918403882,-2.7701045420999697,-0.0779954168410476,-1.2645481618418906
313,4.160723966219279,-2.7812193972680093,-0.08373557943631602,-1.2264592762918407
314,4.174017014034676,-2.7999184226421208,-0.08740575898748765,-1.1914623365909907
315,4.187310061850073,-2.820505617893867,-0.08908775524280425,-1.1592931927116812
316,4.20060310966547,-2.837188649609658,-0.08912132154484816,-1.129532883557904
317,4.213896157480867,-2.845407187649249,-0.087995825529547,-1.1016382974405634
318,4.2271892052962645,-2.8426525393035256,-0.08623324209459746,-1.0750208568689203
319,4.2404822531116615,-2.828749879522584,-0.08428985722333074,-1.0491635006562734
320,4.2537753009270585,-2.805674623986267,-0.08249324878581983,-1.0237430258631215
321,4.267068348742455,-2.777031861349944,-0.08101888949392903,-0.9987150630292234
322,4.280361396557852,-2.7473450358813367,-0.07990072845314615,-0.974327707510678
323,4.293654444373249,-2.721289308934117,-0.07906432385487164,-0.951053258795409
324,4.306947492188646,-2.7029826473203484,-0.07836980202433097,-0.9294553603971705
325,4.320240540004043,-2.695426209840653,-0.07765408276518863,-0.9100296816285733
326,4.33353358781944,-2.7001661111574444,-0.07676567874297503,-0.8930627638605423
327,4.346826635634837,-2.7172220385332784,-0.07558916113687626,-0.8785451252907549
328,4.360119683450235,-2.7452863367313283,-0.07405895775839186,-0.8661564575745576
329,4.373412731265632,-2.7821438524011146,-0.07216337442139198,-0.8553204021945134
330,4.386705779081029,-2.825213801302447,-0.06994020153728119,-0.8453100034208504
331,4.399998826896426,-2.872087644617221,-0.06746566546790866,-0.8353750635709482
332,4.413291874711823,-2.920940626986562,-0.06483903183182331,-0.8248595353406378
333,4.42658492252722,-2.9707282072055112,-0.062165604567734754,-0.81328112612814
334,4.439877970342617,-3.0211342588470576,-0.059540852933131695,-0.800357320386884
335,4.453171018158014,-3.072303207082501,-0.05703791545698757,-0.7859807506629573
336,4.466464065973411,-3.124446491525817,-0.054700065139759814,-0.7701660414632436
337,4.479757113788808,-3.177447066200628,-0.05253914456334185,-0.7530002414433684
338,4.493050161604205,-3.2305828085479256,-0.050540447255845534,-0.7346228878418574
339,4.506343209419603,-3.282452789208891,-0.048673703949767264,-0.7152416608823485
340,4.519636257235,-3.331133968267813,-0.046908467306560744,-0.6951664628017645
341,4.532929305050397,-3.374538996338478,-0.04523046491261803,-0.6748315983340366
342,4.546222352865794,-3.4109027064169606,-0.04365413633248165,-0.6547791243984834
343,4.559515400681191,-3.439300932548398,-0.04222651565869797,-0.6355931646061656
344,4.572808448496588,-3.4600975217528824,-0.04101940977302706,-0.6177955431007323
345,4.586101496311985,-3.475215943891904,-0.040110163966688636,-0.6017282242091931
346,4.599394544127382,-3.4881336896651893,-0.0395551054795915,-0.5874533377056282
347,4.6126875919427786,-3.503501942494144,-0.03936263240720717,-0.5746981055676436
348,4.625980639758176,-3.526314046817618,-0.0394738741502669,-0.5628639260584779
349,4.6392736875735725,-3.560606397244686,-0.03975766552839322,-0.5511098893586653
350,4.65256673538897,-3.6077896153616624,-0.04002373118436764,-0.5385117657455563
351,4.665859783204367,-3.6648666316022767,-0.04005428864352747,-0.5242860417712167
352,4.679152831019764,-3.7229554852440008,-0.03965051575070053,-0.5080532628523214
353,4.692445878835161,-3.7666321827379474,-0.03868700423470214,-0.4900975981720047
354,4.705738926650558,-3.774574843487421,-0.037164707476625355,-0.4715659429258981
355,4.719031974465955,-3.7217834277528996,-0.035251174052189284,-0.45454720410538085
356,4.732325022281352,-3.5832816748959733,-0.03329634627092368,-0.44198546253512594
357,4.745618070096749,-3.3387591348900583,-0.03181348108332115,-0.4374090017092341
358,4.758911117912146,-2.977218715784832,-0.03141865131339229,-0.44449482963204695
359,4.772204165727543,-2.500512604172326,-0.032729485425769186,-0.4665264654824589
360,4.78549721354294,-1.9247822632518419,-0.036234065433149276,-0.5058331114143707
361,4.798790261358338,-1.2792661648403116,-0.04215234480854574,-0.5633148431373367
362,4.812083309173735,-0.6025805293209481,-0.05032151370094704,-0.6381566230645118
363,4.825376356989132,0.06278617908024692,-0.06013923830083688,-0.7278098472677226
364,4.838669404804529,0.6765919077881183,-0.07059163198653207,-0.8282724555569378
365,4.851962452619926,1.2062878600236264,-0.08037605717416864,-0.9346334154949476
366,4.865255500435323,1.6307204583933772,-0.08810581877143234,-1.0417808734891243
367,4.87854854825072,1.9414595030802524,-0.09256061880535012,-1.1451276288753423
368,4.891841596066117,2.1416670235461317,-0.09293019159330201,-1.2412003870144486
369,4.905134643881514,2.2429400906016608,-0.08899427983837077,-1.3279738128259997
370,4.918427691696911,2.260961058890609,-0.08119239951746618,-1.4048945216559925
371,4.931720739512309,2.2110030355947186,-0.07056019446489237,-1.4726133356586386
372,4.945013787327706,2.104325119196847,-0.05854042027217404,-1.5325070826304297
373,4.958306835143103,1.946249840638909,-0.04670783159456144,-1.5861110386635668
374,4.9715998829585,1.736296847555031,-0.036469769249559435,-1.6345938646040432
375,4.9848929307738965,1.4702482944742072,-0.02881113364921999,-1.6783885390178668
376,4.9981859785892935,1.1435527116442363,-0.024141136896790177,-1.717050825804082
377,5.0114790264046905,0.7551354271990943,-0.022272904005273913,-1.7493614291496264
378,5.024772074220087,0.3105563565193252,-0.022533590860050693,-1.7736318494505812
379,5.038065122035484,-0.17640762312048605,-0.023971906945143114,-1.7881293353134664
380,5.051358169850881,-0.684282578258846,-0.025609658901142886,-1.791512949837654
381,5.064651217666278,-1.186479157526228,-0.026677976872090163,-1.7831761090796492
382,5.077944265481676,-1.6553213636966808,-0.026786785171895672,-1.7634202717600493
383,5.091237313297073,-2.06651314186687,-0.025994328778034283,-1.7334315808278056
384,5.10453036111247,-2.4029461887232637,-0.02476723396575352,-1.695083150841162
385,5.117823408927867,-2.656986426302955,-0.023845582163721003,-1.650625299016287
386,5.131116456743264,-2.830830043068713,-0.024047335105267832,-1.6023440264957025
387,5.144409504558661,-2.9350275343121117,-0.026058651721275077,-1.552262660740551
388,5.157702552374058,-2.9856815399453422,-0.030258841719079922,-1.5019392271776224
389,5.170995600189455,-3.001043260041507,-0.03662007390897738,-1.4523833340156083
390,5.184288648004852,-2.9982512015281224,-0.04470372732203267,-1.4040898394075498
391,5.197581695820249,-2.9908147817996893,-0.053751237000771016,-1.3571657613087782
392,5.210874743635646,-2.987203931178422,-0.06284358899252393,-1.3115114087275375
393,5.224167791451044,-2.990628235437276,-0.07108717876678072,-1.267006953190161
394,5.237460839266441,-2.9998376973930623,-0.07777961878227982,-1.2236553558315444
395,5.250753887081838,-3.0106033711308804,-0.08251818391299913,-1.1816459949156897
396,5.264046934897235,-3.017465910176829,-0.08523226709432803,-1.1413296174449312
397,5.277339982712632,-3.0153673110560133,-0.08614288933729564,-1.1031257742893261
398,5.290633030528029,-3.0008774038960224,-0.08567011265188115,-1.067406168058303
399,5.303926078343426,-2.972858387992498,-0.08431846197292585,-1.0344020329517316
400,5.317219126158823,-2.9325485466744317,-0.08256996844299444,-1.004169534167384
401,5.33051217397422,-2.883164238859373,-0.08080628001418039,-0.976620859952634
402,5.343805221789617,-2.8291947243022433,-0.07926942231420181,-0.951601009958829
403,5.357098269605014,-2.7755853640062527,-0.07805936134346826,-0.9289720540053222
404,5.370391317420411,-2.7269776623467896,-0.07715851820610989,-0.9086651623556653
405,5.383684365235808,-2.68712130505277,-0.07647015080167822,-0.8906769419594825
406,5.396977413051205,-2.6585173279940655,-0.07585874483803459,-0.875013573979966
407,5.410270460866602,-2.6423056281818873,-0.07518465625484225,-0.8616111560452175
408,5.423563508681999,-2.6383752214280283,-0.07432998488673745,-0.8502713466620632
409,5.436856556497396,-2.6456490477526997,-0.07321602868712211,-0.8406432359658429
410,5.450149604312793,-2.6624763056745224,-0.07181369025879193,-0.8322603489460972
411,5.46344265212819,-2.6870558972148038,-0.07014725914188537,-0.8246168403173341
412,5.476735699943587,-2.7178149776109772,-0.06829048186390797,-0.817250259148883
413,5.490028747758984,-2.7536757521859143,-0.0663533862014339,-0.8097962719696327
414,5.503321795574381,-2.7941616276613526,-0.06445989072012392,-0.8019938455189649
415,5.516614843389779,-2.839322246318561,-0.06271948521533732,-0.7936423391656477
416,5.529907891205176,-2.889495034035,-0.06119968289705575,-0.784535517361343
417,5.543200939020573,-2.944961321604525,-0.05990752943941968,-0.7744113052160574
418,5.55649398683597,-3.005585133363159,-0.05878686859570789,-0.762952625528624
419,5.569787034651367,-3.0705310269012065,-0.05773347253521335,-0.7498532779669649
420,5.583080082466764,-3.138140598408352,-0.05662424300937936,-0.7349318400646812
421,5.596373130282161,-3.2060116073495344,-0.05535188251344787,-0.7182503380181892
422,5.609666178097558,-3.27128090082249,-0.053854677569593556,-0.7001859950916859
423,5.622959225912955,-3.331074013026441,-0.05213296633285235,-0.6814178253341117
424,5.636252273728352,-3.383056918151851,-0.050248578879627845,-0.6628182230721934
425,5.64954532154375,-3.4260075708244093,-0.04830904610474367,-0.6452701612274934
426,5.662838369359147,-3.4603088081059092,-0.04644249459993583,-0.6294526615370374
427,5.676131417174544,-3.4882425888997792,-0.04477051682742417,-0.615647118886397
428,5.689424464989941,-3.5139415457535446,-0.043384972601351546,-0.603615993014494
429,5.702717512805338,-3.542847034777152,-0.042331944633920246,-0.5925948049725247
430,5.716010560620735,-3.580564313521632,-0.04160369675329268,-0.5814182993585532
431,5.729303608436132,-3.6311209639177817,-0.04113867831461733,-0.5687728958440108
432,5.7425966562515285,-3.6948243978732602,-0.04083039111305226,-0.5535351596043426
433,5.7558897040669255,-3.766139707268921,-0.040547110393425345,-0.5351294495503001
434,5.769182751882322,-3.8321952626566684,-0.04016431804802284,-0.513827038991337
435,5.782475799697719,-3.8725786415717782,-0.039608965325739515,-0.49091826776982433
436,5.795768847513117,-3.860935008898713,-0.03890926110210823,-0.4687147237370404
437,5.809061895328514,-3.7685048202048357,-0.03823707744125702,-0.45037058986914097
438,5.822354943143911,-3.5692021948085353,-0.03792509540859748,-0.4395425333249904
439,5.835647990959308,-3.2452878845853954,-0.03844078833042024,-0.43993241851323833
440,5.848941038774705,-2.792324670085093,-0.040306731649155145,-0.4547771294955713
441,5.862234086590102,-2.222084144690121,-0.043971652267359815,-0.48636452027122146
442,5.875527134405499,-1.562463282566321,-0.04965574939111162,-0.5356598856706164
443,5.888820182220896,-0.8541808222619628,-0.05721059057988717,-0.6021170469651089
444,5.902113230036293,-0.14484620230290998,-0.06604068224073835,-0.683718190116336
445,5.91540627785169,0.5183274012470463,-0.07512534925739812,-0.777239915780485
446,5.928699325667087,1.0955599659261628,-0.08315590227905036,-0.8786912308843621
447,5.941992373482485,1.5597763754137912,-0.08877039108289946,-0.9838297168800373
448,5.955285421297882,1.899066708660446,-0.090836745975298,-1.0886498289367592
449,5.968578469113279,2.1159930476927094,-0.08871530488866103,-1.1897564875065259
450,5.981871516928676,2.2241514552034927,-0.08243081319547844,-1.2845785941607415
451,5.995164564744073,2.243005788991872,-0.07270360379965142,-1.371423106681682
452,6.00845761255947,2.1923326898370847,-0.06082526048914082,-1.449403662164196
453,6.021750660374867,2.087597005329676,-0.04840578608044484,-1.518289415575213
454,6.035043708190264,1.937253403198071,-0.03705445402732428,-1.5783120769737715
455,6.048336756005661,1.7424506324934996,-0.028073573550608598,-1.6299538469605512
456,6.061629803821058,1.4990272613853646,-0.022237515088853604,-1.6737304901768195
457,6.074922851636455,1.201147377107292,-0.01970144061351209,-1.709989804350434
458,6.0882158994518525,0.8455340926124764,-0.020046081842039404,-1.738760877342071
459,6.1015089472672495,0.4351104232867528,-0.022430363577495453,-1.7596982475801717
460,6.114801995082646,-0.0189882560389145,-0.025803075897658168,-1.772153106572899
461,6.128095042898043,-0.4976226358398555,-0.029121413034498146,-1.7753694657594927
462,6.14138809071344,-0.9760522925029609,-0.03153455231037875,-1.7687601525495138
463,6.154681138528837,-1.42789744160656,-0.03250761950130024,-1.752185370213113
464,6.167974186344234,-1.8296142804664992,-0.03187853823910662,-1.7261497120977396
465,6.181267234159631,-2.1643468922969786,-0.029852823422697922,-1.6918545829525646
466,6.194560281975028,-2.4242534169689147,-0.02694773666679304,-1.6510841122656388
467,6.207853329790425,-2.610869113206619,-0.023898433861877847,-1.605950563303447
468,6.221146377605823,-2.733607264220944,-0.02153767251798697,-1.5585658077339146
469,6.23443942542122,-2.8069507876060915,-0.020660590522109955,-1.5107268127838502
470,6.247732473236617,-2.8471375266500085,-0.02188895277952467,-1.4636983440718634
471,6.261025521052014,-2.869145462146773,-0.025554311685274524,-1.4181455738589424
472,6.274318568867411,-2.884570728505645,-0.0316232474348485,-1.37422182129361
473,6.287611616682808,-2.9006538453518034,-0.039685758163374246,-1.3317679733737933
474,6.300904664498205,-2.9203709444166055,-0.04901723924361199,-1.2905477945723687
475,6.314197712313602,-2.9432741169655845,-0.05870667335830154,-1.2504393379501237
476,6.327490760128999,-2.9666877331773764,-0.0678243618099523,-1.2115275031786696
477,6.340783807944396,-2.986924559822188,-0.07558951891606146,-1.1740848121634322
478,6.354076855759793,-3.000309785413195,-0.0814972020067625,-1.1384687966938798
479,6.367369903575191,-3.003923819106603,-0.0853761926091618,-1.1049896747251233
480,6.380662951390588,-2.996057891961535,-0.0873699693394348,-1.0738046108229327
481,6.393955999205985,-2.976416814293345,-0.08785419527325389,-1.0448774244961678
482,6.407249047021382,-2.9461151440491893,-0.0873190896391035,-1.0180136219778781
483,6.420542094836779,-2.907511038098101,-0.08624981342499294,-0.9929508756906142
484,6.433835142652176,-2.863915852763351,-0.0850328204289658,-0.9694650052509929
485,6.447128190467573,-2.819214671489953,-0.08390444118553464,-0.9474482100865438
486,6.4604212382829695,-2.777438236245776,-0.08294446373331758,-0.9269301694683547
487,6.473714286098367,-2.7423376197368414,-0.08210620367485247,-0.9080365086712864
488,6.487007333913764,-2.717019093090699,-0.08126787447777797,-0.8909020093439388
489,6.5003003817291605,-2.7036885057686306,-0.08028854551519672,-0.8755692471664681
490,6.513593429544558,-2.703532304436926,-0.07905481066699134,-0.8619051139571267
491,6.526886477359955,-2.7167353887184915,-0.07750980565313408,-0.8495614346047166
492,6.540179525175352,-2.7426138848764494,-0.07566233703446489,-0.837995711475046
493,6.553472572990749,-2.7798266843016832,-0.07357878054001693,-0.826554917632356
494,6.566765620806146,-2.826621552844876,-0.07136310989783518,-0.8146082905345833
495,6.580058668621543,-2.881069016239988,-0.06913110503875859,-0.801696017389281
496,6.59335171643694,-2.9412420238548727,-0.06698436944734207,-0.7876467996902153
497,6.606644764252337,-3.005312950071464,-0.06498909242115809,-0.7726183337255809
498,6.619937812067734,-3.071559762195617,-0.06316368391745099,-0.7570359881565372
499,6.633230859883131,-3.138296088855021,-0.06147805093509378,-0.7414414710215658
500,6.646523907698528,-3.20376205204457,-0.059864963669552004,-0.7263005113992901
501,6.659816955513926,-3.2660309796317732,-0.05824089952108666,-0.7118391603913319
502,6.673110003329323,-3.322996266983706,-0.05653090614586131,-0.6979710734383313
503,6.68640305114472,-3.3724956772719934,-0.05469061454485367,-0.6843443737291324
504,6.699696098960117,-3.4126028594938997,-0.05271936924074697,-0.6704902173156758
505,6.712989146775514,-3.442070054537156,-0.05066138932544505,-0.6560157222085642
506,6.726282194590911,-3.460850016577375,-0.048595753626650015,-0.6407674653266978
507,6.739575242406308,-3.4705695745507468,-0.04661909785722025,-0.624903449488775
508,6.752868290221705,-3.474783441881285,-0.04482593176357244,-0.6088450606489624
509,6.766161338037102,-3.478819458814318,-0.04329041503201161,-0.5931232417808007
510,6.779454385852499,-3.489054050324212,-0.04205156661541941,-0.578171249637183
511,6.792747433667897,-3.511546242470766,-0.04110290230769041,-0.56413899393317
512,6.8060404814832935,-3.550113874623586,-0.040388204331703564,-0.550804311943674
513,6.8193335292986905,-3.604136633494305,-0.03980679131766472,-0.5376331150791562
514,6.832626577114088,-3.6665700512051935,-0.039232436787660765,-0.5239981612651285
515,6.8459196249294845,-3.7227848147616585,-0.03854823846809774,-0.5095164734354463
516,6.8592126727448814,-3.750834107133767,-0.037694776911254745,-0.494422444865416
517,6.872505720560278,-3.72354600857402,-0.036722002656586435,-0.4798701002293622
518,6.885798768375675,-3.6124368636560997,-0.0358289491940434,-0.4680613332937716
519,6.899091816191072,-3.3929191305586315,-0.0353725558491849,-0.46212862103246516
520,6.912384864006469,-3.049782979689324,-0.03583005621109227,-0.46575609664058837
521,6.925677911821866,-2.581649353779805,-0.0377094737259973,-0.48259095623305165
522,6.938970959637264,-2.003168959181776,-0.04141832269835203,-0.5155608452105797
523,6.952264007452661,-1.3442077987400511,-0.04711753527261561,-0.5662520365911536
524,6.965557055268058,-0.6459990130796077,-0.05459995422259784,-0.6345015880233259
525,6.978850103083455,0.04497475762062768,-0.06323467863741808,-0.7183096630052622
526,6.992143150898852,0.6840227331543204,-0.07200720616515378,-0.814097692135694
527,7.005436198714249,1.2346579452685102,-0.07966241870339631,-0.9172498877881264
528,7.018729246529646,1.6730333860638134,-0.08492916811096002,-1.022809209524522
529,7.032022294345043,1.9895912306756272,-0.08677991296927309,-1.1261736508724316
530,7.04531534216044,2.1878132379555812,-0.08466424813955162,-1.2236561641582908
531,7.058608389975837,2.280635164444064,-0.07865611536354272,-1.312817875444836
532,7.071901437791234,2.28557311279127,-0.069471940597588,-1.3925406056775391
533,7.085194485606632,2.219802104629658,-0.05834762398103933,-1.4628564692545016
534,7.098487533422029,2.096311590170305,-0.04679879613861289,-1.524592057183576
535,7.111780581237426,1.9219079452662395,-0.0363206408886035,-1.5789102550438003
536,7.125073629052823,1.6973540738959423,-0.02810039051820524,-1.6268442740437798
537,7.13836667686822,1.4194404122305944,-0.02281108179522525,-1.6689166032430702
538,7.151659724683617,1.084352355486301,-0.0205307589302506,-1.7049201318645777
539,7.164952772499014,0.691403672728357,-0.020796033968338557,-1.7339086115477695
540,7.178245820314411,0.2461101035130314,-0.02276509732727513,-1.754399686995906
541,7.191538868129808,-0.2382690471903096,-0.025442804835604453,-1.7647427206668855
542,7.204831915945205,-0.7412001193477307,-0.0279132376068377,-1.7635597269303802
543,7.2181249637606015,-1.2372942931535995,-0.029531256258818025,-1.7501472673946854
544,7.231418011575999,-1.7000883208342967,-0.030039162633432558,-1.7247395845930997
545,7.244711059391396,-2.1062460201190736,-0.029592615725688425,-1.6885748823564068
546,7.258004107206793,-2.4391652871339686,-0.028697780941039017,-1.6437619775567582
547,7.27129715502219,-2.6911834754297446,-0.028077186381975046,-1.5929937830588303
548,7.284590202837587,-2.863978472544412,-0.028493683098226787,-1.539182282036465
549,7.297883250652984,-2.967228904868406,-0.03056921157395467,-1.4850924382584532
550,7.311176298468381,-3.015993313659928,-0.03463647271770877,-1.4330359620985302
551,7.324469346283778,-3.027504044029711,-0.04065573325652265,-1.3846614056542494
552,7.337762394099175,-3.0181101389516933,-0.048215413736303794,-1.3408546811446576
553,7.351055441914572,-3.0009602834115654,-0.05661562482912491,-1.3017482570348207
554,7.36434848972997,-2.984751830619108,-0.06501312662242355,-1.26682701134757
555,7.377641537545367,-2.9735733663198594,-0.07259068695140984,-1.235110659066944
556,7.390934585360764,-2.9676238507065116,-0.07870888985019846,-1.2053847024246078
557,7.404227633176161,-2.9644566313221272,-0.08300581258113095,-1.1764449648560136
558,7.417520680991558,-2.9603793169136314,-0.08542682915197813,-1.1473181386905456
559,7.430813728806955,-2.951710581374832,-0.08618703035175516,-1.1174250739466776
560,7.444106776622352,-2.935708307636689,-0.08568561439116291,-1.0866647455062248
561,7.457399824437749,-2.9111004251804493,-0.0844002672529346,-1.0554120707143537
562,7.470692872253146,-2.878241855681208,-0.08278869666750172,-1.0244376763559282
563,7.483985920068543,-2.8389731432275016,-0.08121629208796531,-0.994768479634671
564,7.49727896788394,-2.7962702708315503,-0.0799176303168388,-0.9675128762573657
565,7.510572015699338,-2.7537678128386798,-0.07898958182864363,-0.9436747024794117
566,7.523865063514735,-2.715229490251106,-0.07840785045859208,-0.923979116869502
567,7.537158111330132,-2.684040232927075,-0.0780573609438556,-0.9087333400433592
568,7.550451159145529,-2.662794430257311,-0.07776856432824321,-0.8977447623195239
569,7.563744206960925,-2.6530425832183,-0.07735429268577107,-0.8903148264761493
570,7.577037254776322,-2.6552280107807054,-0.07664360479428915,-0.8853168429065749
571,7.590330302591719,-2.668804687175734,-0.07550966204383991,-0.8813504390221418
572,7.6036233504071165,-2.692490505545644,-0.07388867112779351,-0.8769484026896922
573,7.616916398222513,-2.7245874799388696,-0.07178734370679803,-0.8707978747052192
574,7.63020944603791,-2.7632954613779916,-0.06927782274269972,-0.8619318835174924
575,7.643502493853307,-2.8069584981965323,-0.06648146325629924,-0.8498530524617363
576,7.656795541668705,-2.8542091711366653,-0.06354531191809003,-0.8345693560717359
577,7.670088589484102,-2.904007424877947,-0.060616508313298297,-0.8165460593301537
578,7.683381637299499,-2.9555949100065426,-0.05781963987176509,-0.7965976013233536
579,7.696674685114896,-3.008395566489253,-0.05524074986380018,-0.7757493044945709
580,7.709967732930293,-3.0618894270060113,-0.052920096207729826,-0.7550912203755449
581,7.72326078074569,-3.1154786179797647,-0.05085440460114622,-0.7356340507352053
582,7.736553828561087,-3.1683619020477853,-0.04900808408744393,-0.7181711590144493
583,7.749846876376484,-3.2194403112980274,-0.04733125916668817,-0.7031564206526755
584,7.763139924191881,-3.267287740900208,-0.045780561891976504,-0.6906203971811303
585,7.776432972007278,-3.3102285392061574,-0.04433717049276856,-0.68015553312448
586,7.789726019822675,-3.346559279740801,-0.043016577044612064,-0.6709939047746659
587,7.803019067638073,-3.3749256052801275,-0.041866500501556825,-0.6621758534917753
588,7.81631211545347,-3.3948148255315527,-0.040952766653104156,-0.6527733356897536
589,7.829605163268867,-3.4070589938641413,-0.04033663646692249,-0.6421044875585161
590,7.842898211084264,-3.414181079464286,-0.040049661026332596,-0.6298711338851839
591,7.856191258899661,-3.4203844286727096,-0.04007288668902805,-0.6161742844104574
592,7.869484306715058,-3.4310064791941195,-0.040326121961505236,-0.601406325196135
593,7.882777354530455,-3.4513451347933186,-0.04067062663394117,-0.5860653912596394
594,7.896070402345852,-3.4849183979014833,-0.040925869459838365,-0.5705686418269116
595,7.909363450161249,-3.5314130720969845,-0.04089867007905121,-0.5551446649825232
596,7.922656497976646,-3.58477217216035,-0.040421419659547195,-0.539859626831687
597,7.9359495457920435,-3.6319992585214087,-0.039394965757737876,-0.5247860052325811
598,7.94924259360744,-3.65325262144186,-0.03783061768392142,-0.5102718592776374
599,7.962535641422837,-3.62361564365107,-0.03588416197629227,-0.4972282751492275
600,7.975828689238234,-3.5165644611440317,-0.033872955849678796,-0.487334930290105
601,7.989121737053631,-3.308681080206478,-0.03226607672911015,-0.4830744596982369
602,8.002414784869028,-2.984712056375358,-0.031638689314537345,-0.4875438786359096
603,8.015707832684425,-2.5418075067868244,-0.03258668660823035,-0.504046872439213
604,8.029000880499822,-1.9918167705760736,-0.035606746787877126,-0.5355304228674553
605,8.04229392831522,-1.3608984099275605,-0.040958997808432714,-0.5839777631649616
606,8.055586976130616,-0.6863383573295587,-0.04854133569811321,-0.6498941250327583
607,8.068880023946013,-0.011179191722848456,-0.05781161408273052,-0.7320142337955367
608,8.08217307176141,0.6221700973984938,-0.06779201335970625,-0.8273199124158293
609,8.095466119576807,1.177925152736662,-0.07717638369055156,-0.9313894082988017
610,8.108759167392204,1.631239524108899,-0.08453714807849048,-1.0390220434296529
611,8.122052215207601,1.9700369283380286,-0.08859856967295081,-1.1450126991055292
612,8.135345263022998,2.1942097403708036,-0.08851659312078335,-1.2449104908004116
613,8.148638310838397,2.3126555806149955,-0.08409220094004652,-1.3355976304003199
614,8.161931358653794,2.3390616254068948,-0.07585310273869844,-1.4155681619020124
615,8.17522440646919,2.2875267837147013,-0.06496916047592936,-1.484859046822679
616,8.188517454284588,2.169046686100658,-0.05301317530422964,-1.5446673277960337
617,8.201810502099985,1.9896228515669023,-0.04162578662728754,-1.5967568928692768
618,8.215103549915382,1.7503474173592457,-0.03217393283248109,-1.6428030182996527
619,8.228396597730779,1.4493245422373262,-0.02549429857038144,-1.6838347150349513
620,8.241689645546176,1.0848208861765476,-0.021785375379497825,-1.7199098639261987
621,8.254982693361573,0.6587167453964919,-0.020665130535010814,-1.7500970816638017
622,8.26827574117697,0.17925667051312652,-0.021363283043151837,-1.7727527038269897
623,8.281568788992367,-0.33770315277919594,-0.02298365241765138,-1.7859960359310414
624,8.294861836807764,-0.8693489158993937,-0.02476112811312852,-1.7882319263208397
625,8.30815488462316,-1.3883734507080867,-0.02624870342391842,-1.7785681098969892
626,8.321447932438558,-1.8667156906666915,-0.027395692713745316,-1.7570248741648289
627,8.334740980253954,-2.279744396869142,-0.02850956384675961,-1.7245132935937797
628,8.348034028069351,-2.6099656621233325,-0.03012271004983085,-1.682632388950852
629,8.361327075884748,-2.849460588762607,-0.032806319582808476,-1.6333781835709398
630,8.374620123700145,-3.0005663794992175,-0.03698301388973862,-1.578859189680918
631,8.387913171515542,-3.074723552618396,-0.042786863600693205,-1.5210823411735668
632,8.40120621933094,-3.0898205817864617,-0.05000463032526977,-1.461830707826053
633,8.414499267146336,-3.066672462752918,-0.05810912356590449,-1.4026193216367746
634,8.427792314961733,-3.0254025604758903,-0.06637051349573565,-1.3446994983405864
635,8.441085362777132,-2.982442694472925,-0.07401157392823192,-1.2890852152192127
636,8.454378410592529,-2.9486600662961564,-0.08036396817346031,-1.2365882776261015
637,8.467671458407926,-2.9288250744612743,-0.08498684228047582,-1.1878594390847046
638,8.480964506223323,-2.9223228625434814,-0.08772364970996087,-1.1434316627239967
639,8.49425755403872,-2.924752887364287,-0.08869253444426632,-1.1037509883827548
640,8.507550601854117,-2.929913659543124,-0.08822315572021944,-1.0691716589784581
641,8.520843649669514,-2.9316659254713615,-0.08676360067719613,-1.0398982838146853
642,8.53413669748491,-2.9252945935322687,-0.08478321499356326,-1.0158821939951184
643,8.547429745300308,-2.9081920570740944,-0.08269218686822967,-0.9967110322849999
644,8.560722793115705,-2.8798895869483676,-0.08078986750390635,-0.9815512789118676
645,8.574015840931102,-2.841610686595494,-0.07924462542952429,-0.9691978106037947
646,8.587308888746499,-2.795586135521802,-0.07810097066811375,-0.958250533161189
647,8.600601936561896,-2.7443612351986646,-0.07730570893261353,-0.9473879096408065
648,8.613894984377293,-2.690264710525692,-0.07674372519173678,-0.9356619852536091
649,8.62718803219269,-2.6351237628910678,-0.07627477028924676,-0.9227198386079614
650,8.640481080008087,-2.5802270208951685,-0.07576448042791091,-0.9088729536620026
651,8.653774127823484,-2.5264761346322504,-0.07510530937951969,-0.8949842782482402
652,8.66706717563888,-2.4746362121962076,-0.07422587040989599,-0.8822041691932901
653,8.680360223454278,-2.425592505095675,-0.07309003706739398,-0.8716364189467266
654,8.693653271269675,-2.3805368696017957,-0.07168939151970866,-0.8640347824728823
655,8.706946319085072,-2.3410346281644654,-0.07003350267549104,-0.8596136091394787
656,8.72023936690047,-2.3089558810126443,-0.06814177179147932,-0.8580134941730077
657,8.733532414715867,-2.286290401603069,-0.0660386963129229,-0.8584133862725571
658,8.746825462531264,-2.2748941340025466,-0.06375244182738658,-0.859742333257566
659,8.760118510346661,-2.2762292135116455,-0.06131553567870534,-0.8609264309206645
660,8.773411558162058,-2.291154452334663,-0.05876652363122639,-0.8611089090274127
661,8.786704605977455,-2.319803353028228,-0.056151980552927985,-0.859796783669301
662,8.799997653792852,-2.3615610576620742,-0.053528515597706286,-0.856908596025567
663,8.81329070160825,-2.4151292396614554,-0.050964024482995834,-0.8527197839328708
664,8.826583749423646,-2.478654511583875,-0.04853683014938616,-0.8477233920026547
665,8.839876797239043,-2.549893187387976,-0.046331275194470105,-0.8424425796659442
666,8.85316984505444,-2.626390756814256,-0.044429200170074526,-0.837244059823908
667,8.866462892869837,-2.7056618731032183,-0.04289829116507812,-0.8322029217683
668,8.879755940685234,-2.785358931602985,-0.0417797781799324,-0.8270561094250368
669,8.893048988500631,-2.8634122618325515,-0.04107871722816904,-0.821256856422262
670,8.906342036316028,-2.9381185947665434,-0.040759779731998916,-0.8141140452678844
671,8.919635084131425,-3.008157311410562,-0.040750224855376514,-0.8049783111797583
672,8.932928131946822,-3.0725324639936087,-0.04094996885225393,-0.793426397132783
673,8.946221179762219,-3.1304689023269656,-0.041246919622653255,-0.7793972749477949
674,8.959514227577616,-3.181320118740593,-0.04153446031279811,-0.7632455888625954
675,8.972807275393013,-3.224558098033841,-0.04172740076548824,-0.7456972086734915
676,8.98610032320841,-3.259900218407169,-0.04177295197350227,-0.7277145296251074
677,8.999393371023807,-3.287582367466805,-0.04165428242729245,-0.7103005068925232
678,9.012686418839206,-3.3087186448032933,-0.04138584142075018,-0.6942846680569568
679,9.025979466654602,-3.325614315498133,-0.04100157106911777,-0.6801380541363238
680,9.03927251447,-3.3418453654169618,-0.040538883778246985,-0.6678574931018708
681,9.052565562285396,-3.3619116596722245,-0.04002232358137571,-0.6569460111092807
682,9.065858610100792,-3.3903312663718292,-0.039450871787038086,-0.6464994141212309
683,9.07915165791619,-3.4301763839939228,-0.038792085231002194,-0.6353919785709884
684,9.092444705731587,-3.4812404524738043,-0.037985224351261185,-0.6225382641345125
685,9.105737753546984,-3.538229484297424,-0.036954692470818284,-0.6071940615961309
686,9.11903080136238,-3.5895227569173622,-0.03563432665129018,-0.5892483682833708
687,9.132323849177778,-3.6170738678888807,-0.03400159014769799,-0.5694519427410408
688,9.145616896993175,-3.597866776571896,-0.03211773740232863,-0.549529328145086
689,9.158909944808572,-3.506999014850146,-0.030165643823261964,-0.5321330707584639
690,9.17220299262397,-3.322005261178098,-0.028472670066413096,-0.520622001105319
691,9.185496040439366,-3.0275939230834887,-0.027504133169277616,-0.5186770947708265
692,9.198789088254763,-2.6197056127346428,-0.027816025860340106,-0.5298023173686549
693,9.21208213607016,-2.107834073530291,-0.029964385872721797,-0.5567863107080352
694,9.225375183885555,-1.5149007275425614,-0.034381576912390556,-0.6012172726007574
695,9.238668231700954,-0.874554168114223,-0.04124288447956008,-0.6631437561114923
696,9.251961279516353,-0.22640520437210832,-0.050355605107975425,-0.7409563316035109
697,9.265254327331748,0.3897805526827272,-0.06110367597528281,-0.8315294023217792
698,9.278547375147143,0.9396683504194987,-0.07247276311270943,-0.930613209414163
699,9.291840422962544,1.3985405922723553,-0.08316501953146131,-1.033412836411313
700,9.30513347077794,1.7532906122147716,-0.09179253835503433,-1.1352473312648277
701,9.318426518593338,2.0020000297372356,-0.09711789330173277,-1.2321608492725906
702,9.331719566408736,2.151463080751721,-0.09829377038720427,-1.321366392298924
703,9.345012614224132,2.213460162068428,-0.09504653266051054,-1.4014400185679627
704,9.358305662039529,2.2007708814447597,-0.08775474399240203,-1.4722393930057318
705,9.371598709854926,2.1238498085100326,-0.07739456039504883,-1.5345802206361163
706,9.384891757670324,1.9888372722569478,-0.06535624072244742,-1.5897531834619083
707,9.39818480548572,1.7972327552475427,-0.05317150620119214,-1.638993552968051
708,9.411477853301117,1.5471864198368377,-0.04221857078258694,-1.683022447804352
709,9.424770901116512,1.236011770390795,-0.03347995486082104,-1.7217623585499686
710,9.43806394893191,0.8632425073336408,-0.027413277973774443,-1.7542908136327335
711,9.451356996747307,0.4334160087003008,-0.023961370231557866,-1.7790391936117118
712,9.464650044562704,-0.04218217354375239,-0.022686750757274384,-1.794180553063701
713,9.4779430923781,-0.5453308753439066,-0.02298070501453499,-1.7980999014940642
714,9.491236140193498,-1.0523777965772179,-0.024279670635398678,-1.7898212389153023
715,9.504529188008895,-1.537154244120038,-0.0262256161390726,-1.7692851925098287
716,9.517822235824292,-1.9746767597990171,-0.028729614303315762,-1.7374207365218644
717,9.53111528363969,-2.3448272501248435,-0.031930610875735316,-1.6960142459212468
718,9.544408331455086,-2.635214108788483,-0.03607393202292142,-1.6474284080997654
719,9.557701379270483,-2.842616283114508,-0.04135670345373629,-1.5942498236593625
720,9.57099442708588,-2.972750169021205,-0.047793893882350516,-1.5389456050348427
721,9.58428747490128,-3.038491042202343,-0.055148065427045194,-1.4835918226630758
722,9.597580522716676,-3.0570241277051324,-0.06294243090820399,-1.4297094041013527
723,9.610873570532071,-3.04660407106149,-0.07054887979486558,-1.3782149732846636
724,9.62416661834747,-3.0236184455332102,-0.07731981592772247,-1.3294718105714975
725,9.637459666162869,-3.000496263045498,-0.08272212042847511,-1.28341298338851
726,9.650752713978264,-2.9847420388894474,-0.0864354749186545,-1.2397043527816956
727,9.66404576179366,-2.979092526470487,-0.08839249484477968,-1.197916383043334
728,9.677338809609058,-2.982555701681362,-0.08875803652843473,-1.15767696603192
729,9.690631857424457,-2.9919432537252217,-0.08786250061177202,-1.1187816465063496
730,9.703924905239852,-3.00346790693121,-0.08611381050578173,-1.0812442244570577
731,9.717217953055249,-3.0140411832704883,-0.08391329222152519,-1.0452815832770983
732,9.730511000870646,-3.0220466446735483,-0.08159365557740808,-1.0112410490344497
733,9.743804048686044,-3.0275304597163935,-0.07938661299043655,-0.9794926084978178
734,9.75709709650144,-3.0318967138588695,-0.07741771050605073,-0.9503166905464916
735,9.770390144316837,-3.037288286116123,-0.07571982055055673,-0.9238177197674332
736,9.783683192132234,-3.045867658505226,-0.07425547110033842,-0.8998847269625396
737,9.79697623994763,-3.059193514353921,-0.07294065665347875,-0.8782063286703748
738,9.810269287763028,-3.0778320795406913,-0.07166664719275008,-0.8583327143444998
739,9.823562335578425,-3.101263360989096,-0.07031933021395358,-0.8397656737081503
740,9.83685538339382,-3.1280616701019395,-0.06879668031856757,-0.8220517064259388
741,9.850148431209218,-3.156267299864154,-0.06702429202572804,-0.8048540142803606
742,9.863441479024615,-3.1838350794794144,-0.06496756541883689,-0.7879862810616995
743,9.876734526840014,-3.209047034627759,-0.06263818960250153,-0.771402697212785
744,9.890027574655411,-3.230802381030614,-0.06009273698806297,-0.7551516626799976
745,9.903320622470808,-3.248737320268335,-0.05742265681022779,-0.7393114958054191
746,9.916613670286203,-3.263169378506896,-0.054737361536428705,-0.7239319337514795
747,9.929906718101602,-3.27489781002919,-0.05214450464200687,-0.7090027870261483
748,9.943199765917,-3.2849166421485925,-0.04973276041219547,-0.6944605671515389
749,9.956492813732396,-3.294108574955861,-0.04756159688597206,-0.6802284900874424
750,9.969785861547791,-3.3029897209118513,-0.04565981251100514,-0.6662712357245799
751,9.98307890936319,-3.311571588557219,-0.04403119967102953,-0.6526394956849195
752,9.996371957178589,-3.3193965877416276,-0.04266328318593056,-0.6394833279733466
753,10.009665004993984,-3.325777990769884,-0.041534791738635946,-0.6270253475122031
754,10.02295805280938,-3.3302255288791973,-0.040619246453973426,-0.6154992954814008
755,10.036251100624778,-3.3329649157723287,-0.03988458601001959,-0.6050709700913889
756,10.049544148440177,-3.33538153424684,-0.03929064513996152,-0.5957636125142851
757,10.062837196255572,-3.3401666159836276,-0.03878679484210602,-0.5874083732625501
758,10.076130244070969,-3.350952322849537,-0.03831138075963361,-0.5796345084044785
759,10.089423291886366,-3.3713129465223877,-0.037793634668030304,-0.5719065576381818
760,10.102716339701765,-3.4031819696497907,-0.03715828237605707,-0.5636095246972149
761,10.11600938751716,-3.444956096541348,-0.03633334057848717,-0.5541786802640849
762,10.129302435332557,-3.489764319755791,-0.03526214719670694,-0.5432662292475848
763,10.142595483147954,-3.5244938950982743,-0.03392072584225819,-0.5309297010869013
764,10.155888530963352,-3.530117647829473,-0.03234044983117194,-0.5178151136804532
765,10.16918157877875,-3.4836297660216036,-0.030633390168435005,-0.5052943891592998
766,10.182474626594146,-3.361501821287115,-0.02901413726179628,-0.49550784866915454
767,10.195767674409543,-3.1441123975126866,-0.027808491590177405,-0.4912665524715248
768,10.20906072222494,-2.820221712623451,-0.027438033584884593,-0.4957902052819355
769,10.222353770040336,-2.3903985331495603,-0.028372016503512246,-0.5122926635101573
770,10.235646817855734,-1.8684498837807082,-0.03104515206869299,-0.5434708571495427
771,10.248939865671131,-1.2803464347820326,-0.03575073419838276,-0.5909918670655548
772,10.262232913486528,-0.6607617634864006,-0.04253016530286715,-0.6550931743042865
773,10.275525961301923,-0.04796329641413692,-0.05108801765452107,-0.7344014830469262
774,10.288819009117322,0.5217861863273835,-0.060762306188531116,-0.8260326329701396
775,10.30211205693272,1.0190623731691177,-0.07057075534612738,-0.9259677619208223
776,10.315405104748116,1.4243437004599326,-0.07933672245910478,-1.0296293522683408
777,10.328698152563511,1.7288029118554065,-0.08587733702306635,-1.132529280779344
778,10.34199120037891,1.932913851488224,-0.08921736222954234,-1.2308465047382733
779,10.355284248194309,2.0434726770689298,-0.0887812049419321,-1.3218168670354413
780,10.368577296009704,2.069945674970363,-0.08451637996850841,-1.4038701301849914
781,10.3818703438251,2.021125052859742,-0.07691543169920653,-1.4765120145545902
782,10.395163391640498,1.902913528496769,-0.06692716189882424,-1.5400060151824433
783,10.408456439455897,1.7177201505853608,-0.055776185053105776,-1.594950737723883
784,10.421749487271292,1.465513060164688,-0.04473452909554342,-1.6418668715830071
785,10.435042535086689,1.1461409920239491,-0.03490240977781064,-1.6808993030439197
786,10.448335582902088,0.762208513201051,-0.02705215809984423,-1.7117039970568564
787,10.461628630717485,0.3216476660141565,-0.02156928780503309,-1.7335340427138548
788,10.474921678532882,-0.16080065621402262,-0.018493739147267405,-1.745481349524709
789,10.48821472634828,-0.6637200607143862,-0.017633118360703918,-1.7467894084873703
790,10.501507774163676,-1.1608968185569764,-0.01869970489394957,-1.7371412100232835
791,10.514800821979073,-1.624632365483151,-0.021421298413766925,-1.716845116243852
792,10.52809386979447,-2.029796043946929,-0.02559235700457557,-1.6868793006064233
793,10.541386917609866,-2.35770046087716,-0.03105895151744418,-1.648797189425685
794,10.554679965425263,-2.5988923675435744,-0.03765775209432977,-1.6045299695085717
795,10.56797301324066,-2.754209328828248,-0.045145446455542276,-1.5561414294948601
796,10.581266061056056,-2.8338912157112945,-0.05315535958143048,-1.5055937836528284
797,10.594559108871454,-2.855025240015772,-0.0612038849615614,-1.4545718505804486
798,10.607852156686851,-2.8379934041345103,-0.0687476222100852,-1.4043903313927832
799,10.621145204502248,-2.802770584192635,-0.07527221935402033,-1.3559816465820398
800,10.634438252317644,-2.7658594928407667,-0.08038338109751206,-1.3099395695730756
801,10.647731300133042,-2.738396643331343,-0.08387202187404165,-1.266585367245902
802,10.66102434794844,-2.725619349764276,-0.08573663213689292,-1.226030433841735
803,10.674317395763836,-2.727550197925888,-0.08616096465648275,-1.188226293346359
804,10.687610443579231,-2.740511156451834,-0.08545823853120123,-1.1530087195278345
805,10.70090349139463,-2.7589687842040505,-0.08400027871774303,-1.1201489821930384
806,10.714196539210027,-2.7772407582883516,-0.08215032743555353,-1.089419585839837
807,10.727489587025426,-2.790730940153151,-0.08021315604605575,-1.0606683910705816
808,10.740782634840825,-2.7965485433664212,-0.07840839201901825,-1.0338813661295752
809,10.75407568265622,-2.7935465489244256,-0.07686558585678235,-1.0092083358184207
810,10.767368730471617,-2.781943076483849,-0.07563463467743219,-0.9869329823522762
811,10.780661778287014,-2.7627494956175602,-0.0747036510259139,-0.9673871943936786
812,10.79395482610241,-2.7372217656936293,-0.074017761219032,-0.9508330229278608
813,10.807247873917808,-2.7064895153173603,-0.07349521934235857,-0.9373515311373215
814,10.820540921733205,-2.671423935529165,-0.07304004997183776,-0.9267778215745682
815,10.833833969548602,-2.6327129595868253,-0.07255218347007138,-0.9187047455520907
816,10.847127017364,-2.5910518050401956,-0.07193651741746554,-0.9125522450424864
817,10.860420065179396,-2.5473443210480062,-0.07111182440536506,-0.9076767915254945
818,10.873713112994793,-2.5028382338157806,-0.0700193645109018,-0.9034849242872582
819,10.88700616081019,-2.459162131705458,-0.06862991308589445,-0.8995185592089375
820,10.900299208625588,-2.418270601433689,-0.06694722393998785,-0.8954935313165505
821,10.913592256440984,-2.382324446011543,-0.06500623356248315,-0.8912901380713658
822,10.92688530425638,-2.3535359941784124,-0.0628657198749233,-0.8869090914058247
823,10.940178352071776,-2.3340024083208815,-0.06059713988961091,-0.882413915238562
824,10.953471399887174,-2.3255406594691124,-0.0582729495994583,-0.8778796798733712
825,10.966764447702571,-2.3295323842329636,-0.05595791710207395,-0.8733596370224962
826,10.980057495517968,-2.346787696793268,-0.053705567227909236,-0.8688704919031377
827,10.993350543333364,-2.377442521148961,-0.05155962146992276,-0.8643892774258789
828,11.006643591148762,-2.420908912025973,-0.04955826236459635,-0.8598533706893838
829,11.01993663896416,-2.4758964070690537,-0.04773818564981975,-0.8551593924746171
830,11.033229686779558,-2.5405121319151016,-0.04613594264018206,-0.8501627363294465
831,11.046522734594957,-2.612430270807374,-0.04478553762889162,-0.8446830208657509
832,11.059815782410352,-2.689103089436914,-0.04371282941906032,-0.838519590566461
833,11.073108830225747,-2.7679725911789514,-0.04292839034973562,-0.8314760954573477
834,11.086401878041146,-2.846640164322397,-0.042420952690823195,-0.8233874385026579
835,11.099694925856545,-2.922964691973824,-0.04215357227100377,-0.814139903468547
836,11.11298797367194,-2.995085694854126,-0.04206427820910586,-0.8036782023239859
837,11.126281021487337,-3.061398746713264,-0.042072182521526065,-0.7920002980340068
838,11.139574069302734,-3.1205333954370533,-0.042088698473589536,-0.7791480735570276
839,11.15286711711813,-3.1713888966935273,-0.04203184669454448,-0.7652046395101497
840,11.166160164933528,-3.2132666454671934,-0.04184020277171508,-0.750304933902486
841,11.179453212748925,-3.2461035274823735,-0.04148261590160847,-0.7346564950709294
842,11.192746260564322,-3.270764463306301,-0.04096084518626785,-0.7185562598269489
843,11.20603930837972,-3.289303613806218,-0.04030446023415765,-0.7023828338147812
844,11.219332356195116,-3.305062904300698,-0.03955981643911859,-0.6865470045288014
845,11.232625404010513,-3.322458849476143,-0.038776543426913654,-0.6713980162989301
846,11.24591845182591,-3.3463320279198308,-0.03799512851779049,-0.6571055435202268
847,11.259211499641308,-3.3808117414861223,-0.03723801146704061,-0.6435584232454699
848,11.272504547456704,-3.4277812711404603,-0.036505028952252536,-0.6303303946609206
849,11.2857975952721,-3.485194920447389,-0.03577316107588245,-0.6167534421622859
850,11.2990906430875,-3.5456518499256156,-0.03500097638473577,-0.6021117474222106
851,11.312383690902896,-3.595713304349253,-0.03413959328211899,-0.5859322197907453
852,11.325676738718292,-3.6164018612126436,-0.0331529673286199,-0.5683128698377882
853,11.33896978653369,-3.585115590445995,-0.03204904976301978,-0.5502078311753702
854,11.352262834349087,-3.47885170251778,-0.030918793649512753,-0.5335833029178243
855,11.365555882164484,-3.2782485774126298,-0.0299729687471416,-0.5213743719620494
856,11.37884892997988,-2.9716453403310115,-0.029560309642626657,-0.5172085510017728
857,11.392141977795278,-2.558239640122575,-0.030148805862450938,-0.5249141733469384
858,11.405435025610675,-2.049554579185638,-0.03225811031971813,-0.5478903262875938
859,11.418728073426072,-1.468778476347505,-0.03634510829786379,-0.5884632337471623
860,11.432021121241467,-0.8480179037544947,-0.04266263576468276,-0.647374163695078
861,11.445314169056866,-0.22397598663867258,-0.051126434298415395,-0.7235250549669597
862,11.458607216872265,0.3670816398288842,-0.06123128671744157,-0.814051961645576
863,11.47190026468766,0.8940591624858437,-0.07205075129561984,-0.9147183286332949
864,11.485193312503055,1.334527501166612,-0.08233713942712936,-1.0205433103016002
865,11.498486360318454,1.6763504616036797,-0.09071377593176061,-1.1265272756681823
866,11.511779408133853,1.9172533051242875,-0.09592613924450283,-1.2283208918575594
867,11.525072455949248,2.0626283276545085,-0.09709854880733172,-1.3227069389163162
868,11.538365503764645,2.12225367425525,-0.09393450925078628,-1.40781562266862
869,11.551658551580042,2.106788893937461,-0.08680583617452897,-1.4830585863244476
870,11.56495159939544,2.0248824771122003,-0.07669911126809831,-1.5488271324931668
871,11.578244647210836,1.8815240839106824,-0.06502374414329609,-1.6060436611565854
872,11.591537695026236,1.677959808626536,-0.053324642272105066,-1.655676452536683
873,11.604830742841632,1.4131184204615375,-0.042971750026563046,-1.698327066385416
874,11.618123790657028,1.086126725913201,-0.03490738782016331,-1.733979209651951
875,11.631416838472424,0.6991995201232152,-0.029515798242780243,-1.761960198298628
876,11.644709886287822,0.26006233043655885,-0.026642391755082144,-1.781115378426891
877,11.65800293410322,-0.21683774617255008,-0.025745534515647643,-1.7901420550144254
878,11.671295981918616,-0.7107677568693281,-0.02612649542757469,-1.7879879296291352
879,11.684589029734012,-1.1967900842040997,-0.02716493767744239,-1.7742042509042257
880,11.69788207754941,-1.6490559545567636,-0.028492268578682776,-1.7491616782112862
881,11.711175125364807,-2.0445715906573767,-0.030059632497976378,-1.7140808824062546
882,11.724468173180204,-2.3665922138214843,-0.03209223598315173,-1.6708842742195964
883,11.7377612209956,-2.606908996470554,-0.0349558908788039,-1.6219214140589209
884,11.751054268810998,-2.766575863019472,-0.038985313395316676,-1.5696448655436992
885,11.764347316626395,-2.854995658260586,-0.04433077290658947,-1.5163114407770835
886,11.777640364441792,-2.8876524372321386,-0.05086922126513512,-1.463761842094255
887,11.79093341225719,-2.8830493474736834,-0.05820236300329298,-1.4133013606969647
888,11.804226460072586,-2.859529133536629,-0.06573552057002413,-1.36567721947816
889,11.817519507887985,-2.8326018276143548,-0.07280718206669828,-1.321131513699194
890,11.83081255570338,-2.813215883433288,-0.07882727193765572,-1.2795037322928717
891,11.844105603518775,-2.80715133504095,-0.08338511170419688,-1.240360013051699
892,11.857398651334174,-2.815457572640915,-0.08630286661223,-1.2031320086657764
893,11.870691699149573,-2.83565880266045,-0.08763023144941584,-1.1672518760460355
894,11.88398474696497,-2.8633397500983757,-0.0875935629431221,-1.1322700050090362
895,11.897277794780369,-2.8937142980644484,-0.08652217918280565,-1.097940841689969
896,11.910570842595764,-2.9228603672804474,-0.08477466555326217,-1.0642634138696707
897,11.92386389041116,-2.9484427997730216,-0.0826811291988724,-1.0314693277533573
898,11.937156938226558,-2.969896076690849,-0.08050781629155387,-0.999960968356687
899,11.950449986041956,-2.9881590460626057,-0.07844242716679369,-0.970212739046471
900,11.963743033857352,-3.0051237810596154,-0.07659407217798948,-0.9426551599505041
901,11.977036081672749,-3.0229811752468776,-0.07500126175822341,-0.9175645580369174
902,11.990329129488146,-3.0436281714737037,-0.0736433518137713,-0.8949805339583983
903,12.003622177303544,-3.0682568577153653,-0.07245367241867198,-0.8746696492968147
904,12.01691522511894,-3.0971842115656685,-0.07133456103146822,-0.8561461433110171
905,12.030208272934336,-3.1299158316699893,-0.0701748323139844,-0.8387485684709384
906,12.043501320749732,-3.1653825832791673,-0.06886896046494644,-0.8217567767110161
907,12.05679436856513,-3.2022573088923996,-0.0673354059338874,-0.8045212208361867
908,12.070087416380527,-3.2392534662329306,-0.0655303942125631,-0.7865717892126451
909,12.083380464195924,-3.2753260631140626,-0.06345394396707038,-0.7676799513219458
910,12.09667351201132,-3.309731792991346,-0.061146977675834456,-0.7478642920841684
911,12.109966559826718,-3.3419518000815516,-0.058680929146706785,-0.7273486759042224
912,12.123259607642115,-3.3715255415418928,-0.05614311572166386,-0.706495501029456
913,12.136552655457512,-3.397874427878726,-0.05362158114438792,-0.6857380967694119
914,12.14984570327291,-3.42019979131518,-0.05119240443338955,-0.6655271147759927
915,12.163138751088308,-3.437520473946813,-0.048911401737336956,-0.6462923814990627
916,12.176431798903703,-3.448877876097899,-0.04681124449766627,-0.6284120533582048
917,12.189724846719102,-3.453689645869089,-0.044904152054890414,-0.6121794946361857
918,12.2030178945345,-3.45218432072244,-0.043189084595691776,-0.5977641807820782
919,12.216310942349896,-3.4458041124635104,-0.04166077798963543,-0.5851715603708021
920,12.229603990165293,-3.4374296461778484,-0.0403167629959609,-0.5742132258702102
921,12.24289703798069,-3.4312697485083556,-0.039158722449623165,-0.5645001930161669
922,12.256190085796089,-3.4322834200550205,-0.03818664282961265,-0.5554689387689318
923,12.269483133611484,-3.4450704197243875,-0.037387624701803235,-0.5464447116508663
924,12.28277618142688,-3.472286371470506,-0.036724500311488426,-0.5367422615446324
925,12.296069229242278,-3.512800156602597,-0.03613107063604282,-0.525801296154364
926,12.309362277057676,-3.5599857099286876,-0.035519977616328406,-0.5133506628723368
927,12.322655324873072,-3.6006712535231644,-0.03480601631774726,-0.49958815175377147
928,12.335948372688469,-3.615285316808924,-0.03394280889482317,-0.4853503015742193
929,12.349241420503866,-3.5795825327999413,-0.03296535713134091,-0.47223152900600956
930,12.362534468319264,-3.467993549358849,-0.032026428281093734,-0.46260188123883805
931,12.37582751613466,-3.258184721919776,-0.031412454967095285,-0.45947682161995046
932,12.389120563950057,-2.9359641036812665,-0.03152595136947489,-0.4662160406739574
933,12.402413611765454,-2.4993906246746866,-0.032827144796741314,-0.4860689375634291
934,12.41570665958085,-1.960964839688472,-0.035737323901954485,-0.521631821189
935,12.428999707396247,-1.3471465343455198,-0.04051856759815141,-0.5743213478695021
936,12.442292755211646,-0.6950821250974203,-0.04715586045136424,-0.6439860583823482
937,12.455585803027043,-0.047153782518796664,-0.055274229631726415,-0.7287636230449446
938,12.46887885084244,0.5554435559996969,-0.06412209570191392,-0.8252440983625956
939,12.482171898657835,1.0786253907843972,-0.07264095504804147,-0.9289280298348432
940,12.495464946473234,1.4995225043184097,-0.07962192123671587,-1.0348914678948322
941,12.508757994288633,1.8079712811858897,-0.08392560861635713,-1.138511922049718
942,12.522051042104028,2.0053094493185064,-0.08471982197626331,-1.2360904514338682
943,12.535344089919423,2.101075856483637,-0.0816768883042793,-1.32523333865261
944,12.548637137734822,2.108662271002588,-0.07507515002711092,-1.4049228549877855
945,12.56193018555022,2.04109931839521,-0.0657691434149916,-1.475287929275983
946,12.575223233365616,1.9079989920929106,-0.05502671264040344,-1.5371570030896546
947,12.588516281181011,1.7143038745311936,-0.044269494531644304,-1.5915200451306708
948,12.60180932899641,1.4610036716335635,-0.03478323851496738,-1.6390389688880007
949,12.615102376811809,1.1474714177060747,-0.027474948299959442,-1.6797268946797976
950,12.628395424627204,0.7746533172615916,-0.022739916937744988,-1.7128706161803138
951,12.6416884724426,0.3481250724023169,-0.02046767920574292,-1.737204756192997
952,12.654981520257998,-0.11992802906186692,-0.02017373258268493,-1.7512758361673655
953,12.668274568073397,-0.6104477299148897,-0.02120812255315569,-1.753882122407874
954,12.681567615888792,-1.0991244596331544,-0.022973843658916058,-1.744460121789171
955,12.694860663704189,-1.5595665245926285,-0.025091626506385044,-1.723315890381263
956,12.708153711519586,-1.967277100214015,-0.027469775064272894,-1.6916554179401653
957,12.721446759334984,-2.3035003019532647,-0.030269761806603523,-1.6514289988988906
958,12.73473980715038,-2.5580430140522736,-0.03378986525929043,-1.6050479548178043
959,12.748032854965778,-2.7304476851937927,-0.038311146477063754,-1.5550489957938032
960,12.761325902781175,-2.829307427829075,-0.04395702021815216,-1.5037759568224425
961,12.774618950596572,-2.8699661898587787,-0.0506088275306743,-1.4531313597309075
962,12.78791199841197,-2.8712116450722918,-0.05789907455460213,-1.404430214939233
963,12.801205046227366,-2.8517510501330983,-0.06527868943993459,-1.3583688308637478
964,12.814498094042763,-2.8272245034180488,-0.07213308892872997,-1.3151015066837808
965,12.82779114185816,-2.808291219003373,-0.07791044022885958,-1.2743982939743204
966,12.841084189673555,-2.8000089548980722,-0.08222655967505464,-1.2358415720080556
967,12.854377237488954,-2.8024111449235654,-0.08492227342725142,-1.1990135820157393
968,12.867670285304351,-2.811943637730657,-0.08606563680270306,-1.163634207242059
969,12.880963333119748,-2.8232925706357324,-0.08590725426807444,-1.1296260742270365
970,12.894256380935143,-2.8311279834663186,-0.08480742216102963,-1.0971065528859938
971,12.907549428750542,-2.8313920705754456,-0.08315687341232735,-1.0663264133366042
972,12.92084247656594,-2.8219404080886163,-0.08130931791678393,-1.037586767157415
973,12.934135524381336,-2.802543683186218,-0.07953651131550497,-1.0111660086809742
974,12.947428572196731,-2.774418474240948,-0.07800852547128084,-0.9872773052171363
975,12.96072162001213,-2.7395396376868755,-0.07679572549197859,-0.9660599349368673
976,12.974014667827529,-2.699985556929515,-0.07588578019306366,-0.9475923725160592
977,12.987307715642924,-2.657498662589138,-0.0752086031811258,-0.9319080586107383
978,13.00060076345832,-2.6133384133220763,-0.07466331772722726,-0.918998021016315
979,13.01389381127372,-2.568396476007851,-0.07414287437627086,-0.90879467925056
980,13.027186859089117,-2.5234648455572852,-0.07355310987701294,-0.9011426912641081
981,13.040479906904514,-2.4795176193303528,-0.07282398316847877,-0.8957707440403408
982,13.05377295471991,-2.4378891631804156,-0.07191210017826494,-0.8922800493924611
983,13.067066002535308,-2.4002893261550877,-0.0707957382751715,-0.8901606045984262
984,13.080359050350705,-2.3686628940361953,-0.06946582644251328,-0.8888369393869199
985,13.093652098166102,-2.3449507281426634,-0.06791755960531125,-0.8877348543824044
986,13.1069451459815,-2.3308311246874776,-0.06614663950960023,-0.8863535028983502
987,13.120238193796895,-2.3275119815687133,-0.06415168377548831,-0.8843252426390862
988,13.133531241612292,-2.335616274994675,-0.06194131860640103,-0.8814488482336791
989,13.14682428942769,-2.355168405540237,-0.05954238362235081,-0.8776884698002806
990,13.160117337243086,-2.3856609694361826,-0.05700543610880164,-0.8731392999566558
991,13.173410385058483,-2.4261695986864376,-0.05440514706157744,-0.8679691581790604
992,13.18670343287388,-2.475487339089185,-0.051835189660915576,-0.8623508353957307
993,13.199996480689276,-2.532260247635949,-0.04939874548418118,-0.8564014193665183
994,13.213289528504674,-2.595111627089907,-0.047196377114139265,-0.8501419105341772
995,13.226582576320071,-2.662739850539185,-0.04531307663584609,-0.8434848383171695
996,13.239875624135468,-2.733969552653862,-0.04380635521442016,-0.8362513117347958
997,13.253168671950863,-2.8077370783791005,-0.042697440732704005,-0.8282130130546617
998,13.266461719766262,-2.8830036334012616,-0.04196761812160094,-0.8191490192109255
999,13.27975476758166,-2.958611966512457,-0.04156101891622873,-0.8089023799682318
1000,13.293047815397056,-3.0331280815169013,-0.04139373406586886,-0.797419272737919
1001,13.306340863212457,-3.1047298872319176,-0.04136752017572812,-0.7847573924904591
1002,13.319633911027852,-3.171211352296947,-0.04138527417266959,-0.7710609103722084
1003,13.332926958843249,-3.2301570774367137,-0.04136522878544468,-0.7565131020970057
1004,13.346220006658646,-3.279306179665537,-0.04125137341897591,-0.7412874812391935
1005,13.359513054474045,-3.3170705441479917,-0.0410185605741416,-0.7255179864661047
1006,13.37280610228944,-3.343111710373259,-0.04067174704670742,-0.7092978735154609
1007,13.386099150104837,-3.3588273490602347,-0.04023963708770323,-0.6927009842638033
1008,13.399392197920234,-3.367567267134077,-0.039763634701443416,-0.6758065612254514
1009,13.41268524573563,-3.374403719098066,-0.03928361617199861,-0.658706712315979
1010,13.425978293551028,-3.3853328914274288,-0.03882277248956193,-0.6414859479259449
1011,13.439271341366425,-3.4058897952316616,-0.03837466791816128,-0.6241809048393749
1012,13.452564389181822,-3.4393116344123302,-0.03789644941128629,-0.6067470718200112
1013,13.46585743699722,-3.484560532771098,-0.03731228901702767,-0.589068697672956
1014,13.479150484812616,-3.5346701565592973,-0.03653008239271,-0.571041766724417
1015,13.492443532628013,-3.5759532193343975,-0.03547189081591438,-0.5527376459265246
1016,13.50573658044341,-3.5885420564169768,-0.034114832497333984,-0.5346230889265783
1017,13.519029628258806,-3.5485040338357754,-0.0325348068102274,-0.5177816771321023
1018,13.532322676074203,-3.431401425803536,-0.030941602867423847,-0.5040638961433913
1019,13.5456157238896,-3.216738793764501,-0.029691858914162372,-0.4960952853357112
1020,13.558908771704996,-2.8923943630758386,-0.02926738813733781,-0.49709545897980195
1021,13.572201819520394,-2.4580011417402736,-0.030211710210060312,-0.5105007672646465
1022,13.585494867335791,-1.9264049425245828,-0.033027336332906644,-0.5394323702514198
1023,13.59878791515119,-1.3227534898093207,-0.03804873631704274,-0.5860999116823644
1024,13.612080962966589,-0.6813364514163255,-0.045317396567914406,-0.6512663853054081
1025,13.625374010781984,-0.04082592135112348,-0.0544916648387863,-0.7339080044030646
1026,13.63866705859738,0.5610881418600457,-0.06482200336627372,-0.831173769097342
1027,13.651960106412778,1.0925847602340486,-0.07521121758635818,-0.9386847620847374
1028,13.665253154228177,1.5311975893290461,-0.08436128076916755,-1.0511296958153111
1029,13.678546202043572,1.8653212741708103,-0.09098739167918538,-1.1630365710057518
1030,13.691839249858967,2.0936079768694165,-0.09406042708796601,-1.2695540601324842
1031,13.705132297674366,2.2225795410835985,-0.093025691176434,-1.3670732226484614
1032,13.718425345489765,2.263147446677394,-0.08794339478743865,-1.4535601768300108
1033,13.73171839330516,2.226927379391907,-0.07950805946734785,-1.5285421999170605
1034,13.745011441120557,2.1232197331362057,-0.06893030046018861,-1.5927744763696345
1035,13.758304488935954,1.9573220487937206,-0.05770024092452753,-1.6476899488320123
1036,13.77159753675135,1.7305050127460608,-0.04728680481536703,-1.6947806871444253
1037,13.784890584566748,1.441589165252183,-0.03884868788104152,-1.7350651287524133
1038,13.798183632382145,1.0896695165222183,-0.03303158959614197,-1.7687626934364011
1039,13.811476680197542,0.6772228972557911,-0.029901364666301174,-1.7952369971121007
1040,13.82476972801294,0.2126861724501284,-0.029022632432502197,-1.8131981559395212
1041,13.838062775828336,-0.2883135975897311,-0.029651162093356675,-1.821091635828627
1042,13.851355823643733,-0.8035554230766953,-0.030979410579600696,-1.8175612144142503
1043,13.86464887145913,-1.3066245774344682,-0.03236555774365303,-1.8018657219141656
1044,13.877941919274528,-1.7705906901151447,-0.033487500373129496,-1.774152677199773
1045,13.891234967089924,-2.172093390270869,-0.03438886969705992,-1.735536984909824
1046,13.904528014905322,-2.4948791584121817,-0.03541564329610541,-1.687984581629645
1047,13.91782106272072,-2.7320094531096455,-0.037070685628229995,-1.6340446178400534
1048,13.931114110536116,-2.8863204213160247,-0.0398327771111035,-1.5764995312121948
1049,13.944407158351511,-2.969140082229947,-0.04399242641332704,-1.5180075560137274
1050,13.95770020616691,-2.9976473980742115,-0.049548343243244884,-1.4608009938713948
1051,13.970993253982307,-2.9915101554621417,-0.05618865472485319,-1.4064835134396485
1052,13.984286301797704,-2.969525655997299,-0.06335564607350189,-1.3559473792711985
1053,13.9975793496131,-2.946907905571331,-0.07036965750676767,-1.309410036031261
1054,14.010872397428498,-2.9336518314036963,-0.07657379881879965,-1.2665499554776123
1055,14.024165445243897,-2.934124253021939,-0.08146000729966482,-1.2267057118625668
1056,14.037458493059292,-2.947759377158314,-0.08474754023293313,-1.1890931480629074
1057,14.050751540874687,-2.970534426457153,-0.08640221162482084,-1.1529963881184755
1058,14.064044588690086,-2.996797913530327,-0.08660210969949465,-1.117899611163853
1059,14.077337636505485,-3.021020194873008,-0.08566790027251582,-1.0835443751695546
1060,14.09063068432088,-3.039119089504708,-0.08398055722187044,-1.0499163259866768
1061,14.103923732136275,-3.0491589938251527,-0.08190684113942741,-1.017180441329696
1062,14.117216779951674,-3.051395048443997,-0.07974565450122426,-0.9855924726959929
1063,14.13050982776707,-3.0477901763862967,-0.0776999772598544,-0.9554146825822939
1064,14.143802875582468,-3.0412324744229524,-0.07587230868432544,-0.9268569321046091
1065,14.157095923397868,-3.034705111249559,-0.07427779609096472,-0.9000523627102008
1066,14.170388971213264,-3.0306186350334574,-0.07286828461564593,-0.8750643927089286
1067,14.18368201902866,-3.030431636844184,-0.07156112118670156,-0.8519122567639761
1068,14.196975066844058,-3.0345890566886915,-0.07026739486289359,-0.8305980890900165
1069,14.210268114659454,-3.042723023755734,-0.0689148891495826,-0.8111202507766521
1070,14.223561162474851,-3.0540071917417744,-0.06746182442178636,-0.7934645808612525
1071,14.236854210290248,-3.0675406667761544,-0.06589928873408718,-0.7775754311570093
1072,14.250147258105644,-3.08265774338968,-0.06424327731186061,-0.7633182228017914
1073,14.263440305921042,-3.0990996657120227,-0.06252055576700287,-0.7504509044562067
1074,14.27673335373644,-3.1170268935905314,-0.06075454324011405,-0.7386205122869126
1075,14.290026401551836,-3.136884417480093,-0.05895689863215875,-0.7273931347266638
1076,14.303319449367232,-3.1591581260162185,-0.05712755457140074,-0.7163137695951716
1077,14.31661249718263,-3.184081133473791,-0.055261938810832634,-0.7049811989396823
1078,14.329905544998027,-3.211366065415229,-0.05336098278946977,-0.6931165418891968
1079,14.343198592813424,-3.2400473629219406,-0.051438732105210695,-0.6806055517087742
1080,14.35649164062882,-3.2685089334553723,-0.04952419804294807,-0.6675039259335231
1081,14.369784688444218,-3.2947416094489284,-0.04765737166381991,-0.6540078867044355
1082,14.383077736259615,-3.316821809584884,-0.04588213378701193,-0.6404024615884548
1083,14.396370784075012,-3.3335338367700222,-0.04423958333121005,-0.6270020575440655
1084,14.40966383189041,-3.344986923460362,-0.0427638548035305,-0.6140923677951229
1085,14.422956879705806,-3.3530248249000927,-0.041480005947791956,-0.6018754507651835
1086,14.436249927521205,-3.361213572698285,-0.04040181441299409,-0.5904182475663013
1087,14.449542975336602,-3.3742401147387544,-0.03952754311741514,-0.5796114846732331
1088,14.462836023152,-3.3966667506105153,-0.038833857385410495,-0.5691565397769801
1089,14.476129070967396,-3.431152799846414,-0.038270887457029765,-0.5586041338132373
1090,14.489422118782793,-3.476447423390123,-0.03776331609159247,-0.5474638553187589
1091,14.50271516659819,-3.5256300590771854,-0.03722217454145777,-0.5353862512782037
1092,14.516008214413588,-3.5651678855898297,-0.03656949154845032,-0.52239417950365
1093,14.529301262228984,-3.5753128349750325,-0.035773632258089424,-0.5091154330351263
1094,14.54259431004438,-3.5321377166285135,-0.03488818206939343,-0.4969528008449849
1095,14.555887357859778,-3.4111280219037683,-0.03408294571411991,-0.4881271863282493
1096,14.569180405675176,-3.1917864709018824,-0.033653562874737114,-0.48554699614199215
1097,14.582473453490572,-2.8623096022845584,-0.03399783448756679,-0.492490968404315
1098,14.595766501305969,-2.4232090780470323,-0.0355529646188146,-0.5121356559156502
1099,14.609059549121366,-1.888875206817387,-0.03869809322156823,-0.5470033182774392
1100,14.622352596936762,-1.286518178415364,-0.04363849375411663,-0.5984396508935801
1101,14.63564564475216,-0.6525642715055892,-0.05029798801668318,-0.6662422588574829
1102,14.648938692567556,-0.02724303733468253,-0.05825066582239543,-0.7485417364134845
1103,14.662231740382952,0.5514227725998114,-0.06671937565168881,-0.8419867047591237
1104,14.67552478819835,1.0528661669736528,-0.07465634717542546,-0.942212139119045
1105,14.688817836013747,1.4573329740208414,-0.08090261021619417,-1.044496677147795
1106,14.702110883829144,1.7567452545100366,-0.08440134741305237,-1.1444627859146725
1107,14.71540393164454,1.9531315301679755,-0.08442122219034988,-1.2386614500337685
1108,14.72869697945994,2.0552774175138193,-0.08073515404101556,-1.324914990203596
1109,14.741990027275335,2.0746166551507246,-0.07370335457398994,-1.4023569551369297
1110,14.755283075090734,2.021460401094904,-0.06422896695597585,-1.4711853923030647
1111,14.768576122906133,1.9024804819322017,-0.053587261900166376,-1.532212692952871
1112,14.781869170721528,1.7199935847001175,-0.04316600015940966,-1.5863365638682816
1113,14.795162218536923,1.4731206037353222,-0.03418274501091741,-1.6340674079123236
1114,14.808455266352322,1.1604079604374613,-0.027453630746874038,-1.6752288355628338
1115,14.82174831416772,0.7831031351322856,-0.02327321044169432,-1.7089038665902583
1116,14.835041361983116,0.3480860357323209,-0.02143146593487999,-1.7336361481133862
1117,14.848334409798513,-0.13045900473918434,-0.02135374370107201,-1.747826320435452
1118,14.86162745761391,-0.6312028238056746,-0.022315826310351804,-1.7502084642365268
1119,14.874920505429309,-1.1277336879772664,-0.023669449062024228,-1.740269921965128
1120,14.888213553244704,-1.5920843251536818,-0.02501662580457616,-1.7184982415003258
1121,14.9015066010601,-1.9989118703726587,-0.02629094050322098,-1.6863936571944844
1122,14.914799648875498,-2.329371072066891,-0.027732969754777338,-1.6462541318949346
1123,14.928092696690896,-2.5738210941307025,-0.02977638631655295,-1.600799750436296
1124,14.941385744506292,-2.732811241033097,-0.03288348696344744,-1.552737872646421
1125,14.954678792321689,-2.8162121182216104,-0.037379128663259986,-1.5043741901906154
1126,14.967971840137086,-2.840784626429652,-0.043328856878478775,-1.457351667114744
1127,14.981264887952484,-2.826801842094678,-0.050492010089172784,-1.4125591722634687
1128,14.99455793576788,-2.7944826710936863,-0.058358192393171256,-1.3702061142942117
1129,15.007850983583277,-2.76094202513218,-0.06625213593898643,-1.3300195329341271
1130,15.021144031398675,-2.738152390749258,-0.07347444195918522,-1.291495140868487
1131,15.034437079214072,-2.7321277382067763,-0.07943892670176295,-1.2541299591027277
1132,15.04773012702947,-2.7432667763689147,-0.08377251000588024,-1.2175820282468857
1133,15.061023174844866,-2.767586409274048,-0.0863579395471606,-1.1817352688881977
1134,15.074316222660263,-2.79846330039665,-0.08731762541558234,-1.1466820602250642
1135,15.08760927047566,-2.828483272659735,-0.08695246550115907,-1.1126591757181925
1136,15.100902318291055,-2.851060136627166,-0.08565839188003123,-1.0799768227836881
1137,15.114195366106454,-2.8615988284653096,-0.08384398735354581,-1.0489673580556345
1138,15.127488413921853,-2.858105557854768,-0.08186640088003448,-1.01995924395126
1139,15.140781461737248,-2.841257865768156,-0.07999333946384514,-0.9932646736125021
1140,15.154074509552643,-2.8140244289836214,-0.07838992034511821,-0.9691635287554555
1141,15.167367557368042,-2.780968873153574,-0.07712345960706858,-0.947871919444313
1142,15.18066060518344,-2.747390725726213,-0.076177933512691,-0.9294946737346941
1143,15.193953652998836,-2.7184547064224382,-0.07547207097235815,-0.9139712676088827
1144,15.207246700814231,-2.698439694965867,-0.07487867517878535,-0.9010306212369498
1145,15.22053974862963,-2.6902059322282015,-0.07424547064633896,-0.8901721327652778
1146,15.233832796445029,-2.6949399500659443,-0.07341815694360128,-0.8806888710961348
1147,15.247125844260424,-2.7121951178841592,-0.07226463874761274,-0.8717426989200534
1148,15.26041889207582,-2.7402012063427246,-0.07069706162547469,-0.8624881990197721
1149,15.273711939891218,-2.776370178674767,-0.06868703616498031,-0.8522236596180804
1150,15.287004987706617,-2.81788616569053,-0.06627023497255528,-0.8405297251970182
1151,15.300298035522014,-2.8622494614326137,-0.06353910839770859,-0.8273497696109605
1152,15.31359108333741,-2.9076578991925244,-0.060625543734359515,-0.8129777964809484
1153,15.326884131152807,-2.9531530054093027,-0.05767754636663481,-0.7979483048356267
1154,15.340177178968204,-2.9985201361666154,-0.05483482548873091,-0.7828576250561556
1155,15.3534702267836,-3.0439933566215203,-0.05220779482595959,-0.7681732003221393
1156,15.366763274598998,-3.089860776716162,-0.0498635837434448,-0.7540944157508839
1157,15.380056322414395,-3.136084176408191,-0.04782150990304157,-0.7405120990748086
1158,15.393349370229792,-3.1820361592910618,-0.04605892038003185,-0.7270795678083456
1159,15.40664241804519,-3.2264253768615947,-0.04452615419118938,-0.7133690501914025
1160,15.419935465860586,-3.267437532386261,-0.043166921920913384,-0.6990580141990573
1161,15.433228513675983,-3.3030779280735105,-0.041938550180426803,-0.6840804839271205
1162,15.44652156149138,-3.331664602864854,-0.04082629896808374,-0.6686908710829119
1163,15.459814609306775,-3.352387152849605,-0.039847674780378435,-0.6534165864881649
1164,15.473107657122174,-3.365812408189716,-0.039045685803927095,-0.6389106649883655
1165,15.486400704937571,-3.3741891235919104,-0.038473065538996196,-0.6257462754174793
1166,15.499693752752968,-3.3813939990747346,-0.038171580241224176,-0.6142131705043861
1167,15.512986800568363,-3.3923882236601544,-0.03815134965175856,-0.6041776812842613
1168,15.526279848383762,-3.412128971709806,-0.038375022717406476,-0.5950530131921078
1169,15.53957289619916,-3.4440032371690545,-0.03875113266494296,-0.5858997416242258
1170,15.552865944014556,-3.488006348873822,-0.03914012293932926,-0.5756448921713669
1171,15.566158991829951,-3.5390422797430663,-0.039375120298746416,-0.5633799556439841
1172,15.57945203964535,-3.5858296107521253,-0.03929719632454768,-0.5486799410503572
1173,15.592745087460749,-3.610900530298209,-0.03880153207708411,-0.5318798307840213
1174,15.606038135276146,-3.5920371836379066,-0.03788694778201034,-0.5142506379838443
1175,15.619331183091544,-3.505194062824172,-0.03669749707311813,-0.4980316426037057
1176,15.63262423090694,-3.328557698191966,-0.03554245134060187,-0.48629526723424316
1177,15.645917278722337,-3.047002590020701,-0.03488142534365475,-0.48264465853300237
1178,15.659210326537734,-2.655950533555815,-0.035265879009692094,-0.49077048674684803
1179,15.67250337435313,-2.163643485622354,-0.037237250529751874,-0.5139213062566037
1180,15.685796422168528,-1.5911382781642252,-0.041194498450037184,-0.5543673718125748
1181,15.699089469983925,-0.9698626656622659,-0.04725692446002183,-0.6129544758364187
1182,15.71238251779932,-0.3371858756824896,-0.05515744621117185,-0.6888438095945666
1183,15.725675565614718,0.2690333494215187,-0.06420256744195837,-0.7795095511699933
1184,15.738968613430115,0.8157083287492314,-0.07332545227925305,-0.8810178823296081
1185,15.752261661245512,1.2784655194201646,-0.08123820072980803,-0.9885488351048545
1186,15.76555470906091,1.643516227556669,-0.0866627647279908,-1.0970629996463745
1187,15.778847756876306,1.9072621746555347,-0.08859411166406993,-1.2019777015461321
1188,15.792140804691703,2.0739903692618356,-0.086532663628268,-1.2997144748747929
1189,15.8054338525071,2.1524191517586257,-0.08062274639642383,-1.3880121139198367
1190,15.818726900322496,2.1520439344103433,-0.07165263669593722,-1.4659562271664226
1191,15.832019948137894,2.0801958944498296,-0.06090657323671546,-1.533740713209114
1192,15.845312995953291,1.9405050362879503,-0.049900342815909306,-1.5922343582480427
1193,15.858606043768688,1.7330963977631941,-0.040066463406151845,-1.642466457580007
1194,15.871899091584089,1.4564048228333744,-0.032470198580021946,-1.6851612212743434
1195,15.885192139399484,1.1100601522436828,-0.027627708066488264,-1.7204360133257737
1196,15.89848518721488,0.6979847859752004,-0.02546617384484877,-1.747733086050481
1197,15.911778235030278,0.23075756201955133,-0.025424420435377685,-1.7659885300807665
1198,15.925071282845677,-0.2735305011141959,-0.026655674236542536,-1.7739756772775688
1199,15.938364330661072,-0.7903135401696073,-0.0282724462359732,-1.7707154240653598
1200,15.951657378476469,-1.2913649904160178,-0.02957080393161263,-1.755836716643206
1201,15.964950426291866,-1.7487954708281845,-0.030184524953668107,-1.7297958852019126
1202,15.978243474107265,-2.1393174613685666,-0.03014200832884209,-1.6939102193593432
1203,15.99153652192266,-2.4477773770084563,-0.029823216433340127,-1.6502114049642087
1204,16.004829569738057,-2.669139377886149,-0.02983510879593649,-1.6011643730275866
1205,16.018122617553455,-2.808505426872394,-0.030839205330971117,-1.5493204747048293
1206,16.03141566536885,-2.8792573092886866,-0.0333728390894829,-1.4969804427066011
1207,16.04470871318425,-2.8998598885850333,-0.037705527651594,-1.4459343287557809
1208,16.058001760999645,-2.8901394999526353,-0.04376311875728283,-1.3973246000639796
1209,16.071294808815043,-2.8678822859765893,-0.051135593048995794,-1.3516480451780675
1210,16.08458785663044,-2.846406786176583,-0.059162903840930134,-1.3088785091832438
1211,16.097880904445837,-2.8334420485774734,-0.06707303254042851,-1.268664940631256
1212,16.111173952261233,-2.831296050999089,-0.07413427434393023,-1.230546039538802
1213,16.12446700007663,-2.838018183113934,-0.07978374635796043,-1.1941273151623781
1214,16.137760047892026,-2.849096425006414,-0.08370540781017925,-1.159185809973361
1215,16.151053095707425,-2.8592024501876407,-0.08584824038014433,-1.1256946162890606
1216,16.16434614352282,-2.8635930846330937,-0.08639185346479111,-1.0937841161397717
1217,16.17763919133822,-2.8589524797921366,-0.08567756132438943,-1.0636714877868814
1218,16.190932239153614,-2.8436545880080657,-0.08412623320084331,-1.0355909027239447
1219,16.204225286969013,-2.8175799962762027,-0.0821612917869345,-1.0097463639929736
1220,16.21751833478441,-2.7816984566922787,-0.08014895741667376,-0.9862937814411372
1221,16.230811382599807,-2.737624730683009,-0.0783609502430198,-0.9653454028887554
1222,16.244104430415202,-2.687291948702379,-0.07695919754546536,-0.9469822490980147
1223,16.2573974782306,-2.6327960345106285,-0.07599848132482133,-0.9312598147132594
1224,16.270690526045996,-2.5763797842798173,-0.07544152595255343,-0.9181981109796357
1225,16.283983573861395,-2.520472458374883,-0.07518140217493684,-0.9077569018513029
1226,16.297276621676794,-2.4676935405789115,-0.07506751537243007,-0.8998069285491397
1227,16.31056966949219,-2.420762405476581,-0.07493277114517671,-0.8941131260469751
1228,16.323862717307588,-2.3823077515614712,-0.07461988496681396,-0.890342522644499
1229,16.337155765122983,-2.3546164764181214,-0.07400414404580657,-0.8880979801426404
1230,16.35044881293838,-2.3393851647655377,-0.07300913012403815,-0.8869647012314252
1231,16.363741860753777,-2.3375365777566337,-0.07161224583450805,-0.8865478287836228
1232,16.377034908569176,-2.3491453648322844,-0.06983901952485444,-0.8864826320916729
1233,16.39032795638457,-2.3734897930244405,-0.06774851490359281,-0.886413415685353
1234,16.40362100419997,-2.4092161037042166,-0.06541514773458229,-0.8859561543393194
1235,16.416914052015365,-2.4545755429395495,-0.06291316154759147,-0.8846725303566835
1236,16.430207099830763,-2.5076782029854168,-0.06030827959384379,-0.882081686005705
1237,16.44350014764616,-2.5667077908352387,-0.05765741571633251,-0.8777198085646075
1238,16.456793195461557,-2.6300574841484248,-0.05501360442012052,-0.8712336976591205
1239,16.470086243276953,-2.696373556935154,-0.05243134119648359,-0.8624744136288953
1240,16.48337929109235,-2.7645212188535857,-0.049968184226942235,-0.8515514696526655
1241,16.496672338907747,-2.8335063920286645,-0.047681208382011286,-0.838820475099338
1242,16.509965386723145,-2.9023911007826784,-0.04562006998589817,-0.8248022412936994
1243,16.52325843453854,-2.9702283302671173,-0.043820251034946696,-0.8100574939010087
1244,16.53655148235394,-3.0360225288443803,-0.04229964880586234,-0.7950570824280153
1245,16.549844530169334,-3.098707709079156,-0.041059594921115244,-0.780087442452085
1246,16.563137577984733,-3.1571369183827853,-0.04008909362558178,-0.7652170280882638
1247,16.57643062580013,-3.2100945044487923,-0.03936993832801861,-0.7503284232356594
1248,16.589723673615527,-3.2563639829516684,-0.038880821911792186,-0.735200819484353
1249,16.603016721430926,-3.294892305583889,-0.038599922732450526,-0.7196144675627634
1250,16.61630976924632,-3.325073322663382,-0.03850654078274319,-0.7034450664731872
1251,16.62960281706172,-3.347127199579439,-0.038582362920929446,-0.6867209984298048
1252,16.642895864877115,-3.362487970727586,-0.038811956759996366,-0.6696270834217023
1253,16.656188912692514,-3.374047379082593,-0.03918104037878208,-0.6524523251147576
1254,16.66948196050791,-3.3860652990237528,-0.03967102622623368,-0.6354940480044394
1255,16.682775008323308,-3.4035725055293384,-0.04024981237446045,-0.6189451615645236
1256,16.696068056138703,-3.4311799037892134,-0.04086138047128621,-0.602802130753329
1257,16.7093611039541,-3.471369655237946,-0.041419270291506494,-0.5868342455300741
1258,16.722654151769497,-3.5225493017189504,-0.04181004579350118,-0.57064592350127
1259,16.735947199584896,-3.577342743450171,-0.04191151622378749,-0.5538421791584155
1260,16.74924024740029,-3.621698172611859,-0.041626665768071135,-0.5362772233953722
1261,16.76253329521569,-3.635345380056986,-0.04092878093798999,-0.5183357832462787
1262,16.775826343031085,-3.593899666694176,-0.03990752170443352,-0.5011755057177822
1263,16.789119390846484,-3.4725120648524155,-0.0388012929794771,-0.4868537299277135
1264,16.80241243866188,-3.2504997477709385,-0.037999944163607406,-0.47827600976543916
1265,16.815705486477277,-2.9160021163882126,-0.03800511351435856,-0.47893605498141
1266,16.828998534292673,-2.469546506778822,-0.0393442698979007,-0.49246238034068623
1267,16.84229158210807,-1.9255617984433437,-0.04244785185127632,-0.5220370308122252
1268,16.855584629923467,-1.3113287619682408,-0.04751366156291287,-0.5697938075987518
1269,16.868877677738865,-0.6634729813779473,-0.0543936692034454,-0.6363238114309464
1270,16.882170725554264,-0.022701754004095093,-0.06254033545961643,-0.7204049398975332
1271,16.89546377336966,0.5721082347682266,-0.071039643575427,-0.8190286632665049
1272,16.908756821185058,1.0892425166767539,-0.07873767141216267,-0.927733083163994
1273,16.922049869000453,1.5078333100782546,-0.08444222289141202,-1.0411847036929283
1274,16.935342916815852,1.8192228954124885,-0.08715831497189494,-1.153900213451489
1275,16.948635964631247,2.025862876037388,-0.08630313588456667,-1.2609735612876967
1276,16.961929012446646,2.1381651897760845,-0.08184682592866435,-1.3586740050832884
1277,16.97522206026204,2.170181996980842,-0.0743408361102014,-1.4448051278752638
1278,16.98851510807744,2.135235724614985,-0.06482244650109761,-1.5187600637693701
1279,17.001808155892835,2.042576427096774,-0.05461534078036957,-1.5812693496246633
1280,17.015101203708234,1.8958256961716902,-0.045072863212480094,-1.6339044783737082
1281,17.02839425152363,1.6934740839428455,-0.03732445385151543,-1.6784566410299928
1282,17.041687299339028,1.431173323888392,-0.032082551860613054,-1.7163403229796919
1283,17.054980347154423,1.105132567661741,-0.029548672005234537,-1.7481653762274143
1284,17.06827339496982,0.7156729727805274,-0.029430283643967048,-1.7735784033409072
1285,17.081566442785217,0.26996047995707284,-0.031053577837231134,-1.791404008165545
1286,17.094859490600616,-0.21686568769083228,-0.03353854637059237,-1.8000362796859082
1287,17.10815253841601,-0.7225501601146592,-0.03599518675725343,-1.7979633793309848
1288,17.12144558623141,-1.2204281289249441,-0.03770201482986765,-1.7842744222857112
1289,17.134738634046805,-1.6833523765264178,-0.038236931552065465,-1.7590092986641028
1290,17.148031681862204,-2.087893348432484,-0.03754218003416139,-1.723264615888389
1291,17.161324729677602,-2.417821292734809,-0.035917139165358394,-1.6790441639578475
1292,17.174617777492998,-2.6661133312218843,-0.0339439059735112,-1.6289147033516829
1293,17.187910825308396,-2.835147361564913,-0.032360666091505445,-1.5755745507155183
1294,17.20120387312379,-2.9352050786880257,-0.03190630636497282,-1.5214512747374167
1295,17.21449692093919,-2.9817744945937275,-0.03316550002756394,-1.468418181430069
1296,17.227789968754585,-2.992339829338575,-0.03644488869924935,-1.417671694895802
1297,17.241083016569984,-2.9833596643347695,-0.04170634679979428,-1.3697624655242164
1298,17.25437606438538,-2.9679939270166487,-0.04857212836221319,-1.3247373403406348
1299,17.267669112200778,-2.954899300361477,-0.05640057663656549,-1.2823335322945968
1300,17.280962160016173,-2.948133749651527,-0.06441396714435511,-1.242168589999791
1301,17.294255207831572,-2.9479614344485907,-0.07184714763674449,-1.203884404904078
1302,17.307548255646967,-2.9521883086419476,-0.07808130328927672,-1.1672245596994988
1303,17.320841303462366,-2.957616480492748,-0.08273300514316433,-1.132046503253656
1304,17.33413435127776,-2.9612723466076734,-0.0856827644748387,-1.098288187797134
1305,17.34742739909316,-2.961199472660874,-0.08704489712266963,-1.0659184354698827
1306,17.360720446908555,-2.9567627260204126,-0.08709583036598534,-1.0348991917753232
1307,17.374013494723954,-2.9485430505812396,-0.0861863085824178,-1.005177159732249
1308,17.38730654253935,-2.937983439331257,-0.08466228535314213,-0.9767063401684692
1309,17.400599590354748,-2.9269627180292885,-0.08281112614894061,-0.9494876297766346
1310,17.413892638170143,-2.917431265194172,-0.08083824936417985,-0.9236026307793528
1311,17.427185685985542,-2.911168630815357,-0.07886924856111165,-0.8992199044936603
1312,17.44047873380094,-2.9096535496389446,-0.07696702450802731,-0.8765627903513045
1313,17.453771781616336,-2.9139996447129,-0.0751530863350371,-0.8558438086609935
1314,17.467064829431735,-2.9249112072713968,-0.07342543231754982,-0.8371842849987777
1315,17.48035787724713,-2.942639015193693,-0.07176994223559319,-0.8205434574734504
1316,17.49365092506253,-2.966945026501103,-0.07016598013116462,-0.8056779471880864
1317,17.506943972877924,-2.997100695429475,-0.06858881499961168,-0.7921435044554279
1318,17.520237020693322,-3.031940644803269,-0.06701142911905797,-0.779340983768217
1319,17.533530068508718,-3.0699752826641045,-0.06540701043467569,-0.7666001472995754
1320,17.546823116324116,-3.1095431602404773,-0.06375201210391473,-0.7532882758380754
1321,17.56011616413951,-3.1489688444728126,-0.06202903527474541,-0.7389252523151107
1322,17.57340921195491,-3.18669285070306,-0.06022918401529923,-0.7232834320448072
1323,17.586702259770306,-3.2213558126711104,-0.0583543287393156,-0.7064505531128793
1324,17.599995307585704,-3.2518410075136255,-0.05641986289512016,-0.6888379493106778
1325,17.6132883554011,-3.277297994596046,-0.05445749644869707,-0.6711245479192786
1326,17.6265814032165,-3.297180193361042,-0.052515984059900864,-0.6541395222689602
1327,17.639874451031893,-3.3113289650073905,-0.050656894126778686,-0.6387018242784667
1328,17.653167498847292,-3.320123441218369,-0.04894377753457123,-0.625448987081246
1329,17.666460546662687,-3.324684326443145,-0.047426195212916855,-0.6146940621119927
1330,17.679753594478086,-3.3270706182118084,-0.046123340600935245,-0.6063437277488642
1331,17.69304664229348,-3.330351975506049,-0.045013400993941854,-0.5998941030000274
1332,17.70633969010888,-3.338401011891161,-0.044033334884151676,-0.5945013338672384
1333,17.719632737924275,-3.3552589408162503,-0.04309008890353455,-0.5891103112759847
1334,17.732925785739674,-3.384006007844835,-0.042080337572044935,-0.5826208935242215
1335,17.746218833555073,-3.4252153241301775,-0.04091355710111531,-0.5740741586123297
1336,17.759511881370468,-3.4752579320341077,-0.0395335693369641,-0.5628453419097975
1337,17.772804929185867,-3.52490450710771,-0.03793603824278083,-0.5488301233835632
1338,17.786097977001262,-3.5587645725586796,-0.03618201327353994,-0.532605549011248
1339,17.79939102481666,-3.5560504280370258,-0.03440853849056425,-0.5155386307911134
1340,17.812684072632056,-3.492915086389034,-0.03283560320491336,-0.499809342430569
1341,17.825977120447455,-3.3462158312413117,-0.03176501661885208,-0.48831554309764885
1342,17.83927016826285,-3.0980931299748953,-0.0315634029139138,-0.4844392298451245
1343,17.85256321607825,-2.740377371652176,-0.03262120663140733,-0.4916772729587179
1344,17.865856263893644,-2.27769610835497,-0.03528420290675599,-0.5131719321159949
1345,17.879149311709043,-1.728344589401406,-0.039763212830066674,-0.5512092036074965
1346,17.892442359524438,-1.1224848306789574,-0.0460387962965458,-0.6067761831729701
1347,17.905735407339836,-0.49791948136384345,-0.05378639939853854,-0.6792728699081547
1348,17.91902845515523,0.10565979449039406,-0.06234976147951504,-0.7664545515712445
1349,17.93232150297063,0.652629181385085,-0.07078414014027735,-0.8646402063538743
1350,17.945614550786026,1.116221590613159,-0.07797642469531543,-0.9691684691228224
1351,17.958907598601424,1.4811085988694837,-0.08282924842120079,-1.0750275446637894
1352,17.97220064641682,1.7433541807215207,-0.08447554441761321,-1.1775420071883034
1353,17.98549369423222,1.908024495226027,-0.0824747126233173,-1.272979517307772
1354,17.998786742047614,1.98531440206023,-0.07693777383911114,-1.3589517363741401
1355,18.012079789863012,1.9863436523701743,-0.06854050999536125,-1.434526134072302
1356,18.02537283767841,1.9197411881110207,-0.05841001982087678,-1.5000300809714557
1357,18.038665885493806,1.7898330048554874,-0.047904954086489336,-1.556600391417338
1358,18.051958933309205,1.5967834324636223,-0.038341869958946874,-1.6055934758299817
1359,18.0652519811246,1.3385204241650985,-0.030737819309353313,-1.648008409253239
1360,18.07854502894,1.0138068461879943,-0.025635166712070674,-1.6840759831706587
1361,18.091838076755398,0.6255085577380284,-0.0230498107972905,-1.7131258454404927
1362,18.105131124570796,0.18304915217895004,-0.02254764522425921,-1.733766902732312
1363,18.118424172386188,-0.29673397933183304,-0.02341909203185811,-1.7443233941433403
1364,18.131717220201587,-0.7906641053231338,-0.024898639880068647,-1.743390857356183
1365,18.145010268016986,-1.2720195816935222,-0.02637047588234649,-1.7303410723492485
1366,18.15830331583238,-1.714375047076808,-0.02751127874775403,-1.7056259673688068
1367,18.171596363647776,-2.0955651612538397,-0.02834173421669635,-1.6707987583663193
1368,18.18488941146317,-2.4008601466892623,-0.02918275443833779,-1.6282605396105938
1369,18.19818245927857,-2.6246894512781953,-0.0305349345561291,-1.5808208996635376
1370,18.21147550709397,-2.770640041269682,-0.03291628830812845,-1.5312070835215623
1371,18.224768554909364,-2.849874194353092,-0.036701137211079204,-1.4816568282776812
1372,18.238061602724763,-2.8784499696644392,-0.04200086668336968,-1.4336897019861112
1373,18.25135465054016,-2.8742081075054937,-0.04861535676545767,-1.388087035830577
1374,18.26464769835556,-2.8538828692879394,-0.05606471678352781,-1.3450439134693664
1375,18.27794074617095,-2.830929387508243,-0.0636894055321252,-1.304410044687325
1376,18.29123379398635,-2.814311100957907,-0.07078914150126767,-1.2659241136303003
1377,18.30452684180175,-2.80824651805817,-0.07676253302297216,-1.2293697277530755
1378,18.317819889617144,-2.81273940570318,-0.08121235570073111,-1.1946273518195198
1379,18.331112937432543,-2.824631169955248,-0.08399425816699586,-1.1616436883106676
1380,18.34440598524794,-2.8389038048930697,-0.08520464686271666,-1.1303679712882366
1381,18.357699033063337,-2.8499983691933006,-0.08512051004516537,-1.1007052375366884
1382,18.37099208087873,-2.852972220714173,-0.08411470360299808,-1.0725151704797207
1383,18.38428512869413,-2.844379066272248,-0.082572074271287,-1.0456552644251507
1384,18.397578176509526,-2.822806639502374,-0.08082556179929272,-1.0200430541651935
1385,18.410871224324925,-2.7890449056926823,-0.0791207880631725,-0.9957031534666182
1386,18.42416427214032,-2.7458915986022756,-0.07760728245621766,-0.9727727216518534
1387,18.43745731995572,-2.6976428322528707,-0.07634795888808837,-0.9514587185641742
1388,18.450750367771118,-2.649365385604126,-0.07533696527697267,-0.9319624384090305
1389,18.464043415586517,-2.60608974134508,-0.07451855164850274,-0.9144013852233438
1390,18.477336463401908,-2.5720788109600212,-0.07380386709764103,-0.8987593409798692
1391,18.490629511217307,-2.550305298411119,-0.0730862121182357,-0.8848825285221215
1392,18.503922559032706,-2.5422163576587686,-0.07225666048214291,-0.8725192610925945
1393,18.5172156068481,-2.547795266154782,-0.07122086074227665,-0.8613819542159001
1394,18.530508654663496,-2.56586585664689,-0.06991528480539864,-0.8512024483365462
1395,18.54380170247889,-2.5945408321810723,-0.06831900826922804,-0.841757760847856
1396,18.55709475029429,-2.6316974531891466,-0.06645686661568447,-0.8328602558437563
1397,18.57038779810969,-2.67537454698495,-0.06439200973738725,-0.8243250912361914
1398,18.583680845925088,-2.7240178293186936,-0.06220954521392728,-0.8159390353251044
1399,18.596973893740483,-2.7765452622490994,-0.05999629308612636,-0.8074527165406782
1400,18.61026694155588,-2.8322484983485126,-0.05782299327475993,-0.7986045086526424
1401,18.62355998937128,-2.8905814132335323,-0.05573400980900446,-0.7891663382570409
1402,18.636853037186675,-2.950907504241131,-0.053746393803819396,-0.7789894809253177
1403,18.65014608500207,-3.012282193309239,-0.051856661469428605,-0.7680280471230536
1404,18.66343913281747,-3.0733333146630124,-0.050051346956136625,-0.7563288219611705
1405,18.676732180632865,-3.13227644440053,-0.048317087593348906,-0.7439923109703056
1406,18.690025228448263,-3.187069210215163,-0.046647456421864575,-0.7311233125407492
1407,18.70331827626366,-3.235680367781197,-0.04504594790343089,-0.7177938904724935
1408,18.716611324079057,-3.2764319560069795,-0.04352622085456741,-0.704035078783343
1409,18.72990437189445,-3.3083659106350907,-0.04211113749998145,-0.6898589161317504
1410,18.74319741970985,-3.3315836762929867,-0.0408313629235883,-0.6752967522605207
1411,18.756490467525246,-3.347500544457468,-0.03972305970854927,-0.660431461361312
1412,18.769783515340645,-3.3589412730850814,-0.038823467135058735,-0.6454046412035486
1413,18.78307656315604,-3.369983814962777,-0.038163452900020656,-0.6303928349064323
1414,18.79636961097144,-3.3854483975996614,-0.03775739228474942,-0.6155622180268164
1415,18.809662658786834,-3.4099535049091414,-0.03759241134472452,-0.6010220008742683
1416,18.822955706602237,-3.446541365566204,-0.03762046362543046,-0.5867997125736105
1417,18.83624875441763,-3.4950183702448894,-0.03775738842037356,-0.5728571730822519
1418,18.849541802233027,-3.550332561620895,-0.03789270688556321,-0.5591566096168924
1419,18.862834850048426,-3.601459112110584,-0.03791224441134149,-0.5457741184519269
1420,18.87612789786382,-3.631308077161251,-0.03773264180490509,-0.5330441614532666
1421,18.88942094567922,-3.618045956796698,-0.03734266403057618,-0.5217059906190128
1422,18.90271399349461,-3.537922575773971,-0.03684171718733856,-0.5130136470357942
1423,18.916007041310014,-3.3692751250354154,-0.03646255090274145,-0.5087688330706411
1424,18.92930008912541,-3.0969629601118402,-0.036564521981647495,-0.5112432019512035
1425,18.942593136940808,-2.7162201209612427,-0.03758755294094673,-0.5229741562237885
1426,18.955886184756203,-2.2349199963438373,-0.03996555215801372,-0.5464441495886089
1427,18.9691792325716,-1.6735648597533552,-0.0440103965817204,-0.5836833501661377
1428,18.982472280387,-1.0628646555818577,-0.049790509227029864,-0.6358630684304409
1429,18.995765328202395,-0.4393848410559982,-0.05703710743428132,-0.7029649104625982
1430,19.00905837601779,0.1597730619650639,-0.06511190592659209,-0.7836101592286366
1431,19.02235142383319,0.7020863592058529,-0.07305989566700874,-0.875109871706073
1432,19.035644471648585,1.1634599881198535,-0.0797507163762723,-0.973750000575367
1433,19.048937519463983,1.53011501618184,-0.08408692087394624,-1.0752686199540267
1434,19.06223056727938,1.7983197043865986,-0.08523467310480151,-1.1754320200878732
1435,19.075523615094777,1.9722562632882155,-0.08282001676655065,-1.270589609488705
1436,19.088816662910173,2.0606969485998343,-0.0770371497634153,-1.358091639687964
1437,19.10210971072557,2.073375691506356,-0.06863480001573823,-1.4364855392324571
1438,19.115402758540966,2.0179599122874556,-0.05877805527413663,-1.5054567021448197
1439,19.128695806356365,1.8983483270077104,-0.048816716547488335,-1.565537066676052
1440,19.14198885417176,1.7146728320724463,-0.040016760494833645,-1.6176586664577497
1441,19.15528190198716,1.4649379146556665,-0.03332054965234143,-1.662667576382803
1442,19.16857494980256,1.1477965363529308,-0.029191489169733395,-1.7009248379358068
1443,19.181867997617957,0.7656481360595038,-0.02757402790144401,-1.732098563787209
1444,19.195161045433352,0.3271344779996184,-0.02796900847191767,-1.755198829881534
