,time,Red,Green,Blue
0,0.0,-4.87766751703697,-0.02465410477730901,-0.7137333870938971
1,0.0132929497524826,-5.5222169341307135,-0.028944491725625056,-0.8081965450797467
2,0.0265858995049653,-6.1563146253269165,-0.032950241034639303,-0.9015999009305007
3,0.039878849257448,-6.773105992376446,-0.03646916254150171,-0.9933031809811267
4,0.0531717990099306,-7.368936612214439,-0.039396189518285225,-1.0829961260248813
5,0.0664647487624133,-7.942954264827159,-0.041741552300611454,-1.1705822497020943
6,0.079757698514896,-8.495343365818878,-0.04362127482234765,-1.2558910066094777
7,0.0930506482673786,-9.024639318063924,-0.04522212491653985,-1.3383100261858756
8,0.1063435980198613,-9.524981996582957,-0.04674939229344314,-1.4164748253788229
9,0.119636547772344,-9.984367444749942,-0.04837012581340989,-1.4881546458967982
10,0.1329294975248266,-10.384833251941656,-0.0501657316033926,-1.5504271202775204
11,0.1462224472773093,-10.705020503457996,-0.052105730042175044,-1.6001501064422836
12,0.159515397029792,-10.924789109057585,-0.05404945555580927,-1.6346386740226457
13,0.1728083467822746,-11.030775454822821,-0.05577583324240011,-1.6523723904931662
14,0.1861012965347573,-11.021287491580178,-0.05703473041759465,-1.6535256063300436
15,0.19939424628724,-10.908959403152329,-0.05760821662212864,-1.6401483525608254
16,0.2126871960397226,-10.720159061560445,-0.05736735340402078,-1.615919811112187
17,0.2259801457922053,-10.49106603921404,-0.05631045870354786,-1.5855194893704763
18,0.239273095544688,-10.261299272778258,-0.05457243033962258,-1.5537716453178867
19,0.2525660452971707,-10.066657504763294,-0.05240141340538152,-1.5247793533448943
20,0.2658589950496533,-9.93274176641216,-0.05010761843481674,-1.501257450709402
21,0.279151944802136,-9.87092706094922,-0.04799709088325501,-1.4842049021584214
22,0.2924448945546187,-9.877473069449053,-0.04630788098243709,-1.47295492501873
23,0.3057378443071013,-9.935746439493037,-0.04516536704213227,-1.465543173782986
24,0.319030794059584,-10.02081668840849,-0.044567434063645606,-1.4592715334145345
25,0.3323237438120667,-10.105256471876476,-0.044400996883888946,-1.4513295880938992
26,0.3456166935645493,-10.164878170867784,-0.044482400331337935,-1.4393579667102323
27,0.358909643317032,-10.183317118852981,-0.0446085754423141,-1.4218752980941587
28,0.3722025930695147,-10.154714858649523,-0.044604892393208646,-1.3985231582066164
29,0.3854955428219973,-10.084150999630081,-0.04435887451608604,-1.370103423317646
30,0.39878849257448,-9.985840593715539,-0.04383439774320541,-1.338395566492603
31,0.4120814423269627,-9.879415918362538,-0.04306645249893577,-1.3057592574572596
32,0.4253743920794453,-9.784839674477954,-0.0421403947083651,-1.274557953931288
33,0.438667341831928,-9.716668544415326,-0.041161402311964926,-1.2464805672792576
34,0.4519602915844107,-9.67853401462836,-0.04022016635567898,-1.22188108881239
35,0.4652532413368933,-9.658849803490948,-0.039360730700548345,-1.199286926860857
36,0.478546191089376,-9.628853820393322,-0.03855659154472981,-1.17523221397004
37,0.4918391408418587,-9.544028713587032,-0.03770150665221705,-1.14454088087624
38,0.5051320905943414,-9.349563386609216,-0.03662082457164273,-1.1011093163527816
39,0.518425040346824,-8.98973911066794,-0.03510612672894074,-1.0391246492581985
40,0.5317179900993066,-8.420038233753798,-0.03296996175954916,-0.9545225548348615
41,0.5450109398517894,-7.619645907576563,-0.030109516127779654,-0.8463730463333117
42,0.558303889604272,-6.601246403549361,-0.026561230051532474,-0.7178278425306011
43,0.5715968393567546,-5.4150447498855305,-0.022526614374686352,-0.5763080245055688
44,0.5848897891092374,-4.145024103630399,-0.018355528457876136,-0.43276835840577066
45,0.59818273886172,-2.8974172901218163,-0.014486124997532903,-0.3001130630789035
46,0.6114756886142027,-1.7836316570305728,-0.01135590566981867,-0.1910846527389516
47,0.6247686383666854,-0.9016114462757882,-0.009309398979658398,-0.11611568005601285
48,0.638061588119168,-0.32017280542704313,-0.008529851356903064,-0.0816567493647871
49,0.6513545378716507,-0.06995871774186413,-0.00901401054184905,-0.089358112245216
50,0.6646474876241334,-0.1426413518947409,-0.010594042463835355,-0.1362315797652065
51,0.677940437376616,-0.49758172534656864,-0.012995069667594736,-0.21564267141607618
52,0.6912333871290987,-1.0732001810059462,-0.015906821470928194,-0.31877628766493415
53,0.7045263368815814,-1.79945471207753,-0.019046718364014708,-0.4361488045120939
54,0.717819286634064,-2.6082440436305627,-0.022198642684767768,-0.5588153787989426
55,0.7311122363865467,-3.439926469386249,-0.025222713168791357,-0.6790965312410282
56,0.7444051861390294,-4.24583210584476,-0.028041644769217427,-0.7908435054121372
57,0.757698135891512,-4.987981327918013,-0.030615184408104144,-0.8894026732824161
58,0.7709910856439947,-5.637784223716154,-0.03291470113816698,-0.9714845028992715
59,0.7842840353964774,-6.175227673575582,-0.03490658536760923,-1.0350951080467203
60,0.79757698514896,-6.589222557633675,-0.0365480248128939,-1.0795849416230816
61,0.8108699349014427,-6.878817095914194,-0.037794077050378724,-1.105760614464703
62,0.8241628846539254,-7.054300281366968,-0.03861188174800178,-1.1159367681613215
63,0.837455834406408,-7.137070121283833,-0.038996503005933505,-1.1137996574768871
64,0.8507487841588907,-7.157532814155068,-0.03898292581318951,-1.1040109279643704
65,0.8640417339113734,-7.151024863591253,-0.038649853128195306,-1.0915745576898201
66,0.877334683663856,-7.152496292591512,-0.038113055083536906,-1.0810847652842541
67,0.8906276334163387,-7.191172132543164,-0.037508902383482555,-1.0760310722413122
68,0.9039205831688214,-7.286465892794977,-0.03697172501210897,-1.0783353901616812
69,0.917213532921304,-7.446068033179394,-0.0366107623023928,-1.0882341481213877
70,0.9305064826737868,-7.666527195224143,-0.03649284842673428,-1.1045185692879598
71,0.9437994324262694,-7.935991854485285,-0.0366354043362733,-1.1250449769862987
72,0.957092382178752,-8.238266606121337,-0.03701131406273194,-1.1473592813183497
73,0.9703853319312348,-8.557062650417372,-0.03756378738712156,-1.1692636027043197
74,0.9836782816837174,-8.879308226528314,-0.038226313987920375,-1.1891846285085705
75,0.9969712314362,-9.196606213380317,-0.03894107904335625,-1.2062643105747681
76,1.0102641811886828,-9.50434191353152,-0.03966926463410661,-1.220163209267785
77,1.0235571309411653,-9.798506696303004,-0.0403887090476229,-1.230631560254945
78,1.036850080693648,-10.070945736821841,-0.04107822874363851,-1.2369579535339705
79,1.0501430304461308,-10.304353644615036,-0.04169281673377123,-1.2374486765244126
80,1.0634359801986133,-10.46877097002408,-0.04213865580781001,-1.229116192490293
81,1.076728929951096,-10.521379349030239,-0.04225970865291602,-1.2077480333358706
82,1.0900218797035788,-10.410877191891112,-0.041846811950127114,-1.168468415072932
83,1.1033148294560613,-10.086594301106718,-0.04067469960408904,-1.1067847775338127
84,1.116607779208544,-9.510962863620884,-0.038562861373035995,-1.0199470610337944
85,1.1299007289610268,-8.672459087518586,-0.03544537979301592,-0.9082882354182149
86,1.1431936787135093,-7.595268204152023,-0.03142722241960377,-0.7761294928366885
87,1.156486628465992,-6.342210180193205,-0.026804112902412042,-0.6318811414085768
88,1.1697795782184748,-5.009024357651668,-0.022031913994652833,-0.4871641777354523
89,1.1830725279709573,-3.7105549699516795,-0.017647345679219297,-0.3550675698027456
90,1.19636547772344,-2.5618818219458506,-0.014159100821535207,-0.24794034602445464
91,1.2096584274759228,-1.6590734224995143,-0.011940012513714817,-0.175283724125392
92,1.2229513772284053,-1.0643813200412497,-0.011151926498335253,-0.14228724229487671
93,1.236244326980888,-0.7993010539437325,-0.011724789679347553,-0.14935044428787939
94,1.2495372767333708,-0.846528149906017,-0.013394130134923425,-0.19262574525576032
95,1.2628302264858533,-1.1592898221132486,-0.015783049982406087,-0.26532076782663994
96,1.276123176238336,-1.674666534487208,-0.018502288071792224,-0.35930990356640885
97,1.2894161259908188,-2.3268673870275496,-0.02123853979970204,-0.4665792406310763
98,1.3027090757433013,-3.0570873343895544,-0.02380733759531492,-0.580160616471294
99,1.316002025495784,-3.8182131373789723,-0.026159675330281452,-0.6944397296116926
100,1.3292949752482668,-4.574613088855966,-0.02834667577858759,-0.8049591403562654
101,1.3425879250007493,-5.298828674495168,-0.030459100736834655,-0.9079925085984586
102,1.355880874753232,-5.967670198801253,-0.032564628484213556,-1.000192824167565
103,1.3691738245057148,-6.5598737355407,-0.034664027299163125,-1.0785219245591082
104,1.3824667742581973,-7.056374739171124,-0.03667882232265614,-1.1405056455463083
105,1.39575972401068,-7.442915111677199,-0.038471269318668254,-1.18470094005707
106,1.4090526737631628,-7.713663426201034,-0.03988679180088019,-1.21116674800085
107,1.4223456235156453,-7.874141781569991,-0.040802989685983955,-1.2217246426941197
108,1.435638573268128,-7.9420752801244205,-0.04116920742550218,-1.2198686355954742
109,1.4489315230206108,-7.945598225635144,-0.04102548275868683,-1.2103019437424383
110,1.4622244727730933,-7.919196979551816,-0.04049708966221112,-1.1981987198394883
111,1.475517422525576,-7.898476273374326,-0.03976822326035046,-1.1883717774593479
112,1.4888103722780588,-7.915072252466313,-0.039043652268677606,-1.1845485057759495
113,1.5021033220305413,-7.9927742212807695,-0.03850927988416661,-1.1889121859501275
114,1.515396271783024,-8.145322383620108,-0.03830125326306463,-1.2019727399202014
115,1.5286892215355068,-8.375696671630983,-0.03848913867231414,-1.2227246554864355
116,1.541982171287989,-8.676275040616336,-0.03907321778978351,-1.2489701412377046
117,1.555275121040472,-9.029184851976641,-0.039991290040105675,-1.2776613138690391
118,1.5685680707929548,-9.406501859653746,-0.041128498005885986,-1.3051533565602227
119,1.581861020545437,-9.770513378813211,-0.04232550315728426,-1.3273440015344047
120,1.59515397029792,-10.074798110567187,-0.043384921434727546,-1.339768361376593
121,1.6084469200504028,-10.267110845675885,-0.0440808070966025,-1.33778083913571
122,1.621739869802885,-10.294804308308892,-0.044178167121140074,-1.3169548635168062
123,1.635032819555368,-10.112754683161912,-0.04346699033818662,-1.273756495700054
124,1.6483257693078508,-9.692686930810694,-0.04180831612176667,-1.206420322801243
125,1.661618719060333,-9.031816238873015,-0.039181301905165,-1.1158235356526178
126,1.674911668812816,-8.158284555437644,-0.035714596538671435,-1.0060752502686443
127,1.6882046185652988,-7.1312831721328855,-0.03168656273303589,-0.8845572504849032
128,1.701497568317781,-6.034999781773311,-0.02748795262297567,-0.7612771665656514
129,1.714790518070264,-4.967229838189187,-0.02355421628875278,-0.6475887021520543
130,1.7280834678227468,-4.025033734740016,-0.020286430302682353,-0.5545263264691743
131,1.741376417575229,-3.2906252250882484,-0.017984011891206637,-0.4911209267816719
132,1.754669367327712,-2.8204643565950724,-0.016806952512645433,-0.46306490150783536
133,1.7679623170801948,-2.6394384907034065,-0.01677328966550374,-0.4719853508143391
134,1.781255266832677,-2.7405148399242205,-0.01778500915328926,-0.5154108937348989
135,1.79454821658516,-3.0889026356606335,-0.019668044394899806,-0.5873474149361348
136,1.8078411663376428,-3.6289954934676514,-0.022211660800594668,-0.6792649298746479
137,1.821134116090125,-4.292313700688193,-0.025197623196687523,-0.7812651470593582
138,1.834427065842608,-5.005178231705036,-0.02841641544362981,-0.883237082655227
139,1.8477200155950908,-5.695576113087589,-0.03167304713890762,-0.975882625245236
140,1.861012965347573,-6.299240760224398,-0.03478721149216987,-1.0515647026644328
141,1.874305915100056,-6.765125561515976,-0.03759231446128471,-1.1049674918513075
142,1.8875988648525388,-7.060187241814719,-0.03993665668670356,-1.1335533765070887
143,1.900891814605021,-7.172937814659314,-0.041688919939826576,-1.1377721841981285
144,1.914184764357504,-7.114893580665421,-0.0427491518581047,-1.12095660292441
145,1.9274777141099868,-6.9191018371985855,-0.043064960526134184,-1.0888528625849279
146,1.940770663862469,-6.635421474867772,-0.04265009866038664,-1.0487973364884577
147,1.954063613614952,-6.3230168072861375,-0.04159955196276561,-1.0086403200401477
148,1.9673565633674348,-6.041304352203147,-0.04009330780158783,-0.9756009928008567
149,1.980649513119917,-5.841078028855298,-0.03838206731030828,-0.955274451252992
150,1.9939424628724,-5.757553523926029,-0.03675299407504146,-0.9509825730965643
151,2.007235412624883,-5.80661215647728,-0.03548078060031391,-0.9635725665858527
152,2.020528362377365,-5.984738306923957,-0.03477577042670704,-0.9916513170020735
153,2.033821312129848,-6.272273679981918,-0.03474344352700414,-1.0321409902809104
154,2.0471142618823306,-6.638906127893874,-0.03536684547150303,-1.0809852165941687
155,2.0604072116348133,-7.049951026036074,-0.0365165935572195,-1.1338376635521292
156,2.073700161387296,-7.472029860501597,-0.037984760053709876,-1.186613248610312
157,2.086993111139779,-7.877137594543522,-0.0395322920358907,-1.2358484078510812
158,2.1002860608922616,-8.24466311585004,-0.04093673066150195,-1.2788734816905187
159,2.113579010644744,-8.561506013569764,-0.042028368173231107,-1.3138341841152499
160,2.1268719603972266,-8.820869473358739,-0.04270778561077193,-1.3396126332043337
161,2.1401649101497093,-9.020514772621807,-0.042944176987319053,-1.3557005118836893
162,2.153457859902192,-9.16121436751707,-0.04275980787379054,-1.3620727896422264
163,2.166750809654675,-9.245876150685504,-0.042209390096909626,-1.3590984765030507
164,2.1800437594071576,-9.279426520083575,-0.041362956580449466,-1.3475025728888448
165,2.19333670915964,-9.269170869338048,-0.04029726627044776,-1.3283650234106867
166,2.2066296589121226,-9.225133483158443,-0.03909555005692315,-1.3031201860471606
167,2.2199226086646053,-9.159894123442267,-0.03785094568349387,-1.273516238348272
168,2.233215558417088,-9.087668957148711,-0.03666728607465556,-1.241510732640342
169,2.246508508169571,-9.022724337491098,-0.035652660314416766,-1.2091071513549836
170,2.2598014579220536,-8.977524236115848,-0.03490537516247029,-1.1781639346560306
171,2.273094407674536,-8.961182845046128,-0.03449650487455037,-1.150222268820386
172,2.2863873574270186,-8.97876723884783,-0.03445592299162278,-1.126399063278026
173,2.2996803071795013,-9.031769722945432,-0.034768242065561325,-1.1073772785288605
174,2.312973256931984,-9.119686953819274,-0.035381539588223244,-1.0934971289339626
175,2.326266206684467,-9.24218681396437,-0.03622652678067268,-1.0849111162286451
176,2.3395591564369496,-9.400944524566523,-0.03723902571256632,-1.0817239110786325
177,2.352852106189432,-9.600047741974011,-0.038376229183342915,-1.0840140622053067
178,2.3661450559419146,-9.844051948301711,-0.039618344855213546,-1.0916484300620821
179,2.3794380056943973,-10.133377746651744,-0.04095177834442119,-1.1038615873518602
180,2.39273095544688,-10.457709197361247,-0.04233675497516229,-1.1186724736882936
181,2.406023905199363,-10.789141896154037,-0.04366922370161212,-1.1323212574778105
182,2.4193168549518456,-11.07766527318431,-0.04475179170179406,-1.1389882328124292
183,2.432609804704328,-11.251721559952406,-0.045289334461648845,-1.1310588207728325
184,2.4459027544568106,-11.225755136726246,-0.04492060804035465,-1.1000957284103539
185,2.4591957042092933,-10.91484398882669,-0.043287731791211106,-1.0384779462434202
186,2.472488653961776,-10.254100552008895,-0.04013262323157616,-0.9414176893808279
187,2.485781603714259,-9.218318903411932,-0.03539700033258868,-0.8088555403070372
188,2.4990745534667416,-7.836227838330874,-0.0292952149395161,-0.6466508602105324
189,2.512367503219224,-6.194341862656189,-0.022331197198707048,-0.46658715415865987
190,2.5256604529717066,-4.427861288652486,-0.015243630032386444,-0.2849967380401428
191,2.5389534027241893,-2.699709980669026,-0.008884176674511137,-0.1202002943975617
192,2.552246352476672,-1.1724076281157625,-0.004055200751362731,0.010673133525746024
193,2.565539302229155,0.020253658827878454,-0.0013478128999578553,0.0947053611189045
194,2.5788322519816376,0.7946698773876,-0.0010227139611978455,0.12529174218958972
195,2.59212520173412,1.127083371039129,-0.0029646802616476614,0.10283271046411994
196,2.6054181514866026,1.0500362987536052,-0.006720978679848601,0.03392804183490303
197,2.6187111012390853,0.6379239689074518,-0.011611414545050954,-0.07059549368733774
198,2.632004050991568,-0.013375525356016455,-0.016879860771543735,-0.19820266538955442
199,2.645297000744051,-0.8069218103469542,-0.021848565503843835,-0.3370155797653233
200,2.6585899504965336,-1.6602524605934292,-0.026038724647685873,-0.4774672497709584
201,2.671882900249016,-2.513345330173691,-0.02923212616390961,-0.6129732391297278
202,2.6851758500014986,-3.3289383409337567,-0.03146538037841645,-0.7396814263541757
203,2.6984687997539814,-4.087307830789762,-0.03296573375173857,-0.8556207740411949
204,2.711761749506464,-4.778740083939448,-0.03405136035809047,-0.9596908418452657
205,2.725054699258947,-5.396877910148384,-0.03502601950586756,-1.0508965101799426
206,2.7383476490114296,-5.935099571012355,-0.036096464916868416,-1.1280684183875471
207,2.751640598763912,-6.38655292339932,-0.03733171239259268,-1.1900861224149109
208,2.7649335485163946,-6.746979797911978,-0.0386693364017291,-1.2364197603830027
209,2.7782264982688774,-7.0185061785897345,-0.0399599686507662,-1.2676962513541237
210,2.79151944802136,-7.212398225096481,-0.041031453009839694,-1.2860085169960056
211,2.804812397773843,-7.349350019546153,-0.041751107875801545,-1.2948028185851048
212,2.8181053475263256,-7.456883886912877,-0.04206816476354983,-1.298345168953449
213,2.831398297278808,-7.564506952220484,-0.04202661162617487,-1.3009182256906309
214,2.8446912470312906,-7.698023741819697,-0.04174841802346697,-1.3059863081814433
215,2.8579841967837734,-7.874650343637901,-0.04139560970331608,-1.3155684249756872
216,2.871277146536256,-8.100288944904376,-0.04112475958100196,-1.3299864576256095
217,2.884570096288739,-8.369635848063561,-0.041048106433409684,-1.348037432610201
218,2.8978630460412216,-8.66894136682707,-0.041211898915061045,-1.3675137753167856
219,2.911155995793704,-8.980472094690045,-0.04159608974583047,-1.3858999566823358
220,2.9244489455461866,-9.287258156015083,-0.042132355987468825,-1.4010328549983688
221,2.9377418952986694,-9.576658902487516,-0.042731859873721606,-1.4115345064660005
222,2.951034845051152,-9.841650403597852,-0.04331180680633188,-1.416900522654122
223,2.964327794803635,-10.079418692434231,-0.04381120655206475,-1.417232747829903
224,2.9776207445561176,-10.287654863514415,-0.04419065306927351,-1.41271147644986
225,2.9909136943086,-10.459690080792173,-0.04441695478264431,-1.4029826142885375
226,3.0042066440610826,-10.580096165053387,-0.04443931147199666,-1.3866683845145142
227,3.0174995938135654,-10.622469269124748,-0.04416778460109759,-1.3611884675408725
228,3.030792543566048,-10.550732966891372,-0.043465725257576575,-1.3230062911762548
229,3.044085493318531,-10.324460987160931,-0.042164849841301366,-1.2683074142984367
230,3.0573784430710136,-9.907577138196412,-0.04010491167322262,-1.1939960916126744
231,3.070671392823496,-9.278626812347563,-0.03719077281435677,-1.098790038259065
232,3.083964342575978,-8.440001682882668,-0.03345087660583732,-0.9841319867400187
233,3.0972572923284614,-7.423374510715639,-0.029076289468924748,-0.8546449771858444
234,3.110550242080944,-6.28932428191885,-0.024421776486750583,-0.7179468876988467
235,3.123843191833427,-5.120579787888854,-0.019960575310943744,-0.5837948917038452
236,3.1371361415859096,-4.0100723452298155,-0.016199764925441625,-0.4627121246620197
237,3.150429091338392,-3.0464943008060965,-0.013577558444137964,-0.3643993944656095
238,3.163722041090874,-2.3007911698101733,-0.012371419624801165,-0.2963002820306684
239,3.1770149908433574,-1.8167144707637404,-0.01264341581645053,-0.2626414720132484
240,3.19030794059584,-1.607333419915384,-0.014237748491251782,-0.2641254354285433
241,3.203600890348323,-1.6576654791483127,-0.016829366314890022,-0.2982603931484134
242,3.2168938401008056,-1.9319160519344958,-0.020007556558678283,-0.3601410947051206
243,3.230186789853288,-2.3827544906621965,-0.02336916363629899,-0.44340299301507785
244,3.24347973960577,-2.9599125504965578,-0.026595199807561157,-0.5410894391495662
245,3.2567726893582534,-3.616150000403321,-0.029491972302403056,-0.6462797256308254
246,3.270065639110736,-4.309935477581025,-0.031990668149095555,-0.7524699228889583
247,3.283358588863219,-5.0054990536269965,-0.034113016248128035,-0.8538100427783336
248,3.2966515386157016,-5.671732995297952,-0.03592039570087199,-0.9453320471142963
249,3.309944488368184,-6.281500912865937,-0.037466454358689893,-1.0232488684100394
250,3.323237438120666,-6.812331869063456,-0.03876872043405398,-1.0853026024438006
251,3.3365303878731494,-7.2485417499826035,-0.03980544693755523,-1.1310478099509567
252,3.349823337625632,-7.583950762879299,-0.040534078142716326,-1.161921101420537
253,3.363116287378115,-7.823897367857088,-0.040920833313716876,-1.180988201410085
254,3.3764092371305976,-7.985345632242395,-0.04096868853419375,-1.192357557611898
255,3.38970218688308,-8.094481648646683,-0.040733226209215385,-1.2003649235617764
256,3.402995136635562,-8.182051100753926,-0.040320885813744815,-1.208720606188249
257,3.4162880863880454,-8.277483432490431,-0.03987020228728739,-1.2198368764200724
258,3.429581036140528,-8.403301760837396,-0.03952195021031388,-1.2345075590418124
259,3.442873985893011,-8.571289062942359,-0.03938740106762237,-1.2520110424483217
260,3.4561669356454936,-8.781392967411813,-0.03952435870120747,-1.270586563653072
261,3.469459885397976,-9.023565708688729,-0.03992817069760766,-1.2881309791966353
262,3.482752835150458,-9.281891210552503,-0.04054019608203743,-1.3029086300334296
263,3.4960457849029414,-9.539690557717108,-0.04127057993392785,-1.3140711920079036
264,3.509338734655424,-9.784005315256511,-0.042027353896353696,-1.3218407372342278
265,3.522631684407907,-10.008022254223713,-0.04274147881316091,-1.3272999450978589
266,3.5359246341603896,-10.210593505120642,-0.043378473032946285,-1.331836973857877
267,3.549217583912872,-10.392879866794154,-0.04393165182152404,-1.3363870547158125
268,3.562510533665354,-10.553073705469139,-0.0443985070233345,-1.3406775067506969
269,3.5758034834178374,-10.680883536850272,-0.0447483687568369,-1.3427007470451076
270,3.58909643317032,-10.753765819604746,-0.04489406188230801,-1.3386035943462617
271,3.602389382922803,-10.736647268566095,-0.04468111120132868,-1.32309620152866
272,3.6156823326752856,-10.586094226677888,-0.043904337856142124,-1.2903663514884565
273,3.628975282427768,-10.258687352972984,-0.042353734163651194,-1.2353560044339025
274,3.64226823218025,-9.722015079059096,-0.0398809771827957,-1.1551414024563071
275,3.655561181932733,-8.965587424901189,-0.03646795603958011,-1.0500848958155087
276,3.668854131685216,-8.008513122092262,-0.03227331184247197,-0.9244280901736608
277,3.682147081437699,-6.901285503939482,-0.02763580206906349,-0.786095056331586
278,3.6954400311901816,-5.72049587225236,-0.02302527168830072,-0.6456659071884339
279,3.708732980942664,-4.557345239918015,-0.018949933544168105,-0.5147180983022942
280,3.722025930695146,-3.502751049028773,-0.0158456652412443,-0.40393451291194915
281,3.735318880447629,-2.632906612602805,-0.01398156452791898,-0.32146082090885114
282,3.748611830200112,-1.9989186594734991,-0.013411728775479945,-0.27191625823871163
283,3.761904779952595,-1.6227136927294403,-0.013987408065100381,-0.2562445235825037
284,3.7751977297050776,-1.4993371693248458,-0.015422641399099005,-0.2723176928586771
285,3.78849067945756,-1.6038559027824273,-0.017388550956447178,-0.3159817791311737
286,3.801783629210042,-1.899977665251713,-0.019603324902124592,-0.3821394671180781
287,3.815076578962525,-2.34752334600903,-0.021889084947328614,-0.4655282241732752
288,3.828369528715008,-2.9068968673216564,-0.02418106937006257,-0.5610331638234268
289,3.841662478467491,-3.5402301496502124,-0.02649302316759355,-0.6635948788353784
290,3.8549554282199736,-4.210320683557019,-0.028858235876590387,-0.767945273286968
291,3.868248377972456,-4.879287262562835,-0.031272588828305234,-0.8684649047835621
292,3.881541327724938,-5.508772717487385,-0.033662225440775156,-0.9593851827312874
293,3.894834277477421,-6.062617793619567,-0.03588646580403982,-1.035391713742342
294,3.908127227229904,-6.511639323474929,-0.03777200002001654,-1.0924928235459266
295,3.921420176982387,-6.839030781686816,-0.03916329804529624,-1.1288790188596545
296,3.9347131267348696,-7.044421674116226,-0.03997027313994631,-1.1454682406264642
297,3.948006076487352,-7.144948094297355,-0.04019759878498145,-1.1459154531084137
298,3.961299026239834,-7.172626690459448,-0.03994792129942538,-1.136026166373417
299,3.974591975992317,-7.168486863174465,-0.03939988077868346,-1.122690348848006
300,3.9878849257448,-7.174865644080672,-0.03876859291005117,-1.1125867305205412
301,4.001177875497283,-7.2277118153033815,-0.03825982311931993,-1.1109613604880926
302,4.014470825249766,-7.350609947595231,-0.03802942524733724,-1.120751920594385
303,4.027763775002248,-7.55165321862818,-0.03815718467447134,-1.1422293720423302
304,4.041056724754731,-7.823511815364688,-0.03863977714764006,-1.1731948714472236
305,4.054349674507214,-8.146315425930629,-0.039402314720182234,-1.209641008867337
306,4.067642624259696,-8.492471972360434,-0.04032341564607791,-1.2466952687717738
307,4.080935574012178,-8.832340568541214,-0.04126622842144428,-1.279628287993095
308,4.094228523764661,-9.13971568589341,-0.04210784155155696,-1.304728002879172
309,4.107521473517144,-9.396256145749282,-0.0427614541462494,-1.319894724341729
310,4.120814423269627,-9.594213038736976,-0.04318838538958377,-1.3248784569096954
311,4.134107373022109,-9.737036816760773,-0.04339936440543283,-1.3211425095672518
312,4.147400322774592,-9.837689961621425,-0.043446024362480164,-1.311391639244595
313,4.160693272527075,-9.914787923007419,-0.04340420305998667,-1.2988493972757071
314,4.173986222279558,-9.987047026391513,-0.04335102122802673,-1.286407726908058
315,4.18727917203204,-10.0669075201804,-0.04333838840078185,-1.2757986664351009
316,4.200572121784523,-10.154559014394186,-0.04336696322829744,-1.2669484147819017
317,4.213865071537006,-10.23382156639486,-0.04336645864344217,-1.257663254925022
318,4.227158021289488,-10.271295229075337,-0.043189560124490566,-1.2437597684396065
319,4.24045097104197,-10.219761439173002,-0.04262618750920216,-1.2196841349361631
320,4.253743920794453,-10.025966062386356,-0.041441236437464696,-1.1795689705302979
321,4.267036870546936,-9.641760683109924,-0.03943227032331108,-1.1185652053387118
322,4.280329820299419,-9.036422681590532,-0.0364954864741689,-1.0341882024896312
323,4.293622770051901,-8.207212316597952,-0.032681650501115746,-0.927365557997703
324,4.306915719804384,-7.185213583251755,-0.028222040746997013,-0.8028974813475678
325,4.320208669556867,-6.034406256749981,-0.023510120758257404,-0.6691501639141038
326,4.33350161930935,-4.843580786861448,-0.019037269193895305,-0.5369816142351165
327,4.346794569061832,-3.7126684750640906,-0.015296584266478305,-0.41810244190604284
328,4.360087518814315,-2.736665910574234,-0.01268131602045884,-0.3232364225767183
329,4.373380468566798,-1.991001516729254,-0.011408064076079328,-0.2605066192541986
330,4.38667341831928,-1.5216637997321103,-0.011487199198886647,-0.2344028465650148
331,4.399966368071762,-1.3418770843801338,-0.012746675185072219,-0.2455048731235676
332,4.413259317824245,-1.4351408867335513,-0.014897069524479181,-0.2909082985509224
333,4.426552267576728,-1.7627541738083328,-0.017612824711161757,-0.3651122495740551
334,4.439845217329211,-2.2730860209686203,-0.020602228692709296,-0.4610487225554158
335,4.453138167081693,-2.9100232426405093,-0.02364689756981464,-0.5709826954571398
336,4.466431116834176,-3.6190017675259756,-0.026605973462287113,-0.6871524635962275
337,4.479724066586659,-4.350310798600277,-0.029394191695221367,-0.8021760258343426
338,4.493017016339142,-5.060410372288962,-0.031950724340766484,-0.9093485367719586
339,4.506309966091624,-5.712474503692496,-0.03421516432965418,-1.0029618520584864
340,4.519602915844107,-6.277204902631411,-0.036120056911988226,-1.0787034747825581
341,4.53289586559659,-6.734350681755429,-0.03760026501229751,-1.1340872990755155
342,4.546188815349072,-7.07464530576251,-0.03861234951908928,-1.1687877725838578
343,4.5594817651015545,-7.301348968908251,-0.03915431368622639,-1.1847293202507216
344,4.572774714854037,-7.430456126047539,-0.03927738808539885,-1.1858306091731496
345,4.58606766460652,-7.488916375308572,-0.03908533350330138,-1.1773972469585787
346,4.599360614359003,-7.510790668374254,-0.03872104114846351,-1.1652599939782315
347,4.612653564111485,-7.531905008603416,-0.03834366912644164,-1.1548315323267353
348,4.625946513863968,-7.584049875137551,-0.03810163309979466,-1.150279021228446
349,4.639239463616451,-7.689956652013109,-0.038107419380616486,-1.1539775680536788
350,4.652532413368934,-7.860123475520049,-0.03841954153478749,-1.1663360163345322
351,4.665825363121416,-8.092128550319988,-0.03903525420200577,-1.1859972047777012
352,4.679118312873899,-8.372490865201103,-0.03989525348808607,-1.2103360256202058
353,4.692411262626382,-8.68056175051031,-0.04089902872627701,-1.2361264821217681
354,4.705704212378864,-8.993477761999742,-0.041927284284745465,-1.2602278798467172
355,4.7189971621313465,-9.29096211084644,-0.04286632874577988,-1.2801473793613807
356,4.732290111883829,-9.55877948805314,-0.04362880637363446,-1.2943669401865239
357,4.745583061636312,-9.789940023109885,-0.044165753254708236,-1.302372815327135
358,4.758876011388795,-9.98327514226154,-0.04446668965449064,-1.3043889189601046
359,4.772168961141277,-10.139680458405998,-0.044547168118164414,-1.300882100188885
360,4.78546191089376,-10.257004886383998,-0.044426561657653345,-1.2919663030899184
361,4.798754860646243,-10.325103014590429,-0.04410228877685453,-1.2768724165145746
362,4.812047810398726,-10.322795652895916,-0.04352916529952021,-1.2536599559558663
363,4.825340760151208,-10.218260087670988,-0.042612962961044394,-1.2193144906318922
364,4.838633709903691,-9.973633142787023,-0.04122458308848887,-1.170294535330833
365,4.851926659656174,-9.553443869010653,-0.03923541489837632,-1.1034704362838497
366,4.865219609408656,-8.935179821788859,-0.03656668325146763,-1.0172628055241844
367,4.8785125591611385,-8.119262965465703,-0.03323848667570796,-0.9126838611412851
368,4.891805508913621,-7.135405195642445,-0.02940099269332423,-0.7939581337507923
369,4.905098458666104,-6.042976184345743,-0.02533333604098895,-0.668475853817862
370,4.918391408418587,-4.924552283738175,-0.021405262602790347,-0.5460020341621705
371,4.931684358171069,-3.8737681950776723,-0.018009461913637573,-0.4372765155357855
372,4.944977307923552,-2.980296639070205,-0.015483603013835017,-0.3523222782134131
373,4.958270257676035,-2.3156260158562496,-0.014045387492126136,-0.2988653889496322
374,4.971563207428518,-1.9229951361156084,-0.013759442070802074,-0.28122928891527005
375,4.984856157181,-1.813509830205219,-0.014543529026654343,-0.29991554984503377
376,4.998149106933483,-1.9686027320040782,-0.016208120567253525,-0.3518792789544601
377,5.011442056685966,-2.3472596223628805,-0.018513111396555385,-0.4313233017573527
378,5.024735006438448,-2.8953960866324806,-0.021221889576218185,-0.5307330141971239
379,5.0380279561909305,-3.5547150476043927,-0.024136841081480523,-0.6418805678475509
380,5.051320905943413,-4.269213820175716,-0.027109469826166483,-0.7566249809182541
381,5.064613855695896,-4.988808610475284,-0.03002871651799295,-0.8674695681941802
382,5.077906805448379,-5.670731271526808,-0.03279867955868979,-0.9679450803541666
383,5.091199755200861,-6.279966118320106,-0.03531921074795163,-1.0529223150508418
384,5.104492704953344,-6.789877689525863,-0.03747960049012633,-1.1189180944602615
385,5.117785654705827,-7.183518163265032,-0.0391687779311808,-1.1643773357895606
386,5.13107860445831,-7.455293469279457,-0.04029818228248469,-1.1898418003016593
387,5.144371554210792,-7.612113109495738,-0.04082843272798267,-1.197893364529925
388,5.157664503963275,-7.673081128948789,-0.04078956087815224,-1.192798989337214
389,5.170957453715758,-7.667191732336781,-0.04028680171767318,-1.1798686419380728
390,5.18425040346824,-7.6291626516653315,-0.03948861863704301,-1.164630207344325
391,5.1975433532207225,-7.594184493742193,-0.03859914871285084,-1.1519895378102212
392,5.210836302973205,-7.592743434310185,-0.03782197030626873,-1.1455556057781964
393,5.224129252725688,-7.6466708323193435,-0.03732466177185234,-1.1472675034933157
394,5.237422202478171,-7.76721000494812,-0.037213225208663,-1.1573780525238067
395,5.250715152230653,-7.955299363769593,-0.03752214027018319,-1.1747551488414703
396,5.264008101983136,-8.203638446985591,-0.0382206533525096,-1.1973841508849745
397,5.277301051735619,-8.499614266089573,-0.03923071342992136,-1.2229119376442934
398,5.290594001488102,-8.827960606156328,-0.04044863415091772,-1.2490734640195147
399,5.303886951240584,-9.172171501795273,-0.04176230231971442,-1.2738829021113052
400,5.317179900993067,-9.514175386138982,-0.043058609940061714,-1.295546040549388
401,5.33047285074555,-9.832489967255496,-0.04422064573579822,-1.3121452673903302
402,5.343765800498032,-10.099822798609152,-0.04511920679927058,-1.321241431738913
403,5.3570587502505145,-10.281601206522566,-0.045606491296848586,-1.3195976148985429
404,5.370351700002997,-10.336959824243985,-0.04552010105579857,-1.3032275539471883
405,5.38364464975548,-10.22315168546772,-0.04470238168955076,-1.2678908877887698
406,5.396937599507963,-9.903256695116738,-0.04303436927336457,-1.2100120523148925
407,5.410230549260445,-9.355749928774788,-0.04047683472373528,-1.1278328217007771
408,5.423523499012928,-8.58342707310153,-0.037105453784851826,-1.0224798841263534
409,5.436816448765411,-7.61882315826007,-0.03312553469014654,-0.898592614093409
410,5.450109398517894,-6.523863972831041,-0.02885582775448736,-0.7642390479550373
411,5.463402348270376,-5.382976946477191,-0.024680512390976756,-0.630035180469281
412,5.476695298022859,-4.290814102556827,-0.020980431177997815,-0.5076176968963633
413,5.489988247775342,-3.3374283409801775,-0.0180637866174415,-0.4078219785822798
414,5.503281197527824,-2.5945558131811732,-0.016117966471607414,-0.3390102210163084
415,5.5165741472803065,-2.1062676334390384,-0.015196405882357497,-0.3059417260222394
416,5.529867097032789,-1.8858093934356455,-0.015240604899307524,-0.3093989564179377
417,5.543160046785272,-1.9185072051107783,-0.016124003898626445,-0.34654936258260344
418,5.556452996537755,-2.168920170840593,-0.017697598534109724,-0.41182468371448266
419,5.569745946290237,-2.5895601829908927,-0.019819717117803205,-0.4980061217565857
420,5.58303889604272,-3.1286980433316343,-0.02236233669587671,-0.5972346695640157
421,5.596331845795203,-3.7358001469992828,-0.02519833903182582,-0.7017855018789759
422,5.609624795547686,-4.364454386597582,-0.028182467325220336,-0.8045864101308097
423,5.622917745300168,-4.973666232985327,-0.031140172708875598,-0.8995590549092545
424,5.636210695052651,-5.528765056105913,-0.03387344376219662,-0.9818862476836858
425,5.649503644805134,-6.002823893412375,-0.036184337809763545,-1.0482661477408024
426,5.662796594557616,-6.378734433457502,-0.037909311658108784,-1.0971409430502952
427,5.6760895443100985,-6.651311129610405,-0.03895343037825399,-1.1288261097297427
428,5.689382494062581,-6.8283912894014085,-0.03931385533143223,-1.145447275862676
429,5.702675443815064,-6.930017948217311,-0.03908562246298403,-1.1506232187680974
430,5.715968393567547,-6.985360311864209,-0.038447802281341294,-1.1489020464969402
431,5.7292613433200295,-7.02778332312019,-0.03763305481743208,-1.1450361024297886
432,5.742554293072512,-7.089112414526019,-0.03688729289117185,-1.143239835565487
433,5.755847242824995,-7.194416381182304,-0.03642805290611237,-1.1465911748534034
434,5.769140192577478,-7.358469697998633,-0.03640998699750052,-1.1567026938180214
435,5.78243314232996,-7.584540768500381,-0.036903777305610105,-1.1737139220162534
436,5.795726092082443,-7.865486100616435,-0.03789137395606373,-1.196565864132325
437,5.809019041834926,-8.186543541664717,-0.03927676042468433,-1.2234444744276491
438,5.822311991587408,-8.528885188030552,-0.04090840371368728,-1.252246393697579
439,5.8356049413398905,-8.872979101029959,-0.04260774849361013,-1.2809369775766997
440,5.848897891092373,-9.20107345080183,-0.04419775252864968,-1.307729105834414
441,5.862190840844856,-9.49853274165648,-0.04552642261521794,-1.3310890566926772
442,5.875483790597339,-9.75416789743922,-0.04648225215834256,-1.3496435805396558
443,5.8887767403498215,-9.959974957915886,-0.04700082222802157,-1.3620938220067897
444,5.902069690102304,-10.110761300228527,-0.04706392535680768,-1.3672246104338108
445,5.915362639854787,-10.204013602356726,-0.046693843383437995,-1.3640412829579103
446,5.92865558960727,-10.240141248298212,-0.045945652897994196,-1.351999012442146
447,5.941948539359752,-10.223021590742462,-0.044899818870840665,-1.3312440753695165
448,5.955241489112235,-10.16064121681765,-0.04365621713252653,-1.3027803645645628
449,5.968534438864718,-10.065562531465261,-0.04232942235858673,-1.268501556482629
450,5.9818273886172,-9.95490549875652,-0.04104389961914782,-1.2310672468312986
451,5.9951203383696825,-9.849501355090302,-0.03992698296063999,-1.1936291531476508
452,6.008413288122165,-9.771882610349037,-0.039097558016654495,-1.1594251998385314
453,6.021706237874648,-9.74289094372789,-0.038649359563641135,-1.13126435571294
454,6.034999187627131,-9.776970804871002,-0.038629628385706605,-1.110938510537295
455,6.0482921373796135,-9.87667665569649,-0.039016170104290225,-1.0986288152849313
456,6.061585087132096,-10.027476804940354,-0.039698104357298696,-1.0924193294756797
457,6.074878036884579,-10.194413857476786,-0.04046718595889052,-1.088072634602659
458,6.088170986637062,-10.322341698169252,-0.04102683594283467,-1.079232417746917
459,6.101463936389544,-10.341077282857063,-0.04102421436992305,-1.058170276372552
460,6.114756886142027,-10.175792296682081,-0.0401062747835752,-1.0170780022538877
461,6.12804983589451,-9.76147074058276,-0.03799392165691697,-0.9497405013102835
462,6.141342785646992,-9.058674238962595,-0.0345604897366855,-0.8532554128289664
463,6.1546357353994745,-8.06674868799441,-0.029894408686520536,-0.7293570462866619
464,6.167928685151957,-6.830507174292977,-0.024324392321420626,-0.5849127542031861
465,6.18122163490444,-5.437611821861349,-0.01839133595658893,-0.4313172130801582
466,6.194514584656923,-4.006187458816365,-0.012764401675339248,-0.2827914294613167
467,6.2078075344094055,-2.6649894009757817,-0.008116116502980013,-0.15392007640948002
468,6.221100484161888,-1.5307733487254414,-0.004986491130174398,-0.05701914559504886
469,6.234393433914371,-0.6885004826479884,-0.0036727239971131704,-1.0852244528788274e-05
470,6.247686383666854,-0.17923276627138912,-0.0041754694987816325,0.014652756702764636
471,6.260979333419336,0.001730036562564926,-0.006216278407101825,-0.01020646526596198
472,6.274272283171819,-0.10306172941132881,-0.00931942929491532,-0.06779884829764748
473,6.287565232924302,-0.4277458747492246,-0.012932620152511037,-0.14930487720013938
474,6.300858182676784,-0.8996887864434551,-0.016551242229279593,-0.245833718947596
475,6.3141511324292665,-1.4535075918384834,-0.019812901134216607,-0.3498731380037104
476,6.327444082181749,-2.0395157990505783,-0.022540844446798748,-0.45594767169775435
477,6.340737031934232,-2.6256980374398986,-0.02473214824795436,-0.5605039861543893
478,6.354029981686715,-3.1943932827365753,-0.026502960857466226,-0.6612868748923619
479,6.3673229314391975,-3.736215459259136,-0.028013851943392776,-0.7565817049049811
480,6.38061588119168,-4.24406194730929,-0.029400778026220247,-0.8446631715131947
481,6.393908830944163,-4.709413454924572,-0.030731570782042854,-0.9236425244004335
482,6.407201780696646,-5.121863111995638,-0.03199686294142459,-0.9917135788238601
483,6.420494730449128,-5.471432333721178,-0.03313211093938912,-1.0476342422272011
484,6.433787680201611,-5.752220691706028,-0.03405795325844568,-1.0911986285867503
485,6.447080629954094,-5.965599273264967,-0.03472220461817713,-1.1234746701263918
486,6.460373579706576,-6.1215200295034355,-0.0351287511536555,-1.146685738484273
487,6.4736665294590585,-6.237350417072882,-0.03534489223765641,-1.1637564910910148
488,6.486959479211541,-6.334587488225982,-0.03548661090247842,-1.1776676142245657
489,6.500252428964024,-6.434507789685151,-0.03568818692415288,-1.1908269339307354
490,6.513545378716507,-6.55405736291364,-0.03606659898701482,-1.2046476132615551
491,6.5268383284689895,-6.703060740279992,-0.03669153186480374,-1.2194410506033548
492,6.540131278221472,-6.883279826496694,-0.03756891970313442,-1.2346190924906033
493,6.553424227973955,-7.089224735625113,-0.038641143333470296,-1.2491009096639543
494,6.566717177726438,-7.31014200644456,-0.039801997949555926,-1.2617682343896222
495,6.58001012747892,-7.532422054288631,-0.040920904958429864,-1.2718213191089405
496,6.593303077231403,-7.741787385817975,-0.041869425967953414,-1.278945878743038
497,6.606596026983886,-7.9249393937563966,-0.042543944788674695,-1.283280175938053
498,6.619888976736368,-8.070686272025496,-0.0428806931154219,-1.2852390881484652
499,6.6331819264888505,-8.170791314641335,-0.04286205110747965,-1.2852863233626217
500,6.646474876241333,-8.220788681762093,-0.042515286426394565,-1.283742681147746
501,6.659767825993816,-8.22083538685335,-0.041906014141244584,-1.2806886183628843
502,6.673060775746299,-8.176410642359526,-0.041128563350704375,-1.2759800610336502
503,6.6863537254987815,-8.098473778453787,-0.04029448513680777,-1.2693598238239356
504,6.699646675251264,-8.002659282007787,-0.03951933694349886,-1.26061881936879
505,6.712939625003747,-7.907267102405512,-0.03890744242713322,-1.2497448501574133
506,6.72623257475623,-7.830164558524393,-0.03853508125936815,-1.2369975013774666
507,6.7395255245087125,-7.785143560136444,-0.038434359880688745,-1.222870287097652
508,6.752818474261195,-7.778613273585235,-0.038581921779864525,-1.207942852183823
509,6.766111424013678,-7.807598574789552,-0.03889735418156895,-1.1926726971720218
510,6.77940437376616,-7.8597804628232195,-0.03925466693401614,-1.1772077449169895
511,6.7926973235186425,-7.91580189975421,-0.039506603878619734,-1.16130263672646
512,6.805990273271125,-7.953428520040576,-0.039517018333611535,-1.1443894861646413
513,6.819283223023608,-7.952602339132153,-0.03919301022541004,-1.125798033957307
514,6.832576172776091,-7.9001335108956265,-0.038507667248959584,-1.1050607899665672
515,6.8458691225285735,-7.792835713261405,-0.03750668915670766,-1.0821990740658514
516,6.859162072281056,-7.638317057155512,-0.036297108450034754,-1.0578836629754933
517,6.872455022033539,-7.453277347666521,-0.03502189042229586,-1.0334028334923804
518,6.885747971786022,-7.259839281781398,-0.03382829947457658,-1.010436974611205
519,6.8990409215385045,-7.080940446048922,-0.03283912844440587,-0.9907060058721359
520,6.912333871290987,-6.9359841656020915,-0.032134016015466935,-0.9755973454781206
521,6.92562682104347,-6.837766241194733,-0.03174413494834913,-0.965884846380505
522,6.938919770795952,-6.791259351066613,-0.03165913193775755,-0.9616163488431992
523,6.9522127205484345,-6.794304480624064,-0.03184179544147973,-0.9621935845523819
524,6.965505670300917,-6.839776640567443,-0.03224436983572763,-0.9666102048877283
525,6.9787986200534,-6.918466293893395,-0.03282092985528749,-0.9737673098759954
526,6.992091569805883,-7.021811905187846,-0.03353247681610825,-0.982764050989538
527,7.0053845195583655,-7.143751651102891,-0.03434466741102589,-0.9930717101899909
528,7.018677469310848,-7.281293270443245,-0.035221202481405374,-1.0045415835729679
529,7.031970419063331,-7.433827877357275,-0.03611766399414315,-1.0172565513383478
530,7.045263368815814,-7.60160119978965,-0.036980212109804185,-1.0312919594526728
531,7.0585563185682965,-7.783985697837931,-0.03775115582578605,-1.046482767042983
532,7.071849268320779,-7.978205984057636,-0.03838003576398058,-1.0622893194983627
533,7.085142218073262,-8.178962749937478,-0.03883602547545803,-1.0778151444509327
534,7.098435167825744,-8.379046825108091,-0.03911645731105855,-1.0919709255982895
535,7.1117281175782265,-8.570656963127965,-0.0392475747914377,-1.1037217027169233
536,7.125021067330709,-8.746874706364284,-0.0392766277239746,-1.1123223021227977
537,7.138314017083192,-8.90271474547915,-0.03925780459620563,-1.1174525389795178
538,7.151606966835675,-9.035377950109428,-0.03923676368386762,-1.1192058956190654
539,7.1648999165881575,-9.143701564803944,-0.03923881220344271,-1.1179449533386678
540,7.17819286634064,-9.227177696517508,-0.03926421330119175,-1.1140898260840113
541,7.191485816093123,-9.285148740663132,-0.039291594233405475,-1.1079333590370681
542,7.204778765845606,-9.316789201266747,-0.03928810421837112,-1.0995705784285088
543,7.218071715598088,-9.322222427664611,-0.03922354100542915,-1.0889912655802156
544,7.231364665350571,-9.304652345764426,-0.03908518473690767,-1.076322876008548
545,7.244657615103054,-9.272846408943748,-0.03889011980559719,-1.0621430129856837
546,7.257950564855536,-9.242873021328313,-0.03869192502456403,-1.0477285710544713
547,7.271243514608018,-9.237858386514315,-0.03857866031208234,-1.035094037160238
548,7.284536464360501,-9.284796411427388,-0.03865943609468709,-1.026706333975975
549,7.297829414112984,-9.408120033941685,-0.03903816487677456,-1.0248451318046994
550,7.311122363865467,-9.620711479550469,-0.03977592168166755,-1.0306888239462815
551,7.324415313617949,-9.914094424452935,-0.04084771602164812,-1.0433213001961692
552,7.337708263370432,-10.250446087353149,-0.042104514562345825,-1.058942900303258
553,7.351001213122915,-10.559474804077606,-0.04325510980805523,-1.0705996285525867
554,7.364294162875398,-10.742819359832723,-0.04388236872736129,-1.0686919034793878
555,7.37758711262788,-10.687258620463227,-0.043502516882672655,-1.0423758717509704
556,7.390880062380363,-10.28576841074865,-0.04166435001703374,-0.9817399494947565
557,7.404173012132846,-9.462797619200803,-0.03807033458368898,-0.8803733816518345
558,7.417465961885328,-8.197872766567246,-0.03268861509324786,-0.7377203818654856
559,7.43075891163781,-6.540731429624785,-0.0258199032394521,-0.5605252456213765
560,7.444051861390293,-4.612348438089259,-0.018090241386582055,-0.36279357533820966
561,7.457344811142776,-2.5895284458704997,-0.01035970260989253,-0.16403455452117516
562,7.470637760895259,-0.6753859735520944,-0.0035629507969948265,0.013967070081418507
563,7.483930710647741,0.9375191137150443,0.0014789604028382561,0.15112793795426133
564,7.497223660400224,2.1020659004867945,0.004224556249580331,0.23278838205759061
565,7.510516610152707,2.740562856289546,0.004510145796953567,0.25220971213190135
566,7.52380955990519,2.8522419557145233,0.00255562802407952,0.2112317022685318
567,7.537102509657672,2.5036513582218474,-0.0011182773995688407,0.11903112411606054
568,7.550395459410155,1.806200817497397,-0.005832052899945225,-0.010524824860402529
569,7.563688409162638,0.888186355882478,-0.010905400027424966,-0.16208193334860224
570,7.57698135891512,-0.13092114344093647,-0.01578898666903011,-0.3216626399457222
571,7.590274308667602,-1.1580790815657305,-0.020141106904516697,-0.4785329725003903
572,7.603567258420085,-2.133651758853568,-0.023839991045892323,-0.6258219806405303
573,7.616860208172568,-3.028680380860696,-0.02694113662254737,-0.7600546457616197
574,7.630153157925051,-3.835841738123839,-0.029601601938837586,-0.8800428186362608
575,7.643446107677533,-4.558478566757784,-0.03199752351189144,-0.9856677696818913
576,7.656739057430016,-5.201578223446567,-0.03425773275571361,-1.0769902584665574
577,7.670032007182499,-5.767010586434532,-0.03642771541471945,-1.1539045017688356
578,7.683324956934982,-6.253379082395989,-0.038467616517538585,-1.2163037167422064
579,7.696617906687464,-6.659170214310859,-0.04027864233451983,-1.2645347795932687
580,7.709910856439947,-6.986989449890647,-0.041746019808175064,-1.299843201320117
581,7.72320380619243,-7.246699080677629,-0.04278425252938501,-1.3245558812136284
582,7.736496755944912,-7.456048211984065,-0.04337145698954992,-1.3418836856455958
583,7.749789705697395,-7.63851023467082,-0.04356344684057803,-1.3553887818772827
584,7.763082655449877,-7.8190786802957355,-0.04348417223863905,-1.3682907193466625
585,7.77637560520236,-8.019390252797825,-0.043295923860296966,-1.3828379332614158
586,7.789668554954843,-8.253615536800348,-0.04315862196255625,-1.3999372111058965
587,7.802961504707325,-8.526158337657268,-0.04319060222933955,-1.4191343678945285
588,7.816254454459808,-8.831549589444789,-0.043442355201311296,-1.438917430429278
589,7.829547404212291,-9.156271491110326,-0.04388994995063023,-1.457215236216761
590,7.842840353964774,-9.481811924532963,-0.04444823854646616,-1.4719226192323587
591,7.856133303717256,-9.788123760337802,-0.04499801483065305,-1.4813071670502407
592,7.869426253469739,-10.056812929137902,-0.04541817848195602,-1.4842246333726092
593,7.882719203222222,-10.273669985875921,-0.04561426013541061,-1.480155356113731
594,7.896012152974704,-10.430429585859954,-0.045537507902438656,-1.46913509263762
595,7.909305102727187,-10.525772374498676,-0.04519243922964906,-1.4516671985606489
596,7.922598052479669,-10.565547559218606,-0.04463377138831533,-1.4286689356169315
597,7.935891002232152,-10.562059504712462,-0.0439551201657306,-1.4014439641591552
598,7.949183951984635,-10.532153428933809,-0.04327180869609144,-1.3716171597385762
599,7.962476901737117,-10.493883007865636,-0.04269928110854946,-1.340945736895378
600,7.9757698514896,-10.461827575829725,-0.04232810809772812,-1.3109490614410024
601,7.989062801242083,-10.4416377366474,-0.04219741243818611,-1.2823769407143812
602,8.002355750994566,-10.42499443955759,-0.042270910592364874,-1.2546395017991296
603,8.015648700747048,-10.38662585522635,-0.042422607806010225,-1.225409073899665
604,8.028941650499531,-10.285055816177847,-0.042440541197463995,-1.1906280474866842
605,8.042234600252014,-10.06815722955772,-0.04205497122133545,-1.1450848121228123
606,8.055527550004497,-9.68336399813543,-0.0409914121731633,-1.0835572531102466
607,8.06882049975698,-9.090838815932484,-0.039040071103357166,-1.0023166604389957
608,8.082113449509462,-8.276510487309453,-0.036124634281510616,-0.9006089000932828
609,8.095406399261945,-7.261257929608949,-0.03234882948315776,-0.7816587235894356
610,8.108699349014428,-6.103039831956118,-0.028002057543440328,-0.6528211696667775
611,8.12199229876691,-4.890477726857234,-0.023516321300821763,-0.5247235101992461
612,8.135285248519391,-3.728843040300055,-0.019382617484786382,-0.4095386129907105
613,8.148578198271874,-2.721750852092795,-0.016049713161777356,-0.31880447201150214
614,8.161871148024357,-1.9532434670487355,-0.013835227198217719,-0.2613532042721881
615,8.17516409777684,-1.4748049414015658,-0.012874683011125144,-0.24187723590669474
616,8.188457047529322,-1.3002226205309877,-0.013120318795412903,-0.2604526443142102
617,8.201749997281805,-1.408724004318009,-0.014383947804639844,-0.31303908928436225
618,8.215042947034288,-1.754397910432159,-0.01640439111850945,-0.3926953490510305
619,8.22833589678677,-2.2784025344604575,-0.018915055766413887,-0.4910869657473101
620,8.241628846539253,-2.9202921716156593,-0.021691829745242846,-0.5998607344400156
621,8.254921796291736,-3.6258338280689646,-0.024572235689068106,-0.7115955275549085
622,8.268214746044219,-4.350383234237171,-0.027448447932525023,-0.8202385240335327
623,8.281507695796702,-5.0585489381915565,-0.030244832947057154,-0.9211185300495968
624,8.294800645549184,-5.721932867934609,-0.032893110984894294,-1.010735450035009
625,8.308093595301667,-6.316942393327817,-0.03531569956487326,-1.0865374751520798
626,8.32138654505415,-6.824100049989901,-0.037422551879328095,-1.146830874205108
627,8.334679494806633,-7.229258078156937,-0.039121318178486415,-1.1908590850323764
628,8.347972444559115,-7.526088905001523,-0.04033656720352543,-1.2189825242069745
629,8.361265394311598,-7.7185561564661525,-0.04103162173545199,-1.2328256746729314
630,8.37455834406408,-7.821985887929767,-0.04122609856772713,-1.2352539421086306
631,8.387851293816563,-7.8618324442749685,-0.0410032093954423,-1.2300975098909337
632,8.401144243569046,-7.870042033414085,-0.040503145243093605,-1.2216299940929038
633,8.414437193321529,-7.879736558970284,-0.03990225349640274,-1.2139006005391966
634,8.427730143074012,-7.919482631735961,-0.03938163513110235,-1.2100754837391106
635,8.441023092826494,-8.008524692602865,-0.03909216123553057,-1.211947947657775
636,8.454316042578975,-8.154064041970864,-0.0391245277495088,-1.219730784744572
637,8.467608992331458,-8.351103830667466,-0.039492109902798674,-1.232168383530163
638,8.48090194208394,-8.58475002185301,-0.0401312190048706,-1.2469288146683937
639,8.494194891836424,-8.83432879015236,-0.04091892150241129,-1.2611787564055235
640,8.507487841588906,-9.078349638753,-0.041704225106682286,-1.272216194977374
641,8.520780791341389,-9.299234265787028,-0.04234531016073843,-1.2780350568457248
642,8.534073741093872,-9.486815786858239,-0.04274414528444672,-1.2777141113792603
643,8.547366690846355,-9.639842061170338,-0.042870268636170744,-1.2715517331813928
644,8.560659640598837,-9.765047861850872,-0.04276745636333302,-1.2609047291495679
645,8.57395259035132,-9.8737735353531,-0.042540170680573586,-1.2477345742807708
646,8.587245540103803,-9.97659763555922,-0.042320873463516914,-1.233920955305625
647,8.600538489856286,-10.076991064798182,-0.04222412493671049,-1.220468524279033
648,8.613831439608768,-10.165497411250529,-0.042298025484618085,-1.2067949485821774
649,8.627124389361251,-10.2162274364604,-0.042486660948022156,-1.1903219091709738
650,8.640417339113734,-10.187324573294985,-0.04261722722972315,-1.1665683634170936
651,8.653710288866217,-10.026377857551061,-0.04242127802213345,-1.1298519390898258
652,8.6670032386187,-9.680556386843222,-0.041591021779999855,-1.074548606623732
653,8.680296188371182,-9.1097583586238,-0.039860441464379,-0.9966789216192168
654,8.693589138123665,-8.299745966263115,-0.03709059230825994,-0.8954375569870622
655,8.706882087876147,-7.2715962154654425,-0.03333302682077041,-0.7742223659384531
656,8.72017503762863,-6.084246109136234,-0.02884841271974813,-0.6407927033160341
657,8.733467987381113,-4.8285227379100135,-0.024069737616704816,-0.5063959088144658
658,8.746760937133596,-3.6134295513980335,-0.01951757657170165,-0.3839932993462772
659,8.760053886886078,-2.5478183825995444,-0.01569179732991247,-0.2859959441816662
660,8.77334683663856,-1.722028088246837,-0.012972372719195005,-0.22208064388014975
661,8.786639786391042,-1.1940393999165695,-0.011557699688438729,-0.1976321232258631
662,8.799932736143525,-0.983197312753625,-0.011453899130332675,-0.21315601430770573
663,8.813225685896008,-1.0721883582439002,-0.012509914202537258,-0.2647080488261283
664,8.82651863564849,-1.4156267436749614,-0.014479064437208323,-0.34510149374583665
665,8.839811585400973,-1.9520857397779015,-0.017083301648745053,-0.4454827596144497
666,8.853104535153456,-2.6160821677546955,-0.020061756182982816,-0.5568442354202265
667,8.866397484905939,-3.3472781612377105,-0.023195867408687763,-0.671152612310805
668,8.879690434658421,-4.095566775180506,-0.026313713614171296,-0.7819500840754298
669,8.892983384410904,-4.822207415553061,-0.029282082134901133,-0.8844664169858816
670,8.906276334163387,-5.498302990909449,-0.03199548503405616,-0.9754081557753372
671,8.91956928391587,-6.1023832921365075,-0.03436842058040368,-1.0526387451005976
672,8.932862233668352,-6.6186356625791065,-0.03633327147994568,-1.114929444274964
673,8.946155183420835,-7.036588996263255,-0.03784321294366584,-1.1618698123308053
674,8.959448133173318,-7.352148838355159,-0.03887798197098382,-1.193918803358827
675,8.9727410829258,-7.569163203203369,-0.03944997569181461,-1.212495991587413
676,8.986034032678283,-7.700419867078726,-0.039608304189355396,-1.2199864348570455
677,8.999326982430766,-7.767184856800922,-0.03943878593062366,-1.2195669176165211
678,9.012619932183249,-7.7969418047912535,-0.03905842893728168,-1.2148355201016505
679,9.025912881935731,-7.8196287944565634,-0.03860381687602632,-1.2093061811728605
680,9.039205831688214,-7.863153139869907,-0.03821409735773273,-1.2058830180235807
681,9.052498781440695,-7.949160975500102,-0.03801084303954488,-1.2064392315331305
682,9.06579173119318,-8.089943986043894,-0.0380785392902411,-1.2115956969648554
683,9.079084680945662,-8.287069303830998,-0.03845023292001044,-1.2207417693088185
684,9.092377630698143,-8.531939062415145,-0.03910239342459043,-1.2322854426885703
685,9.105670580450626,-8.808120155937205,-0.039961161153981996,-1.2440760091237426
686,9.118963530203107,-9.094985529299178,-0.04091936321971581,-1.2539149102742229
687,9.132256479955592,-9.371989117587079,-0.04186083781988252,-1.2600578029766372
688,9.145549429708074,-9.622752653163186,-0.04268654140895098,-1.2616092097150036
689,9.158842379460555,-9.838081538752833,-0.04333608514660141,-1.258719471027282
690,9.17213532921304,-10.017090026686583,-0.04379887467011577,-1.252515772478534
691,9.185428278965524,-10.16586808822033,-0.04411085450785813,-1.2447407882459858
692,9.198721228718004,-10.293605920418184,-0.044335844863771866,-1.2371358698710666
693,9.212014178470488,-10.406769057767592,-0.04453430615389041,-1.2306821898704898
694,9.22530712822297,-10.502642630698503,-0.044726484789360414,-1.2248827872968568
695,9.238600077975454,-10.56411228399512,-0.04486031437366872,-1.2173052845978973
696,9.251893027727936,-10.557683020892176,-0.04479587526166582,-1.2035869194328939
697,9.26518597748042,-10.436282436571547,-0.044316332255707504,-1.1780200834779337
698,9.278478927232902,-10.147318298802471,-0.04316935481206252,-1.1346951323758285
699,9.291771876985385,-9.644932713400575,-0.04113372128385866,-1.069006375727768
700,9.305064826737867,-8.903814575919618,-0.038095558542781155,-0.9791752616780236
701,9.31835777649035,-7.9308583891603694,-0.03411133106701843,-0.867369379216266
702,9.331650726242833,-6.770923975581662,-0.029434226575302907,-0.7400427173006948
703,9.344943675995316,-5.504203352452869,-0.024489087281750116,-0.607301131680551
704,9.358236625747798,-4.234993018717583,-0.019796985847856205,-0.48136559803738177
705,9.37152957550028,-3.0742707392349753,-0.015868447546863323,-0.3744784471512805
706,9.384822525252764,-2.12043255779366,-0.0130966339744933,-0.29677440335178906
707,9.398115475005246,-1.4431043683662976,-0.011682644450302815,-0.2546488042404998
708,9.411408424757727,-1.0739016078471326,-0.01161361709232722,-0.24999418871842605
709,9.42470137451021,-1.0058047655026188,-0.012695472291927946,-0.2804064631909304
710,9.437994324262691,-1.2002905753645545,-0.014624109347516226,-0.34018478096109755
711,9.451287274015176,-1.5993736591142282,-0.017068755342410858,-0.42175927667028984
712,9.464580223767658,-2.138828583087861,-0.019741736287296103,-0.5171283869063291
713,9.47787317352014,-2.759192148904918,-0.022438092568816705,-0.6189687439236058
714,9.491166123272624,-3.412410338758209,-0.0250412208602346,-0.7212488512447591
715,9.504459073025108,-4.0636711768064515,-0.02750200378834954,-0.8193653456491926
716,9.51775202277759,-4.689474653880734,-0.029805372094892948,-0.909962452703078
717,9.531044972530072,-5.273880002439712,-0.03193893765754051,-0.9906493353603564
718,9.544337922282557,-5.804947785712066,-0.033874217228107566,-1.059791342012862
719,9.557630872035038,-6.2727724693632325,-0.03556429242066404,-1.116451288315535
720,9.57092382178752,-6.669521526925273,-0.03695521928625092,-1.1604482489990506
721,9.584216771540005,-6.990971292041537,-0.03800431524369956,-1.1924324572137865
722,9.597509721292486,-7.238476312728738,-0.038697545493097375,-1.2138695295544077
723,9.610802671044969,-7.4202533559221475,-0.03906007554535316,-1.2268766835572869
724,9.624095620797451,-7.551227615737525,-0.039157211726243986,-1.2339253460681954
725,9.637388570549934,-7.651268574409556,-0.03908598233855632,-1.237481431028119
726,9.650681520302417,-7.7421983514899555,-0.038959730694857815,-1.2396739865409372
727,9.6639744700549,-7.844309723670467,-0.038889201671741376,-1.242064855515394
728,9.677267419807382,-7.973215965269645,-0.03896393604022611,-1.2455529508775187
729,9.690560369559863,-8.13770534154217,-0.03923754457087043,-1.2504066793521775
730,9.703853319312348,-8.338986145254221,-0.03971970053990225,-1.25639059806117
731,9.71714626906483,-8.57138794167535,-0.04037652482214212,-1.2629421537583339
732,9.730439218817311,-8.824302372596879,-0.04113955932396059,-1.2693583742454262
733,9.743732168569794,-9.084929285502266,-0.041921898553500654,-1.2749629911452331
734,9.757025118322275,-9.341242011512227,-0.042638471992675946,-1.2792335605735887
735,9.77031806807476,-9.584503985859406,-0.043226192105682675,-1.2818719220271362
736,9.783611017827242,-9.81068144368884,-0.0436590228835942,-1.2828020248499596
737,9.796903967579723,-10.020236419388633,-0.04395330404132535,-1.2820818696087348
738,9.810196917332208,-10.216068756843645,-0.04416010083447022,-1.2797247154185918
739,9.82348986708469,-10.39979207252778,-0.04434397385184432,-1.2754402886925889
740,9.836782816837172,-10.567027555867769,-0.044551191857314404,-1.2683309720516078
741,9.850075766589656,-10.702890862439139,-0.04477451693653031,-1.256611516841611
742,9.86336871634214,-10.77918934238826,-0.044925211389210684,-1.237457357302801
743,9.876661666094622,-10.754855126212046,-0.04482425410685006,-1.2071073012276488
744,9.889954615847104,-10.580648001014456,-0.04422228441478695,-1.1613246009533638
745,9.903247565599589,-10.208130955045595,-0.04285079872275995,-1.096238197418279
746,9.91654051535207,-9.601535902971431,-0.04049670840490094,-1.0094524621371148
747,9.929833465104553,-8.749817563420809,-0.037081692861518016,-0.9011716526218733
748,9.943126414857035,-7.6754761093338875,-0.0327212960075927,-0.7749972805783241
749,9.956419364609518,-6.437046888045894,-0.027740356176409426,-0.6380774196866427
750,9.969712314362,-5.123606909160065,-0.02263239705744115,-0.5004340696015227
751,9.983005264114484,-3.841874811835758,-0.01796824245354329,-0.3735324947778158
752,9.996298213866966,-2.6987471943249335,-0.014276992643565092,-0.26840426666353295
753,10.009591163619447,-1.7835858059465441,-0.011933317562518794,-0.19379849259200022
754,10.022884113371932,-1.1546779024757794,-0.011084027360327927,-0.15484506341313944
755,10.036177063124414,-0.8329853787509006,-0.01163420157225327,-0.15255937793867408
756,10.049470012876895,-0.8040607100348315,-0.013293708806567734,-0.1842535197190136
757,10.062762962629378,-1.0266432078218368,-0.01566613811375252,-0.24464035273394652
758,10.07605591238186,-1.4447581194664294,-0.018350709065438328,-0.32722492517559104
759,10.089348862134344,-1.9996275907737633,-0.02102704009804878,-0.425537694601571
760,10.102641811886826,-2.638413485412434,-0.02350180553597067,-0.5338823218814117
761,10.11593476163931,-3.3183588155191366,-0.02571089831791483,-0.6474924308704492
762,10.129227711391792,-4.006639804127418,-0.027685074043558928,-0.7622262176848447
763,10.142520661144276,-4.677564794013322,-0.029496624675351746,-0.8740871794880523
764,10.155813610896756,-5.309280058717339,-0.031207338499623184,-0.9788918616150845
765,10.16910656064924,-5.881819389221632,-0.03283426589666184,-1.072310879373237
766,10.182399510401725,-6.377406781803749,-0.034341724704120655,-1.1503322572139147
767,10.195692460154206,-6.782795770871776,-0.035658408330009245,-1.2100065312028612
768,10.208985409906688,-7.092523933020348,-0.03671033447270556,-1.2502018715306933
769,10.222278359659173,-7.311572702447644,-0.037456036442436155,-1.272072446512821
770,10.235571309411654,-7.456134826535846,-0.03791092602475396,-1.2790320325663016
771,10.248864259164137,-7.551865410188904,-0.03815254439875234,-1.2761910646742154
772,10.26215720891662,-7.629839416912535,-0.03830543959859656,-1.269392545933865
773,10.275450158669102,-7.721148062847899,-0.038511082356936226,-1.264103197973862
774,10.288743108421585,-7.851424605076664,-0.03889243907395194,-1.2644424526263793
775,10.302036058174068,-8.036539438578501,-0.039523592755534645,-1.2725672413478653
776,10.31532900792655,-8.280331744725524,-0.040412439439443996,-1.288512330595397
777,10.328621957679031,-8.57471508987282,-0.041500184902404626,-1.3104620269750138
778,10.341914907431516,-8.901973197415911,-0.04267663388868287,-1.335336356439138
779,10.355207857183998,-9.238662284345478,-0.04380642332151964,-1.3595295216951067
780,10.36850080693648,-9.560301994372026,-0.04475924839819884,-1.37963822965677
781,10.381793756688962,-9.845960342971706,-0.045437022669655706,-1.3930493201432013
782,10.395086706441443,-10.081889202657512,-0.045792461879117244,-1.3983037748603389
783,10.408379656193928,-10.263517999613088,-0.0458359978278675,-1.3952031611622089
784,10.42167260594641,-10.395350315931774,-0.0456303273157278,-1.3846652144844716
785,10.434965555698891,-10.488627846777417,-0.045273743004069895,-1.3683645005082192
786,10.448258505451376,-10.557022343161448,-0.044874709444872166,-1.3482150753382802
787,10.46155145520386,-10.611058497613715,-0.04452134300727897,-1.3257710074670335
788,10.47484440495634,-10.652388964041446,-0.044250841229729936,-1.3016419012377145
789,10.488137354708824,-10.669329155378806,-0.04402534337158345,-1.2750424254857653
790,10.501430304461309,-10.635093015331785,-0.04372155307903459,-1.2436077162499661
791,10.51472325421379,-10.509852012202304,-0.04314079816862284,-1.2035942796783408
792,10.528016203966272,-10.247026825775022,-0.04204316926194146,-1.150531383810821
793,10.541309153718757,-9.803173081887808,-0.04020358965991999,-1.080283027011307
794,10.554602103471238,-9.149640933411792,-0.03747985184694272,-0.9903402031247994
795,10.56789505322372,-8.283228675477833,-0.033875150164941005,-0.8810314099066853
796,10.581188002976203,-7.232741690999955,-0.029574104381788063,-0.7562787025056131
797,10.594480952728686,-6.0590254490079944,-0.02493509527219471,-0.6235887841653028
798,10.607773902481169,-4.847651698960868,-0.02043365908633936,-0.49316075994808434
799,10.621066852233652,-3.695558342625867,-0.016568259190781587,-0.3762604566125015
800,10.634359801986134,-2.6948290320012678,-0.013754227417758447,-0.28325666831051327
801,10.647652751738615,-1.9177164189305675,-0.012237338654998185,-0.22183671019469303
802,10.6609457014911,-1.406593018072415,-0.012052419725883678,-0.1958638418152579
803,10.674238651243584,-1.1709229601237252,-0.01303708422511754,-0.20512799766372877
804,10.687531600996063,-1.1911997066293611,-0.014892571840506474,-0.24595785424347494
805,10.700824550748546,-1.427858298548707,-0.01726974742240984,-0.3124134565413335
806,10.714117500501027,-1.8320547795037014,-0.019852994236837417,-0.39764746794754846
807,10.727410450253512,-2.3551682322610255,-0.022418606237054654,-0.4950402267911091
808,10.740703400005994,-2.9548082242115825,-0.02485483471247419,-0.5988556344399879
809,10.753996349758475,-3.5966086758162046,-0.027143958322127203,-0.7043705536047266
810,10.76728929951096,-4.252624274058291,-0.029318472227725326,-0.8076244492042034
811,10.780582249263444,-4.8982015693475764,-0.031410345116688845,-0.9050515594156743
812,10.793875199015924,-5.509440586354985,-0.03341239279421594,-0.9932582997068614
813,10.807168148768408,-6.062768444857146,-0.03526446094902561,-1.0691022353987347
814,10.82046109852089,-6.537009782018223,-0.036866895884626015,-1.1300669145661193
815,10.833754048273374,-6.9171494790318615,-0.03811371110913405,-1.1747802471454005
816,10.847046998025856,-7.198211402964236,-0.03893162297963553,-1.2034514737531632
817,10.86033994777834,-7.387581617821037,-0.03931052096136137,-1.218024867541173
818,10.873632897530822,-7.504654986256153,-0.03931530429734738,-1.2219481987513987
819,10.886925847283305,-7.577612960661413,-0.039075983299523845,-1.2195852919970633
820,10.900218797035787,-7.638081516179033,-0.0387597856113696,-1.215414921840059
821,10.91351174678827,-7.715053615751618,-0.03853376931229121,-1.2132173987853925
822,10.926804696540753,-7.829618255108485,-0.0385282991608468,-1.2154437519296406
823,10.940097646293236,-7.99172109951215,-0.03881073791691199,-1.2229013576799994
824,10.953390596045718,-8.199540952151345,-0.03937539997153384,-1.2347998673568128
825,10.9666835457982,-8.441336968400075,-0.040151147291148735,-1.2491122541979778
826,10.979976495550684,-8.699039474094189,-0.04102327766254115,-1.2631419652849705
827,10.993269445303168,-8.95257644118756,-0.04186297099557628,-1.274160126147194
828,11.006562395055647,-9.183970358758264,-0.042556485756878155,-1.2799839520256249
829,11.01985534480813,-9.380505509664955,-0.04302757640182547,-1.2793970161349473
830,11.033148294560611,-9.53659314717837,-0.04324936037094922,-1.2723503472327007
831,11.046441244313096,-9.654215098818618,-0.043244823768678796,-1.2599212403927742
832,11.059734194065578,-9.741951220726278,-0.043077301944096834,-1.2440401614166638
833,11.07302714381806,-9.81263394096297,-0.04283326800293335,-1.2270246479580227
834,11.086320093570544,-9.879727312750177,-0.0425999646922876,-1.2109840153688558
835,11.099613043323028,-9.952705372660667,-0.042440551451406135,-1.197182252443259
836,11.11290599307551,-10.032049022194583,-0.042370129264759006,-1.1854697315280456
837,11.126198942827992,-10.1049219570774,-0.042337312458702654,-1.173913201194699
838,11.139491892580477,-10.142933586400494,-0.0422172328523939,-1.1587565176086103
839,11.152784842332958,-10.103399501556515,-0.04182174538883628,-1.1348156097887632
840,11.16607779208544,-9.934974977536816,-0.04093003521593765,-1.0963381894995525
841,11.179370741837923,-9.58745497758426,-0.03933757662174851,-1.038244351176697
842,11.192663691590406,-9.02414589055629,-0.03691458294457778,-0.9575322223116217
843,11.205956641342889,-8.233972326627061,-0.03365906177720722,-0.854525387472933
844,11.219249591095371,-7.2399068973763585,-0.02972722867566728,-0.7336039437373927
845,11.232542540847854,-6.10077975861988,-0.0254275698420052,-0.6031333848600937
846,11.245835490600337,-4.9050731547761055,-0.02117451773915457,-0.47448655298411535
847,11.25912844035282,-3.7575354033279136,-0.01741088252326961,-0.3603010017875804
848,11.272421390105302,-2.7616210840994815,-0.014519848259561801,-0.27234799023461104
849,11.285714339857783,-2.002081722360879,-0.01275220863263738,-0.21952260654777844
850,11.299007289610268,-1.5319798165510194,-0.012189821475368965,-0.20644048411238494
851,11.31230023936275,-1.3669843735198648,-0.012753508312371525,-0.23294761349066512
852,11.325593189115231,-1.4875594102971166,-0.014248077252087602,-0.29457948827681457
853,11.338886138867714,-1.8474081325497147,-0.01642531655460192,-0.3837430818061995
854,11.352179088620195,-2.3850636068924147,-0.019042324399434374,-0.4912321006700179
855,11.36547203837268,-3.0352385424083432,-0.021898068784593723,-0.607669493489519
856,11.378764988125162,-3.7373845137724624,-0.024842283055243636,-0.7245860069706298
857,11.392057937877643,-4.440386065180212,-0.027762321790233864,-0.8350252872648686
858,11.405350887630128,-5.103798090623813,-0.030560715995977327,-0.9337358251121332
859,11.41864383738261,-5.6970104933779036,-0.033136837564502614,-1.017110174565502
860,11.431936787135092,-6.197955479136757,-0.03538138040154274,-1.0830438539844416
861,11.445229736887576,-6.592528285062965,-0.03718537854158172,-1.1308282908646468
862,11.45852268664006,-6.875066017778108,-0.03845948464247446,-1.161103280443508
863,11.471815636392542,-7.049406337028662,-0.03915614948091319,-1.1758165098819566
864,11.485108586145024,-7.129557531582864,-0.03928728159338427,-1.1781005083770586
865,11.498401535897507,-7.139016919038879,-0.03893186602482135,-1.1719909772632306
866,11.51169448564999,-7.108231038342099,-0.03823072591983002,-1.1619653101209364
867,11.524987435402473,-7.070387375199553,-0.03736850341640632,-1.1523529212247356
868,11.538280385154955,-7.056381031760555,-0.03654581462129522,-1.1467310926538394
869,11.551573334907438,-7.09016620702904,-0.035947093334513236,-1.1474466258884342
870,11.56486628465992,-7.18565682536121,-0.03571118919794982,-1.1553824360234992
871,11.578159234412404,-7.3459098510415775,-0.03591151605307735,-1.1700250034484658
872,11.591452184164886,-7.5646624946512295,-0.036550129667137304,-1.1898049059317959
873,11.604745133917367,-7.829616334808509,-0.03756614737242575,-1.2126068083090864
874,11.618038083669852,-8.12637068949392,-0.03885480182160971,-1.2363008229245662
875,11.631331033422333,-8.441740866064542,-0.04029069598977055,-1.2591455338214168
876,11.644623983174816,-8.765398615394451,-0.041748434292696604,-1.279952738158797
877,11.657916932927298,-9.08929166371673,-0.04311565888805773,-1.2979737798923332
878,11.67120988267978,-9.40500420130012,-0.04429667576103457,-1.3125498063207337
879,11.684502832432264,-9.699926488567106,-0.045208097716857736,-1.322643350345271
880,11.697795782184746,-9.95361751031392,-0.045770361761905756,-1.3264174752647597
881,11.71108873193723,-10.13591473705668,-0.04590020579110555,-1.3210371944967711
882,11.724381681689712,-10.20808210546448,-0.04550911145888983,-1.3028289815902223
883,11.737674631442196,-10.127592389059501,-0.04451124378740732,-1.2678497204387567
884,11.750967581194676,-9.856124997100137,-0.04284150656462471,-1.212799769982371
885,11.76426053094716,-9.369263840063615,-0.04048039217478869,-1.1360934852801619
886,11.777553480699645,-8.665543225852371,-0.037478511254704416,-1.0388134819098922
887,11.790846430452126,-7.772257451928221,-0.033971785831154615,-0.9252600365427086
888,11.804139380204608,-6.746017066007119,-0.030179757419960665,-0.8028828039253898
889,11.817432329957091,-5.667317165582358,-0.026384450371496577,-0.6815342022243982
890,11.830725279709574,-4.629997845835746,-0.022894005697174636,-0.5721662184529734
891,11.844018229462057,-3.7278726220582623,-0.020000791547256404,-0.4852437410059553
892,11.85731117921454,-3.0414863016838094,-0.017945115514182593,-0.4292165710463496
893,11.870604128967022,-2.627724152457176,-0.016892260699371622,-0.4093592144322276
894,11.883897078719505,-2.513978629374364,-0.016924248297056705,-0.4271712457688301
895,11.897190028471988,-2.6972195742005156,-0.01804196695269886,-0.4803783304195127
896,11.91048297822447,-3.147119255119872,-0.020171036443887878,-0.563437993612777
897,11.923775927976951,-3.811731576533714,-0.02316670614788516,-0.6683734833623908
898,11.937068877729436,-4.624228875552791,-0.026817540535116792,-0.7857468225805048
899,11.950361827481917,-5.509700813353347,-0.030851769661349716,-0.9056264618181985
900,11.9636547772344,-6.391679147503747,-0.03495166732428692,-1.0184757769867174
901,11.976947726986882,-7.1985051749049065,-0.03877945266807476,-1.1159490171876114
902,11.990240676739363,-7.869674651547011,-0.04201393450046232,-1.1916016413376347
903,12.003533626491848,-8.361890795261447,-0.044392339464410034,-1.2414942134406959
904,12.01682657624433,-8.653980523422971,-0.04574847765072953,-1.264612997836513
905,12.030119525996811,-8.749449625270124,-0.04603794692213273,-1.262986367997146
906,12.043412475749296,-8.675564885309349,-0.04534369634496818,-1.2413841103787129
907,12.05670542550178,-8.478520914245983,-0.043860011379340424,-1.2065625675052294
908,12.06999837525426,-8.215269062000248,-0.041858149351519006,-1.1661418591444626
909,12.083291325006744,-7.943571811574593,-0.03964080500965304,-1.1273236879319504
910,12.096584274759229,-7.7124204361471005,-0.037494453849295,-1.0957273253954378
911,12.10987722451171,-7.554906814973148,-0.03564843617491751,-1.074606450313811
912,12.123170174264192,-7.484996317379923,-0.03424789891960078,-1.0646132177043017
913,12.136463124016675,-7.498624566685262,-0.033344849851202306,-1.064130524322531
914,12.149756073769158,-7.578447573741845,-0.0329079048481167,-1.0700462720738704
915,12.16304902352164,-7.700714447168471,-0.03284728878764068,-1.078739405926616
916,12.176341973274123,-7.842318866349129,-0.0330481501842096,-1.087014228121362
917,12.189634923026606,-7.98619660239622,-0.033403342273448995,-1.0927594130765526
918,12.202927872779089,-8.12380026904737,-0.03383724659612219,-1.0952002544944694
919,12.216220822531572,-8.254215905819718,-0.034314912814164746,-1.0947235540178168
920,12.229513772284054,-8.380365636352703,-0.03483490969102666,-1.0923537716280804
921,12.242806722036535,-8.503474283710641,-0.03540863522058561,-1.0890300966217215
922,12.25609967178902,-8.617438340165839,-0.03603242108267795,-1.0848743669188006
923,12.2693926215415,-8.704853205552054,-0.03666100221295259,-1.0786512310482101
924,12.282685571293984,-8.736195489939373,-0.03719146908954548,-1.0676015593293584
925,12.295978521046466,-8.673022771262428,-0.03746534156786506,-1.0477688410801063
926,12.309271470798947,-8.475106290889345,-0.03729258854105237,-1.0148305912260902
927,12.322564420551432,-8.110310718386957,-0.03649539441926374,-0.9653041063308296
928,12.335857370303914,-7.565041871030121,-0.03496235936234753,-0.8978540822635835
929,12.349150320056395,-6.852522955472405,-0.03269793120388131,-0.8143415356382732
930,12.36244326980888,-6.016316502563665,-0.02985011374619059,-0.7202670740051306
931,12.375736219561364,-5.127485049032385,-0.026703927624129337,-0.6243930094259353
932,12.389029169313844,-4.27538762105789,-0.0236382678455059,-0.537546857478765
933,12.402322119066328,-3.553861127649036,-0.021056163869656277,-0.4708420016685556
934,12.415615068818813,-3.045831291432397,-0.01930771293247119,-0.4337175672648053
935,12.428908018571294,-2.809772490290566,-0.018626924977970673,-0.432242518930252
936,12.442200968323776,-2.870787509812426,-0.019097756895869827,-0.4680418822725742
937,12.45549391807626,-3.2177118654991457,-0.020653946805025643,-0.5380274388081824
938,12.468786867828742,-3.806116499988526,-0.02310686868407057,-0.6349185458691313
939,12.482079817581225,-4.565916510569703,-0.026189397781550012,-0.7483829994514855
940,12.495372767333707,-5.4117630947774495,-0.02960282189040518,-0.8665464556081277
941,12.50866571708619,-6.2544408165249825,-0.03305679157935448,-0.9776098439399169
942,12.521958666838673,-7.01183174580771,-0.03629687885146718,-1.0713507868986014
943,12.535251616591156,-7.618348573809946,-0.03911871648971974,-1.1403357913837495
944,12.548544566343638,-8.031944580500191,-0.041371103551884565,-1.1807157885643582
945,12.56183751609612,-8.237939568603723,-0.04295265499930642,-1.192518025311446
946,12.575130465848604,-8.24912089746681,-0.04380733292010322,-1.1793946634148966
947,12.588423415601085,-8.102008491631642,-0.04392318979836421,-1.1478544887427533
948,12.601716365353568,-7.849791194945192,-0.04333582415061099,-1.1060877196773422
949,12.61500931510605,-7.553088633285877,-0.04213416844446431,-1.0625771435833549
950,12.628302264858531,-7.270156499196543,-0.04046300516672877,-1.0247441826961967
951,12.641595214611016,-7.048278411304772,-0.03851597371987934,-0.9978820633836925
952,12.6548881643635,-6.917833823701906,-0.0365157230572617,-0.9845710691235161
953,12.66818111411598,-6.889967160652671,-0.034683334686747204,-0.9846634983458216
954,12.681474063868464,-6.958041648926559,-0.03320460372825379,-0.9957959319159436
955,12.694767013620949,-7.102295865403701,-0.03220335909023955,-1.0142694933980998
956,12.70805996337343,-7.29647671466264,-0.03173018363371058,-1.036066418967253
957,12.721352913125912,-7.514819120194681,-0.031769262991832116,-1.0577591178091945
958,12.734645862878397,-7.737665144804323,-0.0322590596751767,-1.0771120021630938
959,12.747938812630878,-7.954306409944706,-0.03311714687701583,-1.093259143033529
960,12.76123176238336,-8.162282008738194,-0.03425823151470504,-1.1064418077231402
961,12.774524712135843,-8.363282485786662,-0.03559785488859452,-1.1173922566189656
962,12.787817661888326,-8.556817491581635,-0.03704118178157186,-1.1265391368742588
963,12.801110611640809,-8.733634898636542,-0.03846384861404966,-1.1332684463975164
964,12.814403561393291,-8.871242966421603,-0.03969682334113982,-1.1354829887072744
965,12.827696511145774,-8.933573653658918,-0.040527368375682375,-1.1296480991685534
966,12.840989460898257,-8.875807842346449,-0.0407231255717365,-1.1113936390829577
967,12.85428241065074,-8.653876225769517,-0.04007773621379844,-1.0765856675619967
968,12.867575360403222,-8.236577126715078,-0.03846732889410325,-1.0226284768577383
969,12.880868310155703,-7.617128892960841,-0.03590099974474472,-0.9496570786429956
970,12.894161259908188,-6.820730872076318,-0.03254761439134921,-0.8612689089945851
971,12.907454209660669,-5.9055227062706805,-0.02872675795559967,-0.7645342418281348
972,12.920747159413152,-4.956033593260937,-0.024862122256294333,-0.6691997941122446
973,12.934040109165634,-4.070294535957997,-0.021407576211874807,-0.5862131424227485
974,12.947333058918115,-3.3435665825784393,-0.018765084178177512,-0.5258837003592804
975,12.9606260086706,-2.8525178018911745,-0.01721593233038027,-0.4960987253177783
976,12.973918958423084,-2.6433879973586443,-0.016881627528438765,-0.5009951232951133
977,12.987211908175563,-2.726374894266852,-0.017720800781046184,-0.5403557043846725
978,13.000504857928048,-3.0766760601490524,-0.01955773509631791,-0.6097987633771155
979,13.01379780768053,-3.6409731697275127,-0.022130564259845966,-0.7016321097158082
980,13.027090757433012,-4.347159349233177,-0.025144551808547785,-0.8061113738921696
981,13.040383707185496,-5.114974036019805,-0.028317758217408576,-0.91281072581911
982,13.05367665693798,-5.865757116452088,-0.03141113505430974,-1.0118722125987702
983,13.066969606690462,-6.530371368736847,-0.034240726633328944,-1.095003450273099
984,13.080262556442944,-7.055059320191883,-0.03667472845972653,-1.1561884079956692
985,13.093555506195427,-7.40535700778386,-0.03862172922601456,-1.1921264491128014
986,13.10684845594791,-7.568185353040463,-0.04001803681759347,-1.202417231278271
987,13.120141405700393,-7.552067511385453,-0.040821281841942225,-1.1894873570329192
988,13.133434355452875,-7.38531134380136,-0.04101447871276344,-1.1582405413511818
989,13.146727305205358,-7.11209483895777,-0.04061988534146219,-1.1154268608926825
990,13.16002025495784,-6.786693847822854,-0.03971664225376386,-1.0687691319033157
991,13.173313204710324,-6.466473026934016,-0.03845238060379919,-1.025940879575783
992,13.186606154462806,-6.204567745937724,-0.03703890756593338,-0.993539939906226
993,13.19989910421529,-6.043308043418628,-0.035726654060384465,-0.9762255702920642
994,13.213192053967772,-6.009343126197662,-0.03476059431669789,-0.976172622196768
995,13.226485003720253,-6.111148329900302,-0.03432861075172922,-0.9929414437330957
996,13.239777953472736,-6.339203609419972,-0.03451799425891383,-1.0237772676192438
997,13.253070903225218,-6.668701622658833,-0.03529451291813121,-1.0642605840602652
998,13.2663638529777,-7.064246124769874,-0.036511496020846364,-1.109157957574265
999,13.279656802730184,-7.4856961810923055,-0.03794649051331227,-1.1532919942016266
1000,13.292949752482668,-7.894145638541568,-0.03935425798808108,-1.1922656124229725
1001,13.30624270223515,-8.25703826572317,-0.04052049300114434,-1.2229294518296705
1002,13.319535651987632,-8.551625615465294,-0.04130187923842484,-1.2435527777732829
1003,13.332828601740117,-8.766352692374118,-0.04164383199481009,-1.2537271244263528
1004,13.346121551492596,-8.90022221779373,-0.04157485433874654,-1.25408235864284
1005,13.35941450124508,-8.960614534128386,-0.041183053714999515,-1.2459182350745408
1006,13.372707450997565,-8.96030533102852,-0.04058418406084778,-1.230849935805211
1007,13.386000400750046,-8.91446282102417,-0.039891092288661355,-1.2105393262022373
1008,13.399293350502528,-8.838233712725726,-0.03919219379578809,-1.1865446459626563
1009,13.412586300255011,-8.745221770556299,-0.03854264835315846,-1.1602809812843358
1010,13.425879250007494,-8.646835404133292,-0.037967507195930554,-1.1330517895055716
1011,13.439172199759977,-8.552242699015508,-0.0374725180536271,-1.1060958077804528
1012,13.45246514951246,-8.468599493020195,-0.03705658374513157,-1.0805992715617643
1013,13.465758099264942,-8.401315220558029,-0.03672060535986736,-1.057650591837947
1014,13.479051049017423,-8.35431609345452,-0.03647022873213256,-1.0381541310367373
1015,13.492343998769908,-8.330426412297038,-0.03631354023586487,-1.0227525241704833
1016,13.50563694852239,-8.332002150048748,-0.03625728698288058,-1.0118126626307022
1017,13.518929898274871,-8.36178339877595,-0.03630543091971512,-1.0054998297164894
1018,13.532222848027356,-8.423652938755824,-0.03646165037549664,-1.0039076997629506
1019,13.545515797779837,-8.522736502313137,-0.03673393171235138,-1.007155587619817
1020,13.55880874753232,-8.664209026711028,-0.03713655111794195,-1.0153400351702584
1021,13.572101697284802,-8.850392493403728,-0.037684251338171916,-1.0282583244788464
1022,13.585394647037283,-9.076271575367613,-0.0383759558354472,-1.0449093017515332
1023,13.598687596789768,-9.324317422149926,-0.03917023122194568,-1.0628981058282365
1024,13.61198054654225,-9.560266510350676,-0.039960092736868034,-1.0779794588932914
1025,13.625273496294732,-9.731927356620657,-0.04055842304957444,-1.0840159868786752
1026,13.638566446047216,-9.772876455265905,-0.040705382580417844,-1.0735674914146847
1027,13.6518593957997,-9.611907246029523,-0.04010481785557698,-1.0391638742363682
1028,13.665152345552182,-9.187433277267637,-0.03848821783620178,-0.9750879859732879
1029,13.678445295304664,-8.464140736792258,-0.03569414870408603,-0.8792734982117918
1030,13.691738245057149,-7.447681820296906,-0.031741743653350786,-0.7547855929991878
1031,13.70503119480963,-6.192778577850058,-0.026872977367206993,-0.6103650836888069
1032,13.718324144562112,-4.8012026977710764,-0.02154346423438291,-0.4597076992891699
1033,13.731617094314595,-3.408628215500668,-0.01635561218332012,-0.3194863077135574
1034,13.744910044067078,-2.1626112917792004,-0.011946955474954045,-0.20650490358333176
1035,13.75820299381956,-1.1967863888049508,-0.008862883539531869,-0.13466193842288368
1036,13.771495943572043,-0.6076679107774918,-0.007449464279978751,-0.11248081137048906
1037,13.784788893324526,-0.4396616152994887,-0.0077954829476642624,-0.14179952447609653
1038,13.798081843077007,-0.681322582815748,-0.009736083682578294,-0.2178619744469826
1039,13.811374792829492,-1.2725635074813757,-0.01291088284735376,-0.33065346308249055
1040,13.824667742581974,-2.1196659037053185,-0.016854915232450515,-0.467015396609435
1041,13.837960692334455,-3.1134928981857395,-0.021095613464370527,-0.6129503325417911
1042,13.85125364208694,-4.14648808244012,-0.02523273650344439,-0.7555991115329571
1043,13.86454659183942,-5.125460448384426,-0.02898702308534686,-0.884576204905562
1044,13.877839541591904,-5.979040580387892,-0.03221317813644647,-0.9925929125302916
1045,13.891132491344386,-6.6603130830438415,-0.034881009036555014,-1.075493735167034
1046,13.904425441096867,-7.1460388639074415,-0.037034361951667864,-1.1319287141650132
1047,13.917718390849352,-7.43400406996788,-0.03874107837388359,-1.1628788530586138
1048,13.931011340601836,-7.539596587455264,-0.040048407701284365,-1.1711751171945721
1049,13.944304290354316,-7.49208618400185,-0.040956587974054263,-1.1610541600985653
1050,13.9575972401068,-7.330611214567939,-0.04141816691181429,-1.1377220693213377
1051,13.970890189859285,-7.099736749737782,-0.041362661287637964,-1.1068764189778324
1052,13.984183139611766,-6.84463081632934,-0.040737474504834156,-1.0741652091751808
1053,13.997476089364248,-6.606240815767797,-0.039549769813341476,-1.0446159665293009
1054,14.010769039116733,-6.417124871506033,-0.03789300983637174,-1.0221180491401312
1055,14.024061988869214,-6.298640604238664,-0.03594699020544967,-1.0090602392714243
1056,14.037354938621696,-6.259972741231517,-0.03394967437759036,-1.0062036590361623
1057,14.05064788837418,-6.299070910094024,-0.03214926953862418,-1.0128150556184432
1058,14.063940838126662,-6.405125705066999,-0.030751780253290992,-1.0270195223743506
1059,14.077233787879145,-6.561891361655442,-0.02988027509961561,-1.046279852946323
1060,14.090526737631627,-6.751059061027262,-0.029557350333909972,-1.067888804960293
1061,14.10381968738411,-6.954996078994726,-0.029714069734255825,-1.089373109563343
1062,14.117112637136591,-7.158420147176354,-0.030220306762471158,-1.108744281212121
1063,14.130405586889076,-7.348878441672892,-0.030925734443298093,-1.1245761986751537
1064,14.143698536641558,-7.516171696567998,-0.031699024149002435,-1.1359302543414351
1065,14.15699148639404,-7.6510743872985465,-0.03245481890710676,-1.1421788071978176
1066,14.170284436146524,-7.7438520725428,-0.033162418021491454,-1.142795484267163
1067,14.183577385899005,-7.783167796510993,-0.033835367110926724,-1.1371874186821902
1068,14.196870335651488,-7.755974512163591,-0.03450618441819839,-1.1246389601262006
1069,14.21016328540397,-7.648855065645655,-0.03519452927985979,-1.1044153425789922
1070,14.223456235156451,-7.450948239901827,-0.03587954208033286,-1.0760357695659357
1071,14.236749184908936,-7.158104881834827,-0.03648703021368011,-1.0396723219910264
1072,14.25004213466142,-6.777367682013979,-0.036898895912270684,-0.9965769563633363
1073,14.2633350844139,-6.330456725114918,-0.036985636742848674,-0.9494021604073102
1074,14.276628034166384,-5.854868674269841,-0.03665419464554492,-0.9022779110357367
1075,14.289920983918869,-5.401567568354494,-0.035895742488699395,-0.8605455248113246
1076,14.30321393367135,-5.029014842295331,-0.03481479990819523,-0.8301229261191155
1077,14.316506883423832,-4.79426096900976,-0.03362498136825418,-0.8165703657047297
1078,14.329799833176317,-4.7427199433436,-0.03260747412240039,-0.8240180286107199
1079,14.343092782928798,-4.898796980763543,-0.03204233033008048,-0.8541816383808278
1080,14.35638573268128,-5.25956093979412,-0.03213398264146242,-0.9057066883205218
1081,14.369678682433763,-5.793114441161067,-0.032955792748141484,-0.9740348668634689
1082,14.382971632186246,-6.442334864365634,-0.03443198764646327,-1.0518830138765127
1083,14.396264581938729,-7.13347083817398,-0.036361593191183046,-1.1302880949252245
1084,14.409557531691211,-7.787970337496024,-0.03847384982787345,-1.2000350286981456
1085,14.422850481443694,-8.335167387915408,-0.040494494821319116,-1.2531838652394633
1086,14.436143431196175,-8.723266394429157,-0.04220110562070342,-1.284378020027272
1087,14.44943638094866,-8.92649738820561,-0.04345313562355452,-1.291659749631879
1088,14.462729330701142,-8.947255800635014,-0.044194259882022635,-1.2766341784377475
1089,14.476022280453623,-8.813214019298233,-0.04443542391945558,-1.2439771958016659
1090,14.489315230206108,-8.570461389056968,-0.04423192778805736,-1.2004302195137755
1091,14.502608179958589,-8.2744200205535,-0.04366566281471174,-1.1535251792863221
1092,14.515901129711072,-7.980478450703486,-0.042836633295169645,-1.1103149255244764
1093,14.529194079463554,-7.736032943080294,-0.04186060236811608,-1.0763501326006653
1094,14.542487029216035,-7.575078500904087,-0.040866009317715425,-1.0550622536406669
1095,14.55577997896852,-7.51582280135255,-0.03998455316051234,-1.047607414282006
1096,14.569072928721004,-7.5611555667686625,-0.0393345003646017,-1.0531222681019665
1097,14.582365878473484,-7.701305326351101,-0.0390007856435233,-1.069261913330002
1098,14.595658828225968,-7.917729373884202,-0.039018613424936406,-1.092849915658345
1099,14.60895177797845,-8.187243284785335,-0.03936649128108432,-1.1204795316167382
1100,14.622244727730934,-8.485588187273779,-0.03997127605968147,-1.1489569748831248
1101,14.635537677483416,-8.789994153974158,-0.040723819835338515,-1.1755517908387216
1102,14.6488306272359,-9.080722967944949,-0.04150098316120792,-1.19808950636935
1103,14.662123576988382,-9.341932119661468,-0.04218891631457116,-1.2149645032874161
1104,14.675416526740864,-9.562363590548362,-0.04270316834876241,-1.2251540983412417
1105,14.688709476493347,-9.736244110523717,-0.043002343338958096,-1.2282798314813594
1106,14.70200242624583,-9.864408649551077,-0.04309295591901849,-1.224704354014277
1107,14.715295375998313,-9.955167851045873,-0.04302391382901106,-1.2155961898514325
1108,14.728588325750795,-10.024054073928196,-0.04287028385186754,-1.2028638807070424
1109,14.741881275503278,-10.091512350590039,-0.04270809027110902,-1.1888701633630956
1110,14.75517422525576,-10.177971625247116,-0.0425845099368178,-1.1758873596300843
1111,14.768467175008244,-10.296519362787507,-0.04248998239429612,-1.1653378744585576
1112,14.781760124760726,-10.444442838117162,-0.04233947840252427,-1.1569617838551551
1113,14.79505307451321,-10.595892432666641,-0.04196911577531306,-1.1481420739764356
1114,14.808346024265692,-10.698476607311624,-0.041151808415671676,-1.1336634861776158
1115,14.821638974018173,-10.676343872255316,-0.03963226341251241,-1.1061475210081806
1116,14.834931923770656,-10.441054571226385,-0.03717781238356303,-1.0572733175212976
1117,14.848224873523138,-9.909437659815813,-0.033637529429379864,-0.9796749672467132
1118,14.86151782327562,-9.025187428302255,-0.028998326502965893,-0.8691549102422153
1119,14.874810773028104,-7.778977616506477,-0.023424255881521854,-0.7266553527660977
1120,14.888103722780588,-6.2211798907782745,-0.017265585562437298,-0.5593728019461808
1121,14.90139667253307,-4.46240660759628,-0.01102872478175084,-0.3805397200503958
1122,14.914689622285552,-2.660011484056163,-0.0053070203944364895,-0.20772277052386007
1123,14.927982572038037,-0.9926258216874511,-0.0006839774892626839,-0.05991339879223386
1124,14.941275521790518,0.3715095586344711,0.0023694200938992297,0.04592871816178869
1125,14.954568471543,1.3045938007707067,0.0035775180056646346,0.0980208273088154
1126,14.967861421295485,1.7402601079079323,0.0029017527760599013,0.09180423946907426
1127,14.981154371047966,1.6808095336778337,0.0005322991291138829,0.03042786821972161
1128,14.994447320800449,1.1900465603427448,-0.0031646144442224063,-0.07634502999593458
1129,15.007740270552931,0.3750073001399989,-0.0077263037158935574,-0.21439885780438975
1130,15.021033220305414,-0.6376410912213659,-0.01267832197465987,-0.36803536339945325
1131,15.034326170057897,-1.7243296870491747,-0.01760548765427077,-0.522564155179994
1132,15.04761911981038,-2.781683634088514,-0.022197959389231442,-0.6661976133887861
1133,15.060912069562862,-3.7357049722525306,-0.026269042554888912,-0.7910090857055646
1134,15.074205019315343,-4.543298157338336,-0.02974742749685434,-0.8929902527253397
1135,15.087497969067828,-5.188209880368438,-0.032650300142930536,-0.9714458578400723
1136,15.10079091882031,-5.674199851653827,-0.03504598733782743,-1.028056440783266
1137,15.114083868572791,-6.01799831925625,-0.03701591118472921,-1.0659235732121821
1138,15.127376818325276,-6.2436893000195335,-0.038625196857970404,-1.0888144724338313
1139,15.140669768077757,-6.379047417175286,-0.039908656922311686,-1.1006870579380443
1140,15.15396271783024,-6.453459925661053,-0.04087414913188753,-1.1054515006675005
1141,15.167255667582722,-6.496622571859147,-0.041519709372063014,-1.1068507950490702
1142,15.180548617335203,-6.537233622827542,-0.041856355809030174,-1.1083390411786322
1143,15.193841567087688,-6.6012753954920615,-0.041926798562868364,-1.1128908376983169
1144,15.20713451684017,-6.709937219884733,-0.041812171606103725,-1.1227541269170396
1145,15.220427466592652,-6.877590384865532,-0.04162363391150858,-1.1392214133818837
1146,15.233720416345136,-7.110357208420428,-0.04148144192184402,-1.1625124528301165
1147,15.24701336609762,-7.405712889359888,-0.041488662486203996,-1.1918305925532593
1148,15.260306315850102,-7.75329112616639,-0.04170838642072702,-1.2255923325971103
1149,15.273599265602584,-8.13674101152548,-0.04215165518057573,-1.2617646136749543
1150,15.286892215355069,-8.536210621706052,-0.04277922222598506,-1.2982049621080118
1151,15.30018516510755,-8.930892859371228,-0.04351548156380883,-1.3329023675146079
1152,15.313478114860033,-9.301101365938145,-0.04426917328141014,-1.364060801055854
1153,15.326771064612515,-9.629538762880602,-0.044953938115447345,-1.390035064281569
1154,15.340064014364998,-9.90171524832982,-0.045502681011611146,-1.4091926927426144
1155,15.35335696411748,-10.10577545775446,-0.04587249713504908,-1.4198097841463466
1156,15.366649913869963,-10.2321940014035,-0.046040576586850554,-1.420099518273674
1157,15.379942863622446,-10.273835626943425,-0.045994769507035044,-1.408424431726765
1158,15.393235813374927,-10.226728058421372,-0.04572422987264142,-1.383675628802994
1159,15.406528763127412,-10.09160084790733,-0.04521517639134326,-1.3457362949541605
1160,15.419821712879894,-9.87587956520584,-0.0444545209273516,-1.2959011273398189
1161,15.433114662632375,-9.595493922136413,-0.04344081594448388,-1.23710902385951
1162,15.44640761238486,-9.275667180932407,-0.042198809150064846,-1.173868957314234
1163,15.45970056213734,-8.949883397235562,-0.040791794961852444,-1.1118167987267915
1164,15.472993511889824,-8.656508336888974,-0.039325449451212344,-1.0569232391339
1165,15.486286461642306,-8.433038851461138,-0.037938171130816704,-1.0144610370752694
1166,15.49957941139479,-8.30859315288699,-0.03677617290215293,-0.9879124204265012
1167,15.512872361147272,-8.295912346150429,-0.03595635106224202,-0.9780381353002445
1168,15.526165310899756,-8.38467106267443,-0.035525256019329376,-0.982329700270087
1169,15.539458260652236,-8.538116045358281,-0.03542651134076415,-0.9950235042228496
1170,15.55275121040472,-8.694795647495972,-0.03548976190099769,-1.0077711584794358
1171,15.566044160157205,-8.776310661637659,-0.03545040406574038,-1.0109413815825345
1172,15.579337109909686,-8.700658921321297,-0.03500125404964102,-0.995388934225239
1173,15.592630059662168,-8.399119829955437,-0.033867021747287604,-0.9543905239746245
1174,15.605923009414653,-7.833180600118039,-0.03188331036888099,-0.8853508589976226
1175,15.619215959167134,-7.007281280179886,-0.02905738380133285,-0.7908628017384542
1176,15.632508908919617,-5.973584428894432,-0.02559057131913353,-0.6787936422561528
1177,15.6458018586721,-4.8266657162278195,-0.021852096262380747,-0.5612678946503463
1178,15.659094808424582,-3.6886104866588005,-0.018308651626383572,-0.45268764122191174
1179,15.672387758177065,-2.6876988833302167,-0.015428191914693717,-0.3671969723633738
1180,15.685680707929547,-1.9357267059076535,-0.013584667335909635,-0.31616545237285015
1181,15.69897365768203,-1.5093470233524746,-0.012989361232771604,-0.30626932691759545
1182,15.712266607434511,-1.4395043532826606,-0.013664610612898637,-0.33857939762795825
1183,15.725559557186996,-1.7105774025835965,-0.015461348131704652,-0.40877918176908223
1184,15.738852506939478,-2.2681586199538546,-0.018109114849211,-0.5083377180712895
1185,15.75214545669196,-3.032391258146594,-0.02128055665431349,-0.6262487872990137
1186,15.765438406444444,-3.9130041897001946,-0.024653017905627492,-0.7508799119937419
1187,15.778731356196923,-4.822651111967203,-0.02795535159056902,-0.8715466275941992
1188,15.792024305949408,-5.686456768540076,-0.030994755712658917,-0.97958774646264
1189,15.80531725570189,-6.447196555218718,-0.03366359141461665,-1.068895450489398
1190,15.818610205454371,-7.0667620494894425,-0.03592911364452872,-1.1359920112895348
1191,15.831903155206856,-7.52520189601923,-0.03781074845340972,-1.179812898321751
1192,15.84519610495934,-7.818647108719998,-0.03935100126463651,-1.2013534515784643
1193,15.85848905471182,-7.9570088818794,-0.0405873863009224,-1.2032842487171413
1194,15.871782004464304,-7.961754754377194,-0.04153306835809675,-1.1895708155326041
1195,15.885074954216789,-7.8635962986462795,-0.04217211891254193,-1.165078419995323
1196,15.89836790396927,-7.699729651283199,-0.042471066040445815,-1.1351241727600991
1197,15.911660853721752,-7.510386668123774,-0.04240273862045768,-1.1049608036843253
1198,15.924953803474237,-7.334778421194532,-0.04197337325207026,-1.0792248424623048
1199,15.938246753226718,-7.206876649279127,-0.0412418737752231,-1.0614303427943133
1200,15.9515397029792,-7.1517235516828865,-0.04032231271693327,-1.0536123637046042
1201,15.964832652731683,-7.182990308921798,-0.039366774694828126,-1.0562087097241073
1202,15.978125602484166,-7.302306117065848,-0.03853322283824838,-1.0682167870342736
1203,15.991418552236649,-7.500507680678934,-0.03794909760965519,-1.08759124253854
1204,16.00471150198913,-7.760512076322312,-0.03768322333098876,-1.1117805566586603
1205,16.018004451741614,-8.061108675156653,-0.03773544205653206,-1.1382593807701342
1206,16.031297401494097,-8.380708792194964,-0.038046531900546736,-1.1649127529506136
1207,16.04459035124658,-8.700069745213382,-0.038523249708478334,-1.1901705640256117
1208,16.057883300999062,-9.003260382792732,-0.039067839956804955,-1.2128650590071368
1209,16.071176250751545,-9.276629722243873,-0.03960012266861439,-1.2318708814539228
1210,16.084469200504028,-9.506179361871784,-0.040063709853209645,-1.2456628166137542
1211,16.09776215025651,-9.674362674004675,-0.04041476809965722,-1.2519690698458017
1212,16.111055100008993,-9.757744173799601,-0.040599601167263265,-1.2476915006679223
1213,16.124348049761476,-9.7269667443311,-0.040533196296192064,-1.2292032073986416
1214,16.13764099951396,-9.549983686004474,-0.04009217639444575,-1.1930280158679087
1215,16.15093394926644,-9.198555075333665,-0.03913116273486785,-1.1367818877006655
1216,16.164226899018924,-8.6568143801279,-0.03752240499289474,-1.0601500640426764
1217,16.177519848771407,-7.929676655574741,-0.0352079309107354,-0.965622883344737
1218,16.19081279852389,-7.048417353212055,-0.03224589106125685,-0.8587416939269993
1219,16.204105748276373,-6.071183130390623,-0.02883204698486518,-0.74771468912659
1220,16.217398698028855,-5.077470397369614,-0.025284591930761144,-0.6424239730130039
1221,16.230691647781338,-4.157336666885962,-0.02199311716927943,-0.5530113082610812
1222,16.24398459753382,-3.3976841832641536,-0.01934521754183625,-0.4883466339384392
1223,16.2572775472863,-2.8687988139515337,-0.01765158582738686,-0.45471152943901266
1224,16.270570497038783,-2.614153718357925,-0.01708984786905677,-0.4549620615299365
1225,16.283863446791266,-2.6454182972142,-0.017680044684106364,-0.48829927898526365
1226,16.29715639654375,-2.9430968695737056,-0.019294395258352717,-0.5506199184217252
1227,16.31044934629623,-3.4618144450720654,-0.02169482055951803,-0.635293862547672
1228,16.323742296048714,-4.138402197897891,-0.02458611727141275,-0.7341510535676152
1229,16.337035245801196,-4.90078635165171,-0.027671118640209925,-0.8384680629346958
1230,16.35032819555368,-5.676147631108086,-0.030695924111001676,-0.9398102111320901
1231,16.363621145306162,-6.3975893332671605,-0.03347720866717633,-1.0306781599356112
1232,16.376914095058645,-7.009257638202959,-0.03590865690750205,-1.104988426347986
1233,16.390207044811127,-7.47021209932636,-0.03794868556454926,-1.1584513481899794
1234,16.40349999456361,-7.757268708164259,-0.03959586696872593,-1.1888862759874128
1235,16.416792944316093,-7.866685335997517,-0.040861047685652116,-1.196451105289386
1236,16.430085894068576,-7.814220392206748,-0.041745509731529226,-1.1837021689967868
1237,16.44337884382106,-7.633035466521406,-0.04223238290007342,-1.1553811681005828
1238,16.45667179357354,-7.369229862265012,-0.04229409640213009,-1.1178662372623778
1239,16.469964743326024,-7.07537746210099,-0.04191292048244738,-1.0783113578558225
1240,16.483257693078507,-6.803033586959754,-0.041106388228207606,-1.0435964745581514
1241,16.49655064283099,-6.595537720795676,-0.03994674701955374,-1.0192806807671155
1242,16.509843592583472,-6.482420185949833,-0.03856504739664641,-1.0087676802231922
1243,16.523136542335955,-6.4763506003536415,-0.03713587071618971,-1.0128528943495474
1244,16.536429492088438,-6.57298953252653,-0.03584600216097751,-1.0297398180275985
1245,16.54972244184092,-6.753510612386244,-0.03485653064982349,-1.0555139275244851
1246,16.563015391593403,-6.98910279607602,-0.03427031068733671,-1.0849708451970497
1247,16.576308341345886,-7.246518762858037,-0.03411455860493573,-1.1126309845144016
1248,16.58960129109837,-7.493702040816875,-0.034342730151516496,-1.1337455031554795
1249,16.60289424085085,-7.704645540243104,-0.03485327132042199,-1.1451086870824139
1250,16.616187190603334,-7.862838846206082,-0.035517986427096346,-1.1455344498202926
1251,16.629480140355817,-7.962903967183552,-0.03621116696050886,-1.1359216662067162
1252,16.6427730901083,-8.010283486403212,-0.03683219909276075,-1.1189149977097408
1253,16.656066039860782,-8.01912900775682,-0.03731779194875298,-1.0982509629469561
1254,16.669358989613265,-8.008825159978334,-0.03764356861874283,-1.0779444326396261
1255,16.682651939365748,-7.999830921904625,-0.037817353503474,-1.061499404635443
1256,16.69594488911823,-8.009664080957489,-0.0378677105067351,-1.0513097470032204
1257,16.709237838870713,-8.049843325732978,-0.03783139288820757,-1.0483563847494923
1258,16.722530788623196,-8.124414603218694,-0.03774279630287516,-1.0522275001928787
1259,16.73582373837568,-8.230345094103498,-0.037627564144697395,-1.0614133027377706
1260,16.74911668812816,-8.359632692443677,-0.03750130475383011,-1.0737761836221396
1261,16.762409637880644,-8.502547138136872,-0.03737304755088995,-1.0870769243321876
1262,16.775702587633127,-8.651098540689583,-0.037251795296985295,-1.0994424720926856
1263,16.78899553738561,-8.80170810848518,-0.03715357612617119,-1.1096806886204111
1264,16.802288487138092,-8.956175304799228,-0.0371059269248804,-1.117376172419948
1265,16.815581436890575,-9.120381004478956,-0.037146817326726055,-1.1227384434172323
1266,16.828874386643058,-9.300682238791826,-0.03731577437671437,-1.126220689269621
1267,16.84216733639554,-9.498563683740654,-0.03763664762320822,-1.1279809120691606
1268,16.855460286148023,-9.704718671002883,-0.038094231581265854,-1.1273087636593122
1269,16.868753235900506,-9.894212052587044,-0.038610495124583304,-1.122178158755579
1270,16.88204618565299,-10.024568012854447,-0.0390293376238537,-1.1090947945633547
1271,16.895339135405468,-10.038362937610325,-0.03911990312030177,-1.0833769884883466
1272,16.90863208515795,-9.871085647951153,-0.03860593610148039,-1.039929727010213
1273,16.921925034910434,-9.463700528908369,-0.03722186434941697,-0.9744476326768643
1274,16.935217984662916,-8.777767622520217,-0.03478644883431429,-0.8848330295900482
1275,16.9485109344154,-7.809599789679642,-0.03127515835179305,-0.7724828266956884
1276,16.96180388416788,-6.5993392516338485,-0.02686733423947988,-0.6430397394109635
1277,16.975096833920365,-5.231475578986427,-0.02194745273793741,-0.5062697276039864
1278,16.988389783672847,-3.8252918450146605,-0.017052094772067296,-0.3749315081297569
1279,17.00168273342533,-2.516552091317731,-0.012771960307021466,-0.2627988962484379
1280,17.014975683177813,-1.4344885195442927,-0.00963440709888783,-0.1822809139471666
1281,17.028268632930295,-0.6797477525242144,-0.007999440774098834,-0.14224108763477766
1282,17.041561582682778,-0.30872715563042114,-0.007997411764887337,-0.1465717584753843
1283,17.05485453243526,-0.3277277828321014,-0.009522081331404548,-0.19384240397518626
1284,17.068147482187744,-0.6973578684784079,-0.012274828689467658,-0.2780077507196106
1285,17.081440431940226,-1.344784192549639,-0.015842020056177394,-0.3898637745641857
1286,17.09473338169271,-2.179714699616042,-0.019782355347606462,-0.518782220478749
1287,17.108026331445192,-3.1098056922721873,-0.023703996900076928,-0.6542710732201235
1288,17.121319281197675,-4.052297405289276,-0.027318628779738414,-0.7870616082757138
1289,17.134612230950157,-4.9404723991440385,-0.030467038611075702,-0.9096343687234261
1290,17.14790518070264,-5.725306203889367,-0.033116195672220676,-1.0162871113282723
1291,17.161198130455123,-6.373908701077898,-0.03533143514828088,-1.1029610902048725
1292,17.174491080207606,-6.866780218997923,-0.037230577917209275,-1.1670543804723064
1293,17.18778402996009,-7.195553912618682,-0.03893020533921628,-1.2073728001590376
1294,17.20107697971257,-7.362027194655087,-0.040497009738224905,-1.2242405392474458
1295,17.214369929465054,-7.378297601838505,-0.04191742305520443,-1.2196702258299714
1296,17.227662879217537,-7.267104027824035,-0.04309519144672246,-1.197426771884803
1297,17.24095582897002,-7.0612756118152475,-0.043879197276059365,-1.162835425927871
1298,17.254248778722502,-6.801521506344112,-0.044114419490014024,-1.1222707075662481
1299,17.267541728474985,-6.532458138430018,-0.043700662814381355,-1.0823794358756254
1300,17.280834678227468,-6.297462733622721,-0.04263997904458145,-1.0491892130550258
1301,17.29412762797995,-6.1333891644167196,-0.04105654664297789,-1.0272977725584356
1302,17.307420577732433,-6.06624595494981,-0.03918154999542798,-1.0193184675256073
1303,17.320713527484916,-6.108645106897798,-0.03730710607293862,-1.0256871408531727
1304,17.3340064772374,-6.259338841153391,-0.03572313805054291,-1.0448432388184041
1305,17.34729942698988,-6.504666440773559,-0.034655722248511586,-1.073711937798377
1306,17.360592376742364,-6.821390996241023,-0.03422358568964307,-1.1083562372153206
1307,17.373885326494847,-7.180279501772131,-0.034422469661025516,-1.144650137359735
1308,17.38717827624733,-7.549836961286078,-0.0351380660871363,-1.1788457275393163
1309,17.400471225999812,-7.899756226366682,-0.036180448705525094,-1.2079560982157467
1310,17.413764175752295,-8.20380087957739,-0.03732856609339601,-1.229933477549331
1311,17.427057125504778,-8.441953630487482,-0.03837305677938106,-1.243670391152359
1312,17.44035007525726,-8.601743357965452,-0.039148618051695463,-1.2488813871399793
1313,17.453643025009743,-8.678737716916418,-0.03955182268309767,-1.2459324981900257
1314,17.466935974762226,-8.676266880629864,-0.03954485929788088,-1.2356774985065937
1315,17.48022892451471,-8.604510022156594,-0.039148777978047083,-1.219337441144504
1316,17.49352187426719,-8.47910288056247,-0.03843084688521639,-1.1984284167586432
1317,17.506814824019674,-8.319407703389881,-0.03748985695996214,-1.1747118616845447
1318,17.520107773772157,-8.146554488222096,-0.03644154997951015,-1.1501246011994344
1319,17.533400723524636,-7.981356054239868,-0.0354047887651762,-1.1266510745066072
1320,17.54669367327712,-7.842240729655093,-0.034488309023440376,-1.106127156262468
1321,17.5599866230296,-7.743419551079998,-0.03377808090469346,-1.0900025568865206
1322,17.573279572782084,-7.693563622791308,-0.03332622967054688,-1.079120432850961
1323,17.586572522534567,-7.695258034420607,-0.03314358346490286,-1.073583832361738
1324,17.59986547228705,-7.7453863417141795,-0.033198545052111325,-1.0727617566094052
1325,17.613158422039533,-7.8363890100109845,-0.03342449558452453,-1.075446428135696
1326,17.626451371792015,-7.958086085580954,-0.033736054741918764,-1.0801220240672447
1327,17.639744321544498,-8.09955425278365,-0.03405159429890954,-1.0852642169227553
1328,17.65303727129698,-8.250499148920587,-0.03431646695925176,-1.0895776154093275
1329,17.666330221049463,-8.401714953771164,-0.0345198450016619,-1.0921013422366457
1330,17.679623170801946,-8.544542970374861,-0.034698902595858165,-1.0921628565993335
1331,17.69291612055443,-8.669622788993152,-0.034927389141242285,-1.0892168428131666
1332,17.70620907030691,-8.765536700589076,-0.035290395222533126,-1.0826479334986228
1333,17.719502020059394,-8.818067446834071,-0.03585168314184335,-1.0716290058340496
1334,17.732794969811877,-8.8106715369857,-0.036622887340606904,-1.0551084393376058
1335,17.74608791956436,-8.726442211089479,-0.03754435404120485,-1.03195848222385
1336,17.759380869316843,-8.55139190289196,-0.03848515576436416,-1.001267206543266
1337,17.772673819069325,-8.27845735705766,-0.039265147333694704,-0.9627133847537965
1338,17.785966768821808,-7.9113517279625185,-0.03969570841696997,-0.9169379503780071
1339,17.79925971857429,-7.467337660182534,-0.039629725349535044,-0.8658218378581198
1340,17.812552668326774,-6.97817382073608,-0.039007578148200855,-0.8125952325654832
1341,17.825845618079256,-6.4888167329618165,-0.03788611076087448,-0.761730011961065
1342,17.83913856783174,-6.053821052652597,-0.03644188768042022,-0.7185968398403826
1343,17.852431517584222,-5.7316720931983625,-0.034946735856553564,-0.6888953436238476
1344,17.865724467336705,-5.577470474908722,-0.03372002263185824,-0.6778897377975229
1345,17.879017417089187,-5.634522141523613,-0.033066436204333666,-0.6895079366235833
1346,17.89231036684167,-5.92557057153069,-0.03320996818010286,-0.725396089729163
1347,17.905603316594153,-6.44472011954748,-0.0342352888813136,-0.7840647729276131
1348,17.918896266346636,-7.1515164222215235,-0.036047604673499316,-0.8603099488427088
1349,17.93218921609912,-7.969010064754839,-0.03836125131540365,-0.9451213780268485
1350,17.9454821658516,-8.787662429516438,-0.0407247116462504,-1.026275339781362
1351,17.958775115604084,-9.476372897685366,-0.04258446043734382,-1.0897212974817512
1352,17.972068065356567,-9.900560100052813,-0.04338193697326526,-1.1217045012982516
1353,17.98536101510905,-9.945245952978365,-0.0426682981763529,-1.1113412912279108
1354,17.998653964861532,-9.538967272147458,-0.040213041665290605,-1.053142007440913
1355,18.011946914614015,-8.672869734157,-0.036078575824394665,-0.9488459259652142
1356,18.025239864366497,-7.40934233458543,-0.030636512962494783,-0.8079770591721315
1357,18.03853281411898,-5.876469280683605,-0.024514050617224045,-0.646784710935296
1358,18.051825763871463,-4.248128538914353,-0.018477964386744674,-0.48565168429208094
1359,18.065118713623946,-2.713689545211539,-0.013283461177464612,-0.345506040083402
1360,18.07841166337643,-1.4444696882909511,-0.009527705668702905,-0.24409113555642403
1361,18.09170461312891,-0.5651368509244632,-0.0075473378539671135,-0.19300273128029138
1362,18.104997562881397,-0.13665963124995312,-0.007384967030370391,-0.19616418147123074
1363,18.11829051263388,-0.15382007552090857,-0.00882675637768039,-0.24997346900092868
1364,18.13158346238636,-0.5560811442828197,-0.011490976018829924,-0.3448860333280545
1365,18.14487641213884,-1.2472326810115333,-0.014934498973357467,-0.46785781230826073
1366,18.158169361891325,-2.1177184843148544,-0.018744720642880706,-0.6049546357768081
1367,18.171462311643804,-3.0640530074907737,-0.022596146113347457,-0.7435322292454128
1368,18.184755261396287,-4.001720907600119,-0.02626726979217033,-0.873628663065135
1369,18.19804821114877,-4.870501091842429,-0.029627055138217284,-0.9884871689055285
1370,18.21134116090125,-5.633392162039641,-0.0326067994774744,-1.084358371285967
1371,18.22463411065373,-6.271667702638837,-0.035172067909750984,-1.1598689702863578
1372,18.237927060406214,-6.778878784399372,-0.037303504727903114,-1.215274338631736
1373,18.2512200101587,-7.156011656379881,-0.038988546747234856,-1.251847596547829
1374,18.264512959911183,-7.408888470303502,-0.04022135640185446,-1.271530888547997
1375,18.277805909663662,-7.547727005113514,-0.041006759309737316,-1.2768333779300476
1376,18.29109885941615,-7.587932102514056,-0.04136488520049762,-1.2708537412761127
1377,18.30439180916863,-7.550873449755036,-0.0413349032996721,-1.2572661321053014
1378,18.317684758921114,-7.463597648464474,-0.040977255369496354,-1.2401433939560527
1379,18.3309777086736,-7.3569545565209635,-0.04037368396120501,-1.2235770475073164
1380,18.34427065842608,-7.2622518018420585,-0.03962377134053266,-1.2111509893093668
1381,18.35756360817856,-7.207077212306209,-0.03883672159468952,-1.2053968004445308
1382,18.370856557931045,-7.211218298493942,-0.03811836590886466,-1.2073803838932202
1383,18.384149507683528,-7.283623836697356,-0.03755551792849763,-1.2165401689580513
1384,18.39744245743601,-7.421128663216247,-0.037201732571671274,-1.2308310703536562
1385,18.410735407188493,-7.609274694426295,-0.03706903159416721,-1.2471492671579585
1386,18.424028356940976,-7.825104714676139,-0.03712873105685706,-1.2619444348163393
1387,18.43732130669346,-8.04138166594321,-0.03732160759621274,-1.2718857871182014
1388,18.45061425644594,-8.231387077687797,-0.03757447303878321,-1.2744437571084506
1389,18.463907206198424,-8.373344235935399,-0.03781811345173299,-1.2682777196698978
1390,18.477200155950907,-8.453619847125447,-0.0380013238896938,-1.2533711749024516
1391,18.49049310570339,-8.468157924958565,-0.03809744499362547,-1.2309143788403427
1392,18.503786055455876,-8.422019579212037,-0.03810262147871114,-1.2029858400890547
1393,18.517079005208355,-8.327336083165418,-0.038027809856422824,-1.1721179482993402
1394,18.53037195496084,-8.20031441234506,-0.0378883538813575,-1.1408441308334825
1395,18.54366490471332,-8.058074855612478,-0.037695232749013555,-1.1113167720257295
1396,18.556957854465804,-7.916020508753325,-0.03745098152037865,-1.0850611236306675
1397,18.570250804218286,-7.786183942074118,-0.037151316157547104,-1.0628959520308237
1398,18.58354375397077,-7.676666484732022,-0.036791356041232244,-1.0450125540679513
1399,18.59683670372325,-7.591989566948167,-0.036373685070246506,-1.031167099007208
1400,18.61012965347573,-7.533993090367279,-0.0359148422782105,-1.0209157367674873
1401,18.623422603228217,-7.502870781274939,-0.03544742018668125,-1.0138163157855224
1402,18.6367155529807,-7.498009259970433,-0.035016589230561,-1.009539308066601
1403,18.650008502733183,-7.51844725020302,-0.03467194399041368,-1.007868670208757
1404,18.663301452485666,-7.562931487014862,-0.03445726641909385,-1.0086156603547745
1405,18.67659440223815,-7.629662004089061,-0.034401480183005276,-1.011496390939801
1406,18.68988735199063,-7.7158671082599195,-0.034513531322877725,-1.0160261084166708
1407,18.703180301743117,-7.8173421048763565,-0.0347824436807472,-1.0214635768362292
1408,18.7164732514956,-7.928065101792025,-0.035181924199285286,-1.026812992501254
1409,18.72976620124808,-8.040001195823988,-0.03567727380558109,-1.0308749264712966
1410,18.74305915100056,-8.143225033690111,-0.036231566966640705,-1.032338282133597
1411,18.756352100753045,-8.226501456208306,-0.036808481333478006,-1.0299152734501587
1412,18.769645050505527,-8.278425852071967,-0.03737081304819841,-1.02252667202839
1413,18.78293800025801,-8.289119291482438,-0.03787610695352487,-1.0095338872368098
1414,18.796230950010493,-8.252310587417446,-0.0382729819638438,-0.9909878921073062
1415,18.80952389976297,-8.167460190948272,-0.03850251387271037,-0.9678346237374195
1416,18.82281684951545,-8.041445705302188,-0.03850770976560238,-0.9419997701512941
1417,18.836109799267938,-7.889285212218882,-0.03825076956861265,-0.9162858181069892
1418,18.84940274902042,-7.733445962954054,-0.037733567580704785,-0.8940516002968089
1419,18.862695698772903,-7.601464071442417,-0.037013383963555524,-0.8786969705072549
1420,18.875988648525382,-7.521859091770294,-0.036205156513319285,-0.8730242834634198
1421,18.88928159827787,-7.518642732368239,-0.035464338146131216,-0.8785801598719003
1422,18.90257454803035,-7.605081517219728,-0.034950350908196474,-0.8950926360315826
1423,18.915867497782838,-7.77775672732259,-0.03477779931836106,-0.9201162167024736
1424,18.92916044753532,-8.012300650769077,-0.03496857031377004,-0.9489867507423434
1425,18.9424533972878,-8.262336068579017,-0.03542048554114011,-0.9751674204246498
1426,18.95574634704028,-8.462926180045498,-0.035906019867233324,-0.9910253981054581
1427,18.969039296792765,-8.539118798538588,-0.0361077772621607,-0.9890043933933768
1428,18.982332246545248,-8.418956163329911,-0.03568727111239048,-0.9630527944001626
1429,18.99562519629773,-8.048860641473398,-0.0343726279440177,-0.9100537629735088
1430,19.008918146050213,-7.40805261899976,-0.03204245895242114,-0.8309253570769258
1431,19.022211095802696,-6.518153011515976,-0.02878067472519809,-0.7310623837553232
1432,19.03550404555518,-5.444773137185003,-0.024882601102073,-0.6199046392370311
1433,19.04879699530766,-4.289724814873884,-0.020805976078505557,-0.5096256492493697
1434,19.062089945060144,-3.17502228118881,-0.01707756691464918,-0.41318313309035803
1435,19.075382894812627,-2.2222411322222406,-0.014181041677925433,-0.34216929630139953
1436,19.08867584456511,-1.5321532928336064,-0.012458196238027146,-0.3049652803731361
1437,19.101968794317592,-1.1693485986411798,-0.012050700822245398,-0.3056065291711738
1438,19.115261744070075,-1.1548908482558964,-0.012895189303549699,-0.3435398633542908
1439,19.12855469382256,-1.4676263368349654,-0.014766862447903518,-0.41419016694574007
1440,19.14184764357504,-2.052495520829029,-0.017352896887589148,-0.5100589296309174
1441,19.155140593327523,-2.8328328673124745,-0.02033145865631306,-0.6220133080273061
1442,19.16843354308001,-3.7234352542425486,-0.023435334305655798,-0.7404890031387917
1443,19.18172649283249,-4.641903664123401,-0.026487825118429585,-0.8564619924993737
1444,19.19501944258497,-5.516915146415628,-0.02940815767238879,-0.9621670524408257
