,PPG_Raw,PPG_Clean,PPG_Rate,PPG_Peaks
0,-0.33799953825886253,-0.00808532372913312,88.51566046300499,0.0
1,-0.3778954503806433,-0.04682322532970647,88.51566046300499,0.0
2,-0.41636578897158383,-0.0838016274091681,88.51566046300499,0.0
3,-0.45191637351364156,-0.1173841978395008,88.51566046300499,0.0
4,-0.4830783778837871,-0.14617084246681503,88.51566046300499,0.0
5,-0.5085267432038991,-0.16910374706856451,88.51566046300499,0.0
6,-0.5272604625743037,-0.1855514684047349,88.51566046300499,0.0
7,-0.5387880547018098,-0.1953575505783445,88.51566046300499,0.0
8,-0.5432499930480751,-0.19884127603185822,88.51566046300499,0.0
9,-0.5414278971896608,-0.19674372377177798,88.51566046300499,0.0
10,-0.5346271880506447,-0.19012160580455073,88.51566046300499,0.0
11,-0.5244587671214652,-0.18020223121666487,88.51566046300499,0.0
12,-0.5125722572636117,-0.16822246264073232,88.51566046300499,0.0
13,-0.5004023917183016,-0.15527987411506583,88.51566046300499,0.0
14,-0.48898229662226617,-0.142223665078393,88.51566046300499,0.0
15,-0.47885772414917405,-0.12960589953184587,88.51566046300499,0.0
16,-0.4701113726588895,-0.11770156011937649,88.51566046300499,0.0
17,-0.4624829659205092,-0.10659121930012981,88.51566046300499,0.0
18,-0.4555538438763323,-0.0962859797283612,88.51566046300499,0.0
19,-0.4489562528329174,-0.08686384856562898,88.51566046300499,0.0
20,-0.442565823535196,-0.07858236099345003,88.51566046300499,0.0
21,-0.4366383658192667,-0.07193539904798284,88.51566046300499,0.0
22,-0.4318582083308281,-0.06763268047872241,88.51566046300499,0.0
23,-0.4292762029525497,-0.06649673001843619,88.51566046300499,0.0
24,-0.4301328032579402,-0.06929134731844608,88.51566046300499,0.0
25,-0.4355847660270437,-0.07651375392767806,88.51566046300499,0.0
26,-0.44637946343776175,-0.08819554427680516,88.51566046300499,0.0
27,-0.4625429031849696,-0.10376165804839783,88.51566046300499,0.0
28,-0.4831600543054958,-0.12198970413607232,88.51566046300499,0.0
29,-0.5063230399274596,-0.14109424814346572,88.51566046300499,0.0
30,-0.5292995931586865,-0.15893493920785834,88.51566046300499,0.0
31,-0.5489295759540275,-0.1733188455543332,88.51566046300499,0.0
32,-0.5621963670678717,-0.18234282270281602,88.51566046300499,0.0
33,-0.5668564645557903,-0.18470778922956796,88.51566046300499,0.0
34,-0.5619667695477565,-0.1799380979727378,88.51566046300499,0.0
35,-0.5481484411675671,-0.16845682569494047,88.51566046300499,0.0
36,-0.5274827349159592,-0.15149841863884117,88.51566046300499,0.0
37,-0.5030398711522358,-0.13087646185599047,88.51566046300499,0.0
38,-0.4781628124133438,-0.10865702306107608,88.51566046300499,0.0
39,-0.45571441528031353,-0.0868083026032101,88.51566046300499,0.0
40,-0.43750828861770497,-0.06689978417501623,88.51566046300499,0.0
41,-0.42407406089910027,-0.04990841299904379,88.51566046300499,0.0
42,-0.4147881877655814,-0.036160427429105156,88.51566046300499,0.0
43,-0.4082825664738291,-0.025403823144620724,88.51566046300499,0.0
44,-0.4029689093017875,-0.01697735194232869,88.51566046300499,0.0
45,-0.39750722750698625,-0.010024704546637647,88.51566046300499,0.0
46,-0.3910946715428666,-0.0037002791257710055,88.51566046300499,0.0
47,-0.38352963389856787,0.0026757310583550714,88.51566046300499,0.0
48,-0.3750832284235236,0.009535341045682363,88.51566046300499,0.0
49,-0.36626122589863225,0.0170545978148878,88.51566046300499,0.0
50,-0.3575539049998061,0.02520257328856551,88.51566046300499,0.0
51,-0.3492530883481947,0.03382162940677981,88.51566046300499,0.0
52,-0.3413779832170244,0.04271272856820965,88.51566046300499,0.0
53,-0.33370971442726943,0.05170617120103814,88.51566046300499,0.0
54,-0.3259011215839724,0.060708024046559825,88.51566046300499,0.0
55,-0.31761084354594893,0.06972172799653681,88.51566046300499,0.0
56,-0.30861103384423577,0.07885003566792244,88.51566046300499,0.0
57,-0.2988338613803167,0.08828343448876458,88.51566046300499,0.0
58,-0.2883473217969352,0.09827841058210797,88.51566046300499,0.0
59,-0.2772776460171815,0.1091245879187826,88.51566046300499,0.0
60,-0.2657154098716967,0.12109672773760127,88.51566046300499,0.0
61,-0.2536493941747355,0.13438804406408458,88.51566046300499,0.0
62,-0.24096471531451472,0.14902613948045285,88.51566046300499,0.0
63,-0.22752254820257214,0.16478115438494928,88.51566046300499,0.0
64,-0.21331328317163423,0.18108488572893147,88.51566046300499,0.0
65,-0.19864884771088567,0.1969861676122338,88.51566046300499,0.0
66,-0.18433816754136326,0.21116834542849397,88.51566046300499,0.0
67,-0.1717775908538461,0.22204713360409314,88.51566046300499,0.0
68,-0.16289206655644242,0.22795166045003293,88.51566046300499,1.0
69,-0.15988914468815435,0.2273708279757246,89.07061042166411,0.0
70,-0.16483756694832213,0.21922626974200898,89.62199804966978,0.0
71,-0.17914618440616728,0.20311830459727326,90.16957461855432,0.0
72,-0.20307650765115642,0.1794878445035536,90.71308829275492,0.0
73,-0.2354467027247895,0.14964818377443043,91.25228432900592,0.0
74,-0.2736553462438604,0.1156650372832832,91.7869052875511,0.0
75,-0.3140678846276363,0.08009598288823273,92.3166912551305,0.0
76,-0.35269213529876325,0.045633388705772514,92.84138007965753,0.0
77,-0.3859663888774465,0.014718962046411745,93.36070761645834,0.0
78,-0.41143983118104,-0.010793776198156482,93.87440798590343,0.0
79,-0.42816077397007163,-0.0298632329694499,94.38221384221526,0.0
80,-0.4366876321163243,-0.04233034773667445,94.8838566531907,0.0
81,-0.4387574941428746,-0.04883218870378692,95.37906699052836,0.0
82,-0.4367409398486461,-0.05058968580057462,95.86757483040414,0.0
83,-0.43305138327803405,-0.04912624587187444,96.34910986388898,0.0
84,-0.42966066383467777,-0.04598422501277116,96.82340181675345,0.0
85,-0.4278175125432037,-0.04249956281501301,97.2901807781546,0.0
86,-0.4279968457413604,-0.03967423664505529,97.74917753765237,0.0
87,-0.43004735610957634,-0.038157758409438546,98.20012392995166,0.0
88,-0.43346557141367226,-0.03832027470805537,98.642753186721,0.0
89,-0.43770971864967856,-0.04037790759664419,99.07680029478874,0.0
90,-0.4424723573823709,-0.04452059435167635,99.50200235997434,0.0
91,-0.44784965221888484,-0.05099564191460358,99.91809897576567,0.0
92,-0.4543708293225857,-0.06011516920931097,100.32483259601281,0.0
93,-0.4628797753039915,-0.07217862348903045,100.72194891076738,0.0
94,-0.47428969465388365,-0.08732702361897401,101.10919722435922,0.0
95,-0.48925896559580656,-0.10536742619845577,101.48633083476739,0.0
96,-0.5078581300311865,-0.1256190014197713,101.85310741331078,0.0
97,-0.5293095409765205,-0.14683256626482938,102.20928938365537,0.0
98,-0.5518781754119743,-0.16722263456968997,102.55464429911049,0.0
99,-0.572971757972188,-0.18462720285125156,102.88894521716603,0.0
100,-0.5894701344172416,-0.19678057182392866,103.21197107020672,0.0
101,-0.598250525289587,-0.20165536908339074,103.52350703132653,0.0
102,-0.5968152185285844,-0.19780886932157501,103.82334487416036,0.0
103,-0.5838776170473378,-0.18466160013816318,104.11128332564715,0.0
104,-0.55974360423844,-0.16264587414994222,104.38712841064117,0.0
105,-0.5263573755861893,-0.13318691764373328,104.65069378729655,0.0
106,-0.486967111899428,-0.0985141036304853,104.90180107216217,0.0
107,-0.4454827276893791,-0.06133597031992456,105.14028015394312,0.0
108,-0.40570024583340647,-0.024441155384415048,105.36596949490742,0.0
109,-0.37060939936160786,0.00969888323165577,105.57871641894631,0.0
110,-0.3419628587085805,0.039253285174221456,105.77837738532955,0.0
111,-0.32018548944889574,0.06322854282160213,105.96481824723575,0.0
112,-0.3045864425718002,0.0815144994625818,106.13791449418275,0.0
113,-0.2937535285571812,0.09478576940331958,106.29755147753009,0.0
114,-0.2859845245132168,0.10428946743559517,106.44362461827966,0.0
115,-0.2796407752538737,0.11156488631392497,106.57603959645753,0.0
116,-0.27337018892021336,0.11814468468287037,106.69471252142145,0.0
117,-0.2662088296833594,0.12528235401164556,106.79957008250294,0.0
118,-0.25760940121743314,0.13374085159326102,106.89054967946213,0.0
119,-0.24745147212746693,0.1436657929514711,106.96759953230394,0.0
120,-0.23606635172916554,0.15455560141422361,107.03067877007817,0.0
121,-0.2242725035223384,0.16533091822377152,107.07975749836206,0.0
122,-0.21338269591131467,0.17449561694683974,107.11481684520183,0.0
123,-0.20512764528588717,0.18037108285755216,107.13584898536769,0.0
124,-0.20145218836791914,0.18137414403474722,107.14285714285714,1.0
125,-0.20417871125799242,0.17629886971183586,107.1205465457756,0.0
126,-0.2145876489133805,0.16455638964601552,107.05439203218617,0.0
127,-0.23301668482226673,0.14632821859129197,106.94563607275896,0.0
128,-0.258605773435512,0.1225993918948355,106.79561541547639,0.0
129,-0.28929634867356313,0.09505765473640193,106.60575114250011,0.0
130,-0.3221272470280017,0.06587060870942463,106.37753858583493,0.0
131,-0.35377558115271657,0.03737827343814711,106.11253721160358,0.0
132,-0.3812042287249174,0.011757300341406582,105.81236057606067,0.0
133,-0.402236557801056,-0.009280295188309286,105.47866644853882,0.0
134,-0.4159027189850499,-0.02469875670702168,105.11314718761092,0.0
135,-0.4224799565599784,-0.03422573827361686,104.71752044713456,0.0
136,-0.42324814280765255,-0.03830766984438744,104.29352027878387,0.0
137,-0.42006228076907826,-0.037953532180719764,103.84288868741487,0.0
138,-0.41488018316272046,-0.034507906783128386,103.36736768537521,0.0
139,-0.40937115187674866,-0.02940352269564076,102.86869188186311,0.0
140,-0.40468370301807727,-0.02394055003378502,102.34858163382933,0.0
141,-0.40138970488424364,-0.019126950884776457,101.80873677584745,0.0
142,-0.3995703815179445,-0.015595937442106921,101.25083093796147,0.0
143,-0.39898037552954585,-0.013598314351779987,100.67650645284228,0.0
144,-0.3992229795939192,-0.013053600636083046,100.08736984670192,0.0
145,-0.39988720548899226,-0.013636782564557519,99.48498790235854,0.0
146,-0.40062483322715337,-0.014877523217700857,98.87088427762727,0.0
147,-0.40117169893831195,-0.01625394933842709,98.24653665781955,0.0
148,-0.40133426921794996,-0.017271008991038738,97.61337441754436,0.0
149,-0.4009672238264022,-0.01752100939067703,96.97277676417484,0.0
150,-0.399962347710755,-0.016729153602895654,96.32607133322827,0.0
151,-0.3982583639430358,-0.014788667257303146,95.67453320444437,0.0
152,-0.3958706051277363,-0.011788587742055566,95.01938430647789,0.0
153,-0.39293211445847187,-0.008033561408235319,94.36179317777989,0.0
154,-0.3897347485940411,-0.004050676350146795,93.70287505136186,0.0
155,-0.3867587610158557,-0.0005751613504460882,93.04369223165412,0.0
156,-0.3846801102565552,0.0014938787355248916,92.38525473252261,0.0
157,-0.38434533025471523,0.0011738282449688421,91.72852114663472,0.0
158,-0.3867050142611237,-0.0024848972995508162,91.07439971771285,0.0
159,-0.392700706913293,-0.010254614106350594,90.423749588731,0.0
160,-0.40310774173043623,-0.022576272209731525,89.77738220075042,0.0
161,-0.41834823072806954,-0.03942118156596268,89.13606281881358,0.0
162,-0.4383022878100638,-0.06019813214671575,88.50051216308651,0.0
163,-0.4621586031119875,-0.08373335857346066,87.87140812522672,0.0
164,-0.4883534002319685,-0.10834171140564003,87.2493875517308,0.0
165,-0.5146442008324316,-0.13199199454403945,86.635048077762,0.0
166,-0.5383463673647175,-0.15255021967241592,86.02894999665484,0.0
167,-0.5567238609003455,-0.1680656213273645,85.43161815192725,0.0
168,-0.5674759420068535,-0.17705055565892988,84.84354384019096,0.0
169,-0.5692131360535323,-0.17870125369720447,84.26518671483001,0.0
170,-0.5617902379818565,-0.17301426252294128,83.69697668170878,0.0
171,-0.5463812110207772,-0.16077269093149235,83.13931577947533,0.0
172,-0.5252460903939162,-0.14340314565180054,82.59258003823786,0.0
173,-0.5012361262528295,-0.1227320120407132,82.05712131151634,0.0
174,-0.477173387158835,-0.10069122821166664,81.53326907740781,0.0
175,-0.45528503164788076,-0.07903309974430167,81.0213322058545,0.0
176,-0.4368495040016479,-0.05910853180588592,80.52160068977703,0.0
177,-0.42213227480714066,-0.041745044994887445,80.03434733862831,0.0
178,-0.4105880277442098,-0.027235456994695227,79.55982943365045,0.0
179,-0.40122587950509325,-0.015422386593117253,79.09829034477453,0.0
180,-0.3930015945519079,-0.005844552294298706,78.64996110970401,0.0
181,-0.3851192290150316,0.002097488658016261,78.21506197626744,0.0
182,-0.3771772479691353,0.008995180810091333,77.79380390962434,0.0
183,-0.36915536976730623,0.015331958113564331,77.38639006636437,0.0
184,-0.3612862683059233,0.021439086164135382,76.99301723795881,0.0
185,-0.3538793247191592,0.02750101380104291,76.61387726641419,0.0
186,-0.34716137953608917,0.033592804942309866,76.24915843534274,0.0
187,-0.3411791414359903,0.039728217228549335,75.89904684001088,0.0
188,-0.3357801233162532,0.045899881539296264,75.56372774026279,0.0
189,-0.3306634763623051,0.052100761945497176,75.24338690054087,0.0
190,-0.3254750132762539,0.05832558000335135,74.93821192155397,0.0
191,-0.31991376822285666,0.06455908093597858,74.648393568473,0.0
192,-0.3138191742262432,0.07076259969904096,74.37412710087622,0.0
193,-0.30721576041588716,0.07687032798736669,74.11561361002553,0.0
194,-0.30030385797079295,0.08280235525079638,73.87306136943633,0.0
195,-0.2933982580695883,0.08849448816867864,73.64668720511703,0.0
196,-0.286830026450425,0.09393727067986217,73.43671789230372,0.0
197,-0.28083710389481165,0.0992108680542429,73.24339158601146,0.0
198,-0.27547409155738684,0.10450041354392864,73.06695929327302,0.0
199,-0.27056891305262054,0.11007899056073656,72.90768639554952,0.0
200,-0.26574417711105114,0.11625241057421601,72.76585423048422,0.0
201,-0.2605065802834102,0.1232699563655543,72.64176174294393,0.0
202,-0.2543921085513483,0.13121600055799718,72.535727216164,0.0
203,-0.24714096243407493,0.13990615982191862,72.44809009480024,0.0
204,-0.2388656347914498,0.14881585188870494,72.37921291280593,0.0
205,-0.23016973788674336,0.15706701306928803,72.32948334032267,0.0
206,-0.2221763405046831,0.1634898331526796,72.29931636521317,0.0
207,-0.2164358068987724,0.16676179038773448,72.28915662650603,1.0
208,-0.21470597577732914,0.16560870244807624,72.28915662650603,0.0
209,-0.21862940199679914,0.15903577417044812,72.28915662650603,0.0
210,-0.22936581936853778,0.14654490228055642,72.28915662650603,0.0
211,-0.24726242865179843,0.12829131654242598,72.28915662650603,0.0
212,-0.2716501130724298,0.10513985657156823,72.28915662650603,0.0
213,-0.3008347087141042,0.07859829431917197,72.28915662650603,0.0
214,-0.3323105675629268,0.05062908330636959,72.28915662650603,0.0
215,-0.36316812481320515,0.023366721978758262,72.28915662650603,0.0
216,-0.39061334835830164,-0.0012103297300970553,72.28915662650603,0.0
217,-0.41248210632419363,-0.021591839192608965,72.28915662650603,0.0
218,-0.4276297031999715,-0.036971014415115085,72.28915662650603,0.0
219,-0.43610758238125447,-0.04735501269256609,72.28915662650603,0.0
220,-0.4390947940843575,-0.05352685066091817,72.28915662650603,0.0
221,-0.43861169868562233,-0.05686413886754904,72.28915662650603,0.0
222,-0.4370884221367356,-0.05904868594083157,72.28915662650603,0.0
223,-0.4368807450124463,-0.06172301775750748,72.28915662650603,0.0
224,-0.43982280697894915,-0.06616080348202354,72.28915662650603,0.0
225,-0.44688816111504853,-0.07301593269710353,72.28915662650603,0.0
226,-0.45800816617464685,-0.08219996623939786,72.28915662650603,0.0
227,-0.47207516024340007,-0.0929126774440593,72.28915662650603,0.0
228,-0.48713722266852494,-0.10382005119626211,72.28915662650603,0.0
229,-0.5007675037423345,-0.11334417065087554,72.28915662650603,0.0
230,-0.5105602413055614,-0.12000585984632595,72.28915662650603,0.0
231,-0.5146691818162606,-0.12274889158872175,72.28915662650603,0.0
232,-0.5122723263390146,-0.12117719820802324,72.28915662650603,0.0
233,-0.5038370889985191,-0.11565411717455439,72.28915662650603,0.0
234,-0.4910888827995482,-0.10724213532628096,72.28915662650603,0.0
235,-0.4766581915758822,-0.09749661363803518,72.28915662650603,0.0
236,-0.46347914777592053,-0.08815944284010958,72.28915662650603,0.0
237,-0.45409986351908077,-0.08082049886296289,72.28915662650603,0.0
238,-0.45010155111391686,-0.07662054126616016,72.28915662650603,0.0
239,-0.4517896675837141,-0.07605739322260013,72.28915662650603,0.0
240,-0.45822851916269497,-0.07893114527280391,72.28915662650603,0.0
241,-0.467579822270581,-0.08443082728148761,72.28915662650603,0.0
242,-0.47761938703395196,-0.0913332635173919,72.28915662650603,0.0
243,-0.48627193352669895,-0.0982625175881222,72.28915662650603,0.0
244,-0.4920247266141205,-0.10395020473587767,72.28915662650603,0.0
245,-0.4941387319393205,-0.10744358448248971,72.28915662650603,0.0
246,-0.4926453348046293,-0.10822642594335888,72.28915662650603,0.0
247,-0.4881740679758507,-0.10624130207047931,72.28915662650603,0.0
248,-0.48168872872417157,-0.1018247283871139,72.28915662650603,0.0
249,-0.47421356922332,-0.09558310314046788,72.28915662650603,0.0
250,-0.46661440133936644,-0.08824479590869214,72.28915662650603,0.0
251,-0.45947166320792127,-0.08052178920978748,72.28915662650603,0.0
252,-0.4530531390390276,-0.0730051624501446,72.28915662650603,0.0
253,-0.4473693772022397,-0.06610597772284812,72.28915662650603,0.0
254,-0.44227817818751175,-0.06004059986325293,72.28915662650603,0.0
255,-0.43759744692870434,-0.0548502176964107,72.28915662650603,0.0
256,-0.4331891745759463,-0.050439964025785385,72.28915662650603,0.0
257,-0.4289910599143332,-0.04662356813480335,72.28915662650603,0.0
258,-0.4249931728192504,-0.04316355991609305,72.28915662650603,0.0
259,-0.421178425765624,-0.03980256085668893,72.28915662650603,0.0
260,-0.41745922521939394,-0.03628601708150056,72.28915662650603,0.0
261,-0.41364278068653465,-0.03237938887855087,72.28915662650603,0.0
262,-0.40944418147995587,-0.027882893423887015,72.28915662650603,0.0
263,-0.4045454440855951,-0.022645029971853844,72.28915662650603,0.0
264,-0.3986791774272763,-0.016573602575011878,72.28915662650603,0.0
265,-0.39170511005199915,-0.009641197911555176,72.28915662650603,0.0
266,-0.3836501313141599,-0.0018820175792668148,72.28915662650603,0.0
267,-0.37469619182610636,0.006621255996391233,72.28915662650603,0.0
268,-0.3651196325849616,0.015758940419035,72.28915662650603,0.0
269,-0.3552027222458463,0.02541965154434281,72.28915662650603,0.0
270,-0.3451470959830806,0.035513230502849616,72.28915662650603,0.0
271,-0.3350168326918367,0.045985471088823754,72.28915662650603,0.0
272,-0.3247278713024728,0.05682121679971226,72.28915662650603,0.0
273,-0.3140850948789976,0.06803608048494808,72.28915662650603,0.0
274,-0.30285392685493695,0.07966074356348532,72.28915662650603,0.0
275,-0.2908434937454835,0.09172417188052731,72.28915662650603,0.0
276,-0.2779752769707163,0.10424218616216037,72.28915662650603,0.0
277,-0.2643153260637971,0.11721543008837434,72.28915662650603,0.0
278,-0.25005900212264714,0.13063653253410268,72.28915662650603,0.0
279,-0.23547261771201042,0.14450151846424894,72.28915662650603,0.0
280,-0.22081192842254796,0.15881696539813192,72.28915662650603,0.0
281,-0.20624780251542277,0.17359351206534743,72.28915662650603,0.0
282,-0.19183017729839744,0.18881888452637857,72.28915662650603,0.0
283,-0.17751132145515452,0.20440936501679202,72.28915662650603,0.0
284,-0.1632310625463769,0.22014627633514594,72.28915662650603,0.0
285,-0.14904568356323286,0.23561149712192472,72.28915662650603,0.0
286,-0.13526535104769655,0.25014093543710303,72.28915662650603,0.0
287,-0.12255754055415223,0.2628153693432585,72.28915662650603,0.0
288,-0.11197818410750149,0.27250322427658324,72.28915662650603,0.0
289,-0.10490689685873172,0.2779601659017997,72.28915662650603,0.0
290,-0.10288382041379825,0.2779776744537903,72.28915662650603,1.0
291,-0.10736856893479829,0.2715598741021249,72.2988755496411,0.0
292,-0.11946207907621934,0.2580980367812778,72.32765875334702,0.0
293,-0.1396462582487118,0.23750817862859264,72.37496715656226,0.0
294,-0.1676010697259673,0.21030067962313065,72.44028776889017,0.0
295,-0.20215118920697764,0.1775618522272493,72.52313100260221,0.0
296,-0.2413728420392037,0.1408439670644206,72.6230281407184,0.0
297,-0.2828572765084509,0.10197893782479592,72.73952894282985,0.0
298,-0.3240869806645521,0.06284735589500072,72.87219937223257,0.0
299,-0.36284553380305895,0.025144742226243508,73.02061942963633,0.0
300,-0.39756488278947383,-0.009812024659125285,73.18438108022666,0.0
301,-0.4275239718783996,-0.041203724714215906,73.36308626222043,0.0
302,-0.45285020138400567,-0.06873521958360375,73.55634496628757,0.0
303,-0.4743298194024704,-0.0925713642392216,73.763773376334,0.0
304,-0.4930875062972542,-0.11320336531831612,73.98499206317237,0.0
305,-0.5102307917153807,-0.1312795415251484,74.21962422356303,0.0
306,-0.5265592938578921,-0.1474386167199748,74.46729395800153,0.0
307,-0.5424107088532943,-0.1621785890686967,74.72762458147494,0.0
308,-0.5576657461489768,-0.17578195435547625,75.00023696221689,0.0
309,-0.5718819900221053,-0.1883024748153245,75.28474788427282,0.0
310,-0.5844914229708621,-0.19960414858033904,75.58076843044942,0.0
311,-0.5949889518214453,-0.20943311695482547,75.88790238297663,0.0
312,-0.6030577945325175,-0.21749976694536755,76.20574463996175,0.0
313,-0.6086100503187631,-0.2235510195475238,76.5338796464724,0.0
314,-0.6117525473326544,-0.22741984009593755,76.87187983985288,0.0
315,-0.6127086507536601,-0.22904761591765416,77.2193041096621,0.0
316,-0.6117325039956562,-0.22848256750971868,77.57569627342654,0.0
317,-0.6090452310244875,-0.22586199310040977,77.94058357023128,0.0
318,-0.604808127853968,-0.22138730635913442,78.31347517502886,0.0
319,-0.599131984274707,-0.21529907287585678,78.69386073743239,0.0
320,-0.5921097950516176,-0.20785589544566987,79.08120894967595,0.0
321,-0.5838551357128889,-0.19931756660114777,79.47496614937232,0.0
322,-0.5745299830927877,-0.18993063586255163,79.87455496367286,0.0
323,-0.5643511655035196,-0.17991404866647565,80.27937300243579,0.0
324,-0.5535714321070097,-0.16944371070475983,80.68879160903046,0.0
325,-0.542438224132101,-0.15863703000135332,81.102154678442,0.0
326,-0.5311401798401219,-0.1475406855988487,81.51877755338424,0.0
327,-0.5197569874935332,-0.13612608422579725,81.9379460101679,0.0
328,-0.5082301263953395,-0.12429655084648686,82.3589153470961,0.0
329,-0.4963683262822651,-0.1119081601336164,82.78090958915224,0.0
330,-0.48389226830057097,-0.0988027526470985,83.20312082369239,0.0
331,-0.4705107172445828,-0.08484804772872717,83.62470868273371,0.0
332,-0.45600905224843746,-0.0699769901494591,84.04479998822323,0.0
333,-0.44032513241011756,-0.054217490460553505,84.46248857734888,0.0
334,-0.42358917035698934,-0.037704988532947216,84.87683532549678,0.0
335,-0.4061138720534363,-0.020673583247977786,85.28686838483038,0.0
336,-0.3883357605043306,-0.0034260226264467564,85.69158365664309,0.0
337,-0.37072338007158345,0.013712528084244127,86.08994551558294,0.0
338,-0.3536777018498489,0.03044849469443764,86.48088780353278,0.0
339,-0.33745120029888365,0.04657161687177809,86.8633151103214,0.0
340,-0.3221047853646263,0.0619948632095608,87.23610435750804,0.0
341,-0.3075092279162646,0.07677536066714939,87.59810670019435,0.0
342,-0.2933846832425448,0.09111254057369504,87.94814976014656,0.0
343,-0.27936281261807183,0.10532323255118173,88.28504020143515,0.0
344,-0.26505337469785345,0.11979641722870743,88.60756665729755,0.0
345,-0.25010111552804315,0.13493246375307535,88.91450301399452,0.0
346,-0.23422729584832816,0.1510730159395488,89.20461205405472,0.0
347,-0.21725978178893346,0.16842858228881488,89.47664945749335,0.0
348,-0.19916218457319754,0.1870116431140294,89.72936815536436,0.0
349,-0.18007250134595348,0.206583760054467,89.96152302539038,0.0
350,-0.1603537711338143,0.2266254248929403,90.17187591445133,0.0
351,-0.14064589525560678,0.2463365873069778,90.35920096745595,0.0
352,-0.12189518479150556,0.264673312627712,90.52229023663956,0.0
353,-0.1053338427807283,0.2804215562003711,90.65995953970973,0.0
354,-0.09239017289140145,0.29230297581543324,90.77105452959361,0.0
355,-0.08453059594319356,0.2991011513453121,90.85445693293744,0.0
356,-0.08305916186252078,0.29979117018242724,90.9090909090909,1.0
357,-0.0889188299938864,0.29365293597847125,90.94876092421376,0.0
358,-0.10254304900501458,0.28034990313853175,90.98796169397922,0.0
359,-0.12379387163762215,0.2599603877552674,91.02668843049317,0.0
360,-0.15199879369140387,0.2329571849466861,91.06493634748252,0.0
361,-0.18607199797507637,0.20014104455923787,91.10270066075176,0.0
362,-0.22468598428481643,0.1625423232945222,91.13997658864446,0.0
363,-0.26645200244358624,0.12131075845820867,91.17675935250867,0.0
364,-0.31007218438279793,0.07761447527376879,91.2130441771677,0.0
365,-0.35443852623130817,0.03256580091167689,91.24882629139516,0.0
366,-0.39866832041390293,-0.012815930489971789,91.28410092839434,0.0
367,-0.4420782646245978,-0.057603913986409266,91.31886332628231,0.0
368,-0.48410927142136506,-0.10093454048856271,91.35310872857833,0.0
369,-0.5242221485872801,-0.1419652012567478,91.3868323846966,0.0
370,-0.5617916506307066,-0.17983849992715314,91.42002955044337,0.0
371,-0.5960312019321403,-0.21367057163844888,91.45269548851809,0.0
372,-0.6259788202798255,-0.24257500575413693,91.48482546901906,0.0
373,-0.6505629377720981,-0.2657243441012169,91.51641476995287,0.0
374,-0.668745482370434,-0.2824404886237011,91.54745867774803,0.0
375,-0.6797146221358004,-0.29229623763475204,91.5779524877727,0.0
376,-0.683079902717715,-0.2952050003220791,91.60789150485598,0.0
377,-0.6790157521733142,-0.29147606008497956,91.6372710438134,0.0
378,-0.668308504787846,-0.281818754947659,91.66608642997599,0.0
379,-0.6522850760924166,-0.2672893109947446,91.69433299972306,0.0
380,-0.6326321917429623,-0.2491862911528857,91.72200610101851,0.0
381,-0.6111451362906092,-0.22891164486271642,91.74910109395098,0.0
382,-0.5894649701311708,-0.20782139364459898,91.77561335127697,0.0
383,-0.5688657647500235,-0.18709136355096811,91.80153825896774,0.0
384,-0.5501370825539375,-0.16761892396367717,91.82687121675927,0.0
385,-0.5335775073408275,-0.14997282096803938,91.85160763870552,0.0
386,-0.5190833466090697,-0.13439242341090973,91.87574295373464,0.0
387,-0.5062934584091927,-0.12082789764371987,91.89927260620846,0.0
388,-0.4947427629409385,-0.10900637071692887,91.92219205648459,0.0
389,-0.48398353582902515,-0.09850727849408444,91.94449678148156,0.0
390,-0.47365047332102056,-0.08883267653014555,91.96618227524657,0.0
391,-0.46346630723586996,-0.0794639381521969,91.98724404952593,0.0
392,-0.4532034862192498,-0.06990287494180039,92.00767763433807,0.0
393,-0.4426296881068719,-0.059700745295295975,92.02747857854871,0.0
394,-0.4314678404163128,-0.0484813170622698,92.04664245044876,0.0
395,-0.41939406336439883,-0.03596358266016694,92.06516483833408,0.0
396,-0.4060815872828396,-0.02198645453369978,92.08304135108749,0.0
397,-0.3912804003822243,-0.006533218636505314,92.10026761876277,0.0
398,-0.3749077664423215,0.010250515535131122,92.11683929317047,0.0
399,-0.3571189891843327,0.028053578499336734,92.13275204846556,0.0
400,-0.33833237964314977,0.0464179063839817,92.14800158173672,0.0
401,-0.3191948977177324,0.06478238072928738,92.16258361359704,0.0
402,-0.3004907421497375,0.08254929674382994,92.17649388877629,0.0
403,-0.28300962823948456,0.09916480074286177,92.18972817671435,0.0
404,-0.26740155464695875,0.11419997980922822,92.20228227215595,0.0
405,-0.25404917102058133,0.12741748652210483,92.21415199574625,0.0
406,-0.24298695489702232,0.1388102993143399,92.22533319462738,0.0
407,-0.2338881114864913,0.14860418281402943,92.23582174303608,0.0
408,-0.2261259864989782,0.15722247474583093,92.24561354290142,0.0
409,-0.21889913897056534,0.16521925714207095,92.2547045244435,0.0
410,-0.21139242456766413,0.1731929222973613,92.26309064677238,0.0
411,-0.20293591066007716,0.1816951682063817,92.27076789848729,0.0
412,-0.19312367786570572,0.19114992284485302,92.27773229827585,0.0
413,-0.18186691001570898,0.20179298006767257,92.28397989551345,0.0
414,-0.16937683088995834,0.21363750459723485,92.28950677086229,0.0
415,-0.15609545251160806,0.22646479174269538,92.29430903687029,0.0
416,-0.14260690057946646,0.23983542971743044,92.29838283856941,0.0
417,-0.12956345479186993,0.2531143604970869,92.30172435407353,0.0
418,-0.11764854525585083,0.2655043617557641,92.30432979517539,0.0
419,-0.10757947830811578,0.27608531700821115,92.30619540794294,0.0
420,-0.1001336706677542,0.2838598293091219,92.30731747331438,0.0
421,-0.09617058294460225,0.2878077259758976,92.3076923076923,1.0
422,-0.096621177242745,0.28695175311675514,92.30414764887266,0.0
423,-0.10242757682674555,0.2804340961583183,92.29365359680428,0.0
424,-0.1144338349761925,0.2675990517672383,92.27642225039594,0.0
425,-0.1332476246927446,0.2480726651248854,92.25266840904453,0.0
426,-0.15910522083454506,0.22182707876938912,92.22260926687842,0.0
427,-0.19177417653379247,0.18921701125279794,92.18646411456064,0.0
428,-0.230519879059919,0.1509787178145764,92.14445404924979,0.0
429,-0.2741474573691472,0.10818755155558106,92.09680169326381,0.0
430,-0.32111401700979025,0.06217757195637041,92.04373092193771,0.0
431,-0.369691619520325,0.014433778437027492,91.98546660111344,0.0
432,-0.4181511462997226,-0.03352728822108672,91.92223433464886,0.0
433,-0.464932783559903,-0.08027093553001449,91.85426022228123,0.0
434,-0.5087716202078804,-0.12453591397996713,91.78177062813286,0.0
435,-0.5487572437943841,-0.16529357807793554,91.70499196009791,0.0
436,-0.5843227320949248,-0.201771124517021,91.62415046030462,0.0
437,-0.6151768193433086,-0.2334427918389737,91.53947200680281,0.0
438,-0.6412072353769137,-0.25999871519826884,91.45118192658653,0.0
439,-0.662388126741587,-0.28130405555320914,91.35950482002046,0.0
440,-0.678718557880333,-0.29736055679517603,91.26466439670361,0.0
441,-0.6902052500774983,-0.30827923281708686,91.16688332276841,0.0
442,-0.6968865379349988,-0.31426760770706763,91.0663830795811,0.0
443,-0.6988815892952288,-0.3156293730381123,90.96338383378054,0.0
444,-0.6964428431637689,-0.3127699777693466,90.85810431856422,0.0
445,-0.6899912040178148,-0.3061995767204715,90.75076172610679,0.0
446,-0.6801209081761915,-0.2965253117706047,90.64157161097297,0.0
447,-0.6675704730773292,-0.28442777093351623,90.530747804368,0.0
448,-0.6531641744705359,-0.2706208075158004,90.41850233905019,0.0
449,-0.6377334659250351,-0.25579856437341053,90.30504538471621,0.0
450,-0.6220303087744673,-0.24057739621473856,90.19058519365576,0.0
451,-0.6066458502649472,-0.22544251889988787,90.07532805646211,0.0
452,-0.5919485229839959,-0.2107091540474958,89.95947826757671,0.0
453,-0.578054335708024,-0.19650568764586634,89.84323810043871,0.0
454,-0.564837589985971,-0.18278241031291487,89.72680779200667,0.0
455,-0.5519823196327989,-0.169344617163039,89.61038553641622,0.0
456,-0.5390649636059927,-0.15590426831589527,89.49416748753711,0.0
457,-0.5256502232329786,-0.1421410480134475,89.37834777019374,0.0
458,-0.5113783245464106,-0.12776222397287323,89.26311849981566,0.0
459,-0.49602527159683374,-0.11255145269125834,89.1486698102886,0.0
460,-0.4795271754870966,-0.09639934628327103,89.03518988978234,0.0
461,-0.4619710468882116,-0.07931253907982262,88.9228650243381,0.0
462,-0.4435623293229213,-0.06140227246040969,88.81187964900667,0.0
463,-0.4245812596853645,-0.042857267634753025,88.70241640633829,0.0
464,-0.4053372187154989,-0.02390818907209255,88.59465621203451,0.0
465,-0.3861262642598669,-0.0047919251412722325,88.48877832758636,0.0
466,-0.36719500098469776,0.014276850365959534,88.3849604397334,0.0
467,-0.3487143346308796,0.033121621818609684,88.28337874659401,0.0
468,-0.3307679375169936,0.051605571906636616,88.18420805033101,0.0
469,-0.3133602611322595,0.06962055112521026,88.08762185623289,0.0
470,-0.2964460623907311,0.08706872931549212,87.99379247810741,0.0
471,-0.2799773041299758,0.10384447914118888,87.90289114990199,0.0
472,-0.26395542587125226,0.11982452276055322,87.81508814348352,0.0
473,-0.2484707328848157,0.13487265355818528,87.73055289252973,0.0
474,-0.23371003543325752,0.1488615373334302,87.64945412250425,0.0
475,-0.21992098451357908,0.16170891023468986,87.57195998670862,0.0
476,-0.2073355201990212,0.1734201600330389,87.49823820842612,0.0
477,-0.19607082090584113,0.18412530590089424,87.42845622919556,0.0
478,-0.18603821666423623,0.19409714216552829,87.36278136327681,0.0
479,-0.17689398744281626,0.2037395664819907,87.30138095839409,0.0
480,-0.16805864966350945,0.21354075195304878,87.24442256286993,0.0
481,-0.1588141055376592,0.2239937402936892,87.19207409928875,0.0
482,-0.1484650160552477,0.23549535761762425,87.14450404485763,0.0
483,-0.1365290172934563,0.24824092895432331,87.10188161866127,0.0
484,-0.12290793756642213,0.26213525930190795,87.06437697603887,0.0
485,-0.10799438516118574,0.27673879761589953,87.03216141034338,0.0
486,-0.09268469390577445,0.29126202401104595,87.005407562377,0.0
487,-0.07829413223740676,0.3046122528738453,86.98428963783357,0.0
488,-0.066394616231626,0.3154873307898076,86.96898363311514,0.0
489,-0.05861146989618687,0.32250238925980523,86.95966756993124,0.0
490,-0.05642074312135462,0.3243306881154881,86.95652173913044,1.0
491,-0.06098309354518587,0.3198385451873529,86.959099315025,0.0
492,-0.07303753174681797,0.30819720586331545,86.966727730763,0.0
493,-0.09286232423476873,0.2889601502738279,86.97925175624897,0.0
494,-0.12029482554581956,0.2621011144337721,86.99651767007073,0.0
495,-0.15479050369730843,0.22801432401786287,87.01837308791491,0.0
496,-0.1954968038004429,0.18748283825056564,87.04466679746257,0.0
497,-0.2413209599628801,0.1416229295080878,87.07524859950765,0.0
498,-0.2909810252019125,0.09181230966768182,87.109969155067,0.0
499,-0.3430423596526208,0.039608571430425205,87.14867983827406,0.0
500,-0.39595249513441233,-0.013337516183289766,87.19123259487147,0.0
501,-0.44809119004452813,-0.06537036513617686,87.23747980613892,0.0
502,-0.4978474543534185,-0.1149162530626916,87.28727415811392,0.0
503,-0.5437227912984229,-0.16056437161637813,87.34046851598126,0.0
504,-0.5844450824790641,-0.2011374330365724,87.39691580352779,0.0
505,-0.6190677148459155,-0.23574670935799913,87.45646888757474,0.0
506,-0.6470293594164226,-0.2638270849914824,87.51898046731829,0.0
507,-0.6681615675035452,-0.28514949204205164,87.58430296852467,0.0
508,-0.6826482826987958,-0.2998105572565892,87.65228844254199,0.0
509,-0.6909550188643354,-0.30820173262343675,87.72278847010548,0.0
510,-0.6937498892584324,-0.31096194979087344,87.79565406992724,0.0
511,-0.6918336213946382,-0.3089185759101657,87.87073561207481,0.0
512,-0.6860855980889644,-0.3030212270647102,87.94788273615636,0.0
513,-0.6774233265329684,-0.2942722476085483,88.0269442743417,0.0
514,-0.6667670116900115,-0.2836569687492777,88.10776817926059,0.0
515,-0.6549999484893142,-0.2720766822916232,88.19020145683037,0.0
516,-0.6429186886286513,-0.2602877535367807,88.27409010407582,0.0
517,-0.6311733078034497,-0.24885121185071962,88.35927905201315,0.0
518,-0.6202057870449982,-0.2380979544754415,88.44561211367957,0.0
519,-0.6102006869657779,-0.22811473191170764,88.5329319373985,0.0
520,-0.6010639220117404,-0.21875485171117748,88.6210799653772,0.0
521,-0.5924410913995667,-0.20967489928900995,88.70989639774183,0.0
522,-0.5837777835547812,-0.20039504189197155,88.79922016212029,0.0
523,-0.5744139898283767,-0.19037637302406704,88.8888888888889,0.0
524,-0.5636968517707723,-0.17910521297588566,88.97873889220394,0.0
525,-0.551092312933381,-0.16617222452280073,89.06860515694261,0.0
526,-0.5362766633868096,-0.15133427632803576,89.15832133168101,0.0
527,-0.5191923466174585,-0.13454938433223498,89.24771972783878,0.0
528,-0.5000580012776956,-0.11597945775229597,89.33663132512152,0.0
529,-0.479330300839906,-0.09596117599863337,89.42488578339157,0.0
530,-0.4576241545075799,-0.0749510185983582,89.51231146109787,0.0
531,-0.43560662682758566,-0.05345507732801459,89.59873544039247,0.0
532,-0.4138861437203782,-0.03195680134820862,89.68398355905936,0.0
533,-0.39292004885582726,-0.010855691529377667,89.76788044937646,0.0
534,-0.37295943692003736,0.009572823591280213,89.85024958402661,0.0
535,-0.35404113406863186,0.029190926456899635,89.93091332916673,0.0
536,-0.3360249739469058,0.04798575905859363,90.00969300475634,0.0
537,-0.318663426273337,0.06603644902680549,90.08640895223817,0.0
538,-0.30168353274623316,0.08347061315773442,90.16088060965284,0.0
539,-0.28486005071277687,0.10042168647242514,90.23292659425753,0.0
540,-0.2680634598066279,0.11699730251616097,90.30236479270685,0.0
541,-0.2512747465868361,0.13326547654010842,90.3690124588383,0.0
542,-0.2345676673806542,0.14926034665075236,90.43268631908997,0.0
543,-0.21806629259804017,0.1650038476922079,90.49320268556085,0.0
544,-0.2018901339596937,0.18053512838346156,90.55037757670591,0.0
545,-0.1861010207438044,0.19593679608022238,90.60402684563758,0.0
546,-0.17066542741355537,0.21134684137263546,90.65396631598597,0.0
547,-0.15544355482791528,0.22694752999299456,90.70001192524575,0.0
548,-0.1402125389407736,0.242927305006258,90.74197987551605,0.0
549,-0.12472594745392886,0.25941798967538826,90.7796867915139,0.0
550,-0.10880516058172379,0.27641612643516816,90.81294988571622,0.0
551,-0.09245031849283718,0.2937027571198952,90.84158713045917,0.0
552,-0.07595024525796654,0.3107790403367611,90.86541743679471,0.0
553,-0.05996469814826962,0.3268348585169635,90.88426083987709,0.0
554,-0.04555185512598556,0.3407636401138238,90.89793869062149,0.0
555,-0.03412145784255045,0.35122943143344726,90.90627385334763,0.0
556,-0.027308911819297628,0.3567829900908852,90.9090909090909,1.0
557,-0.026784171926168752,0.3560141119870195,90.9090909090909,0.0
558,-0.03402585449663521,0.34771953878512163,90.9090909090909,0.0
559,-0.050100593299501645,0.331061382533513,90.9090909090909,0.0
560,-0.07548758236245129,0.30569115014024517,90.9090909090909,0.0
561,-0.10997932431126445,0.27181931553838207,90.9090909090909,0.0
562,-0.15267519992578166,0.2302191302554384,90.9090909090909,0.0
563,-0.20206847198101505,0.18216430350851637,90.9090909090909,0.0
564,-0.2562123629945114,0.12931115334965776,90.9090909090909,0.0
565,-0.31293812972498636,0.07354463367120095,90.9090909090909,0.0
566,-0.3700886820157722,0.01681252158823085,90.9090909090909,0.0
567,-0.4257273079731108,-0.03902791924970783,90.9090909090909,0.0
568,-0.47828503946987594,-0.09233116655156912,90.9090909090909,0.0
569,-0.5266233786421245,-0.14174112446290402,90.9090909090909,0.0
570,-0.5700097255338654,-0.18622353849873186,90.9090909090909,0.0
571,-0.608025775870579,-0.22506028514719384,90.9090909090909,0.0
572,-0.6404472453379956,-0.25781864333612886,90.9090909090909,0.0
573,-0.6671397310839394,-0.2843104658588637,90.9090909090909,0.0
574,-0.688006731063303,-0.3045537746560594,90.9090909090909,0.0
575,-0.7030037189245427,-0.31874384877742384,90.9090909090909,0.0
576,-0.7122045401984691,-0.32723433487892517,90.9090909090909,0.0
577,-0.7158842896005512,-0.33052345776441794,90.9090909090909,0.0
578,-0.7145754777487825,-0.3292377030735879,90.9090909090909,0.0
579,-0.7090645958378572,-0.32410601401914096,90.9090909090909,0.0
580,-0.7003194441195825,-0.3159210328898038,90.9090909090909,0.0
581,-0.6893640320076837,-0.3054887532473845,90.9090909090909,0.0
582,-0.6771371135107654,-0.2935723212654983,90.9090909090909,0.0
583,-0.664375588605322,-0.2808381557479982,90.9090909090909,0.0
584,-0.6515538511205612,-0.26781240001006934,90.9090909090909,0.0
585,-0.6388891811105291,-0.25485332012185113,90.9090909090909,0.0
586,-0.626399838450698,-0.24214173278290882,90.9090909090909,0.0
587,-0.6139857644644392,-0.2296882539137653,90.9090909090909,0.0
588,-0.6014981354058404,-0.21735417133802026,90.9090909090909,0.0
589,-0.588774402213037,-0.20488241661400974,90.9090909090909,0.0
590,-0.5756349258279188,-0.19193600200215594,90.9090909090909,0.0
591,-0.561857146686538,-0.17814242132237232,90.9090909090909,0.0
592,-0.547154855548081,-0.1631428565736019,90.9090909090909,0.0
593,-0.5311888606701931,-0.14664400158544333,90.9090909090909,0.0
594,-0.5136219597035402,-0.12846808144515087,90.9090909090909,0.0
595,-0.49421108827986154,-0.10859412405428062,90.9090909090909,0.0
596,-0.4729106421697249,-0.08718204048637272,90.9090909090909,0.0
597,-0.44995066765101505,-0.06457177163574535,90.9090909090909,0.0
598,-0.42585638052263425,-0.04125317882428316,90.9090909090909,0.0
599,-0.40139113794316017,-0.017808048691630607,90.9090909090909,0.0
600,-0.37742851756804824,0.005167825188878775,90.9090909090909,0.0
601,-0.3547824662671081,0.027148939569123676,90.9090909090909,0.0
602,-0.334039551543454,0.04775447255572601,90.9090909090909,0.0
603,-0.31543916686718254,0.06679770446768761,90.9090909090909,0.0
604,-0.2988355125182004,0.08430056869370298,90.9090909090909,0.0
605,-0.28375279953070087,0.10047131001200285,90.9090909090909,0.0
606,-0.2695186804671732,0.1156517017569807,90.9090909090909,0.0
607,-0.25543799307181186,0.1302469676813418,90.9090909090909,0.0
608,-0.24095688897374498,0.14465456986390848,90.9090909090909,0.0
609,-0.22577119924343045,0.15920654594485387,90.9090909090909,0.0
610,-0.20985218905057063,0.17413465406698356,90.9090909090909,0.0
611,-0.1933911788785775,0.18955996311319137,90.9090909090909,0.0
612,-0.1766914016391679,0.20550111503895807,90.9090909090909,0.0
613,-0.1600511549939828,0.22189058151554047,90.9090909090909,0.0
614,-0.1436818697738856,0.2385872984898675,90.9090909090909,0.0
615,-0.12768954770654495,0.25537726333606403,90.9090909090909,0.0
616,-0.11212450886725286,0.2719598759741541,90.9090909090909,0.0
617,-0.09708091285298123,0.28792491920414565,90.9090909090909,0.0
618,-0.0828113253401417,0.3027307530473127,90.9090909090909,0.0
619,-0.06981673246982399,0.3156966419873517,90.9090909090909,0.0
620,-0.05887913708704827,0.3260202576301997,90.9090909090909,0.0
621,-0.05101940779552365,0.33282568458824996,90.9090909090909,0.0
622,-0.047382839732027615,0.33523923465091626,90.9090909090909,1.0
623,-0.04907395164846085,0.33248228302933214,90.91458313876629,0.0
624,-0.05697596017908361,0.32396450182334174,90.93082095771656,0.0
625,-0.07159585019056328,0.3093590389356183,90.95745139129464,0.0
626,-0.09297139274972281,0.2886440813093776,90.99412791531304,0.0
627,-0.1206625221986468,0.2621022897958197,91.04050966630993,0.0
628,-0.15382935595301347,0.23027909516186124,91.09626068714803,0.0
629,-0.19137791065613893,0.19391037929101929,91.1610492055841,0.0
630,-0.2321378182504062,0.15383711935756705,91.23454694370169,0.0
631,-0.2750285135350019,0.11092720632234757,91.31642845633955,0.0
632,-0.3191735242576691,0.06602202985613956,91.40637049686944,0.0
633,-0.3639359415743106,0.019918082210364577,91.50405140888729,0.0
634,-0.4088687435263634,-0.026616419396656224,91.6091505425774,0.0
635,-0.4535965710127576,-0.07280040433858698,91.72134769469535,0.0
636,-0.49766524559016995,-0.11779276174591544,91.84032257129111,0.0
637,-0.5404065200006902,-0.16066062576214907,91.96575427246063,0.0
638,-0.5808645761352976,-0.20038180769408936,92.09732079857359,0.0
639,-0.6178167571300278,-0.23589170450194236,92.23469857757719,0.0
640,-0.6498966735510816,-0.26617311694462326,92.37756201312033,0.0
641,-0.6757992245498372,-0.2903749475466128,92.52558305338378,0.0
642,-0.694522065883584,-0.3079359995437186,92.6784307806341,0.0
643,-0.7055839323551517,-0.31868577946664434,92.83577102164911,0.0
644,-0.7091615547317879,-0.32289672313848555,92.99726597928513,0.0
645,-0.7061041929257982,-0.32127129102328933,93.16257388557598,0.0
646,-0.6978141188024352,-0.31486089011331586,93.33134867686597,0.0
647,-0.6860151230721281,-0.3049283491427178,93.50323969158924,0.0
648,-0.672459874031016,-0.29277810236029234,93.67789139140922,0.0
649,-0.6586423173257215,-0.27958529315510217,93.85494310653199,0.0
650,-0.6455788219514518,-0.2662550204219105,94.03402880609734,0.0
651,-0.6337025878779025,-0.25333602456736026,94.21477689463823,0.0
652,-0.6228860823903796,-0.24100106771989954,94.39681003567833,0.0
653,-0.6125747173424544,-0.22909211851630434,94.57974500360815,0.0
654,-0.6019900946914611,-0.21721559442591712,94.76319256504522,0.0
655,-0.5903488604613057,-0.2048642265541172,94.94675739093752,0.0
656,-0.5770455884258295,-0.1915392713032118,95.13003800071611,0.0
657,-0.561763145607317,-0.17684993476626923,95.31262673983724,0.0
658,-0.5444964823600911,-0.16057467824547794,95.49410979207887,0.0
659,-0.5254991329116859,-0.14267921983539375,95.67406722796872,0.0
660,-0.5051797643904102,-0.12329590377984587,95.85207309071954,0.0
661,-0.48398467053704336,-0.10267642379933233,96.027695521033,0.0
662,-0.46229983412728015,-0.08113331559639277,96.20049692210343,0.0
663,-0.4403948841347719,-0.058984974843646766,96.3700341661076,0.0
664,-0.41841530257796,-0.03651505034409923,96.5358588434036,0.0
665,-0.3964140193841078,-0.01395142541559971,96.69751755558319,0.0
666,-0.3744036785232363,0.00853567050917084,96.8545522534223,0.0
667,-0.35240862443325066,0.03082118645203666,97.00650062065851,0.0
668,-0.3305004551407701,0.052805344545808736,97.15289650438588,0.0
669,-0.30880999452604574,0.0743932009861189,97.29327039270123,0.0
670,-0.28751796328236273,0.09547885299063602,97.42714994005799,0.0
671,-0.2668331035728065,0.11593692617820237,97.55406054058498,0.0
672,-0.24696822593747833,0.13562147062276853,97.67352594940948,0.0
673,-0.2281219505661466,0.1543705684350721,97.7850689517834,0.0
674,-0.21046903220485552,0.17201410400336184,97.88821207955398,0.0
675,-0.19415798195584782,0.18838222177519778,97.9824783742411,0.0
676,-0.1793131977447944,0.20331270716109567,98.06739219568804,0.0
677,-0.16603990389727255,0.2166564821474674,98.14248007494045,0.0
678,-0.15443188268096775,0.22828123826245295,98.2072716096798,0.0
679,-0.1445819076551675,0.23807367458128895,98.2613004001994,0.0
680,-0.13659227914172734,0.24594076654797387,98.30410502355814,0.0
681,-0.13057977974105772,0.25181004304860904,98.33523004319099,0.0
682,-0.12666895956108298,0.25562824569377846,98.35422705088979,0.0
683,-0.12497205238941751,0.25735734976877755,98.36065573770492,1.0
684,-0.12556193631883808,0.2569671004966517,98.34986338014383,0.0
685,-0.12845201343199641,0.25442415558870496,98.31789808384094,0.0
686,-0.1335983058307044,0.24967950633235358,98.26539683908263,0.0
687,-0.1409315092331575,0.2426575872250122,98.19302027900154,0.0
688,-0.15041221055998372,0.23325162726842974,98.10145003494134,0.0
689,-0.162087647677898,0.22132959607772304,97.99138611910656,0.0
690,-0.17612141834860842,0.20675315468035438,97.86354434947214,0.0
691,-0.19277349219545697,0.18940856029424535,97.71865383071992,0.0
692,-0.212325557432696,0.16924441201353924,97.55745450370357,0.0
693,-0.23496905912009694,0.14630783945945483,97.38069477463593,0.0
694,-0.26069087128537455,0.12076960395123697,97.18912923386627,0.0
695,-0.2891970653549205,0.09293042294598186,96.98351647278638,0.0
696,-0.3199061094176574,0.06320549686614765,96.76461700609013,0.0
697,-0.35202159157084023,0.03209050301452511,96.53319130532854,0.0
698,-0.3846677187518406,0.00011824933372173163,96.28999794846087,0.0
699,-0.4170470905421745,-0.03218136398878327,96.03579188891804,0.0
700,-0.44856825825167557,-0.06430594802278562,95.7713228465719,0.0
701,-0.4788963597306377,-0.09578243864819738,95.49733382195501,0.0
702,-0.5079041934836404,-0.12614659500562353,95.21455973410272,0.0
703,-0.5355367518984516,-0.1549091505425929,94.92372618149966,0.0
704,-0.5616366836953557,-0.18152386972796647,94.62554832480572,0.0
705,-0.5857973051072404,-0.20537446022426728,94.320729889317,0.0
706,-0.6073046769656224,-0.2257933767116243,94.0099622844808,0.0
707,-0.6252015566222168,-0.24211681751846925,93.69392383723356,0.0
708,-0.6384638959255307,-0.2537691004343276,93.37327913546042,0.0
709,-0.6462404671154858,-0.26035946576093993,93.04867847748557,0.0
710,-0.6480828363689147,-0.2617683882647685,92.72075742318586,0.0
711,-0.6440946131468229,-0.2582006792831034,92.39013644207675,0.0
712,-0.6349545676176914,-0.2501891726608078,92.05742065354046,0.0
713,-0.6218077722249017,-0.238543877532179,91.7231996542493,0.0
714,-0.6060576668171213,-0.2242540978269131,91.38804742777577,0.0
715,-0.5891168190367884,-0.2083617589862082,91.05252233137169,0.0
716,-0.5721789556052163,-0.1918303023457409,90.71716715493352,0.0
717,-0.5560615135936281,-0.17543366436840407,90.38250924724845,0.0
718,-0.5411438483251871,-0.15968437698676924,90.04906070472772,0.0
719,-0.5273999210572626,-0.14481046243559148,89.71731861797855,0.0
720,-0.5145027369987283,-0.13078012519619825,89.38776537173557,0.0
721,-0.5019653793285058,-0.11736389545749297,89.06086899386716,0.0
722,-0.48928176009334895,-0.10421785958799312,88.73708354938451,0.0
723,-0.4760378413448729,-0.0909698813367808,88.4168495756082,0.0
724,-0.46197725154947317,-0.07729308603555117,88.10059455488894,0.0
725,-0.4470191037687833,-0.06295622460450433,87.78873342152694,0.0
726,-0.4312365079316146,-0.04784719931252177,87.48166909979263,0.0
727,-0.41481007885831184,-0.03197230195574993,87.17979307021153,0.0
728,-0.3979722060879501,-0.015438215724394612,86.88348596154134,0.0
729,-0.3809565532308673,0.00157419876112401,86.59311816613436,0.0
730,-0.3639643722315007,0.018835940191549397,86.30905047664439,0.0
731,-0.347154855060848,0.03608999505221014,86.0316347423021,0.0
732,-0.3306605448371054,0.05306352839431479,85.76121454324651,0.0
733,-0.3146212451181792,0.06947369173803424,85.4981258816609,0.0
734,-0.29922284207641137,0.08503104680561294,85.24269788872121,0.0
735,-0.28472382705077226,0.09944527828328469,84.99525354662156,0.0
736,-0.27145438739110056,0.11243670222002813,84.756110425196,0.0
737,-0.2597811625358623,0.1237545676776921,84.52558143290963,0.0
738,-0.2500430693499147,0.13320021095112497,84.30397558224358,0.0
739,-0.24247571347879288,0.14065078757032096,84.09159876975116,0.0
740,-0.23714871388465097,0.14607838378004653,83.88875457131503,0.0
741,-0.2339380593857391,0.14956009173692614,83.69574505339064,0.0
742,-0.23254425585907623,0.15127679465906302,83.51287160127931,0.0
743,-0.2325507030843525,0.15150111732092889,83.3404357657382,0.0
744,-0.23350235672697942,0.15057722967582027,83.17874012950443,0.0
745,-0.23497849355180483,0.14889613112626698,83.02808919559008,0.0
746,-0.23663768958943387,0.14686941343628981,82.88879029949494,0.0
747,-0.2382256135499914,0.14490269252309723,82.76115454778733,0.0
748,-0.23955160180866494,0.14336783897294034,82.64549778582418,0.0
749,-0.24045261575671575,0.14257193146899994,82.5421415977204,0.0
750,-0.24076904717518935,0.1427213492422033,82.45141434204051,0.0
751,-0.2403538853148608,0.14388181140025533,82.37365222707412,0.0
752,-0.23912498014822478,0.14593886247217625,82.309200429978,0.0
753,-0.23715213238941152,0.14856702057911012,82.25841426452227,0.0
754,-0.23475221125179527,0.151217996130184,82.22166040267619,0.0
755,-0.23255406587644567,0.15313777358889819,82.19931815581387,0.0
756,-0.23149697648477865,0.15341842665315703,82.19178082191782,1.0
757,-0.23274325423118478,0.15108387266592394,82.19469879512795,0.0
758,-0.23751243084233975,0.14520092291894154,82.20335241281683,0.0
759,-0.24687155417101972,0.13500007298223535,82.21759292797425,0.0
760,-0.2615328762372431,0.11998653079143641,82.23727370420268,0.0
761,-0.28170993334541644,0.1000222823868749,82.26225001697827,0.0
762,-0.3070657969848991,0.07536465934768184,82.29237886197045,0.0
763,-0.3367600759229426,0.04665480270474659,82.32751877005023,0.0
764,-0.36957462773794114,0.01485865908914897,82.36752962865017,0.0
765,-0.4040812340797434,-0.018828521734087902,82.41227250916626,0.0
766,-0.4388118754016629,-0.05309763827582932,82.46160950012077,0.0
767,-0.47240150444285733,-0.0866427727927585,82.51540354583096,0.0
768,-0.5036878031518381,-0.118263409659188,82.5735182903529,0.0
769,-0.5317653517985628,-0.14694032239790691,82.63581792649398,0.0
770,-0.5559991785674007,-0.17188002881126807,82.70216704971024,0.0
771,-0.5760054411131835,-0.19252911074407902,82.77243051672549,0.0
772,-0.5916083106120764,-0.20856473225046565,82.84647330873075,0.0
773,-0.602784561172357,-0.21987046719276154,82.92416039904197,0.0
774,-0.6096104235228164,-0.22650673727168744,83.00535662511284,0.0
775,-0.6122258621447965,-0.22868303567121484,83.08992656481843,0.0
776,-0.6108266476134435,-0.22673546575266731,83.17773441694222,0.0
777,-0.6056842838011879,-0.22110909970415743,83.26864388581727,0.0
778,-0.5971813549839425,-0.212341470604907,83.36251807008743,0.0
779,-0.5858406139065379,-0.20104211136309158,83.4592193555716,0.0
780,-0.5723251288327394,-0.18786386312431055,83.55860931222871,0.0
781,-0.5573959243516514,-0.1734644230133764,83.66054859523629,0.0
782,-0.5418299299399002,-0.15846039029478926,83.76489685020988,0.0
783,-0.526317805955037,-0.14337965596135302,83.87151262260437,0.0
784,-0.5113707019908381,-0.12862017319232827,83.98025327135205,0.0
785,-0.4972629219976774,-0.11442319898553599,84.09097488680486,0.0
786,-0.4840251702011585,-0.10086693925338813,84.20353221306104,0.0
787,-0.4714865019725443,-0.0878827557480012,84.31777857476861,0.0
788,-0.45934941519789835,-0.07529173331369277,84.43356580850903,0.0
789,-0.44727634531716787,-0.06285557315781459,84.55074419887637,0.0
790,-0.43496771993263517,-0.05033333345851872,84.66916241937665,0.0
791,-0.422218899724026,-0.03753488810525571,84.78866747828323,0.0
792,-0.40895178627853457,-0.024363039316881937,84.90910466959224,0.0
793,-0.39522339267421186,-0.01083855962905663,85.0303175292317,0.0
794,-0.3812167730080223,0.0028945541952138804,85.15214779668533,0.0
795,-0.36721963435343835,0.01658324722742941,85.27443538219998,0.0
796,-0.35359408361566136,0.0298959134997238,85.39701833975134,0.0
797,-0.3407390719815089,0.042464114939205405,85.51973284594942,0.0
798,-0.32904669749192506,0.0539291421551925,85.64241318506917,0.0
799,-0.3188552210564371,0.06398668015587039,85.76489174039625,0.0
800,-0.31040467256501203,0.07242335985113249,85.8869989920806,0.0
801,-0.30380323861846,0.07914033122456296,86.00856352169272,0.0
802,-0.299012120489154,0.08416104750256298,86.12941202367814,0.0
803,-0.2958527548738774,0.08762294130856889,86.2493693239057,0.0
804,-0.29403496049898603,0.08975522596872212,86.36825840550325,0.0
805,-0.2932002350638999,0.09084722438565632,86.48590044217218,0.0
806,-0.292972206695477,0.09121299462476871,86.6021148391677,0.0
807,-0.2930054473631668,0.09115829095360223,86.71671928212642,0.0
808,-0.2930236831270587,0.09095498553762828,86.82952979391612,0.0
809,-0.29283953356730386,0.0908261451505753,86.94036079967337,0.0
810,-0.2923516582911127,0.0909424143855113,87.0490252001856,0.0
811,-0.29152155621993525,0.09142777199076677,87.15533445376191,0.0
812,-0.29033892482464313,0.09237070526211377,87.25909866672384,0.0
813,-0.28878827217128716,0.09383587270524343,87.36012669263235,0.0
814,-0.28682862583525187,0.09587162274392928,87.45822624035031,0.0
815,-0.28439328250385454,0.09851020321666734,87.55320399102196,0.0
816,-0.28140976073142515,0.1017597277199691,87.64486572402947,0.0
817,-0.2778339206782013,0.10558936900148863,87.73301645196591,0.0
818,-0.27368847670123897,0.10991121597498564,87.81746056463925,0.0
819,-0.269095697565469,0.11456329463172071,87.89800198209697,0.0
820,-0.2642965480539103,0.11929820795374647,87.9744443166335,0.0
821,-0.25965238631176285,0.12378078181672073,88.04659104371335,0.0
822,-0.2556288967018459,0.1275963448542391,88.11424568171292,0.0
823,-0.2527644031134357,0.13026929566988651,88.17721198035136,0.0
824,-0.2516265075045498,0.13128991202935303,88.23529411764706,1.0
825,-0.2527629134817824,0.13014631975289281,88.29100211084877,0.0
826,-0.25665411222616397,0.1263583511547092,88.3469555792178,0.0
827,-0.2636758548803572,0.11951062365464536,88.40312343008519,0.0
828,-0.27407662793360543,0.109283260495881,88.45947441292272,0.0
829,-0.2879700576436514,0.0954797979877973,88.51597711767153,0.0
830,-0.3053366112822887,0.07805249225822586,88.57259997328804,0.0
831,-0.3260259028264739,0.057125105473411285,88.62931124650972,0.0
832,-0.34975186529849217,0.03301224649887784,88.68607904084381,0.0
833,-0.37607769284363984,0.006232734309729655,88.74287129578242,0.0
834,-0.4043940722066197,-0.02248719104033718,88.79965578624673,0.0
835,-0.433900486165249,-0.05222595837510613,88.85640012226337,0.0
836,-0.4636029929570982,-0.0818988766412583,88.91307174887638,0.0
837,-0.4923412419029933,-0.11031332109626396,88.9696379462978,0.0
838,-0.5188522217323357,-0.1362462487689082,89.02606583029996,0.0
839,-0.5418695936464694,-0.15853894415421807,89.08232235285277,0.0
840,-0.5602479714267773,-0.17619943387062972,89.13837430300893,0.0
841,-0.5730940242119857,-0.18849963257931804,89.19418830804054,0.0
842,-0.5798827216806167,-0.19505296378927453,89.24973083483002,0.0
843,-0.5805377475172071,-0.19585953007207632,89.30496819151824,0.0
844,-0.5754592594506761,-0.1913099205950628,89.35986652941342,0.0
845,-0.5654890116295652,-0.182144857049226,89.41439184516311,0.0
846,-0.5518123570385898,-0.16937497715799155,89.46850998319285,0.0
847,-0.5358087060588005,-0.15417170730706078,89.52218663841396,0.0
848,-0.5188746999194792,-0.13774495131104086,89.57538735920309,0.0
849,-0.502253320661545,-0.12122514124414245,89.62807755065714,0.0
850,-0.4869026402753526,-0.10556562997868957,89.6802224781247,0.0
851,-0.47342811912571814,-0.09147682773781311,89.73178727101809,0.0
852,-0.46208523396235984,-0.07939700961393312,89.78273692690712,0.0
853,-0.452840874321412,-0.06949791587686882,89.83303631589757,0.0
854,-0.4454683855035801,-0.06171772511131453,89.8826501852964,0.0
855,-0.43964589749914035,-0.05581087352764226,89.93154316456537,0.0
856,-0.43503143259060517,-0.051403952863735274,89.97967977056524,0.0
857,-0.4312997525981692,-0.04804914406194344,90.02702441309225,0.0
858,-0.4281415056149456,-0.0452702728629619,90.07354140070798,0.0
859,-0.4252397902388571,-0.04260025675438015,90.11919494686444,0.0
860,-0.42224728663878386,-0.03961126580900758,90.16394917632503,0.0
861,-0.4187852018824499,-0.03593970538165373,90.2077681318826,0.0
862,-0.41447415306260976,-0.0313072352174713,90.25061578137527,0.0
863,-0.4089916662329445,-0.02553719834468126,90.2924560250003,0.0
864,-0.4021379709496599,-0.018564104945728133,90.3332527029263,0.0
865,-0.39388646851319276,-0.010433169325563648,90.37296960320418,0.0
866,-0.38439912579661406,-0.0012878329009423095,90.41157046997573,0.0
867,-0.37399794516517926,0.008654435322513226,90.44901901198016,0.0
868,-0.36309756473390875,0.019134748591022814,90.48527891135736,0.0
869,-0.35211667574347866,0.02988791589709843,90.52031383274658,0.0
870,-0.34139348291835553,0.04067300360539912,90.55408743267975,0.0
871,-0.33113008294324353,0.05129316043007108,90.58656336926693,0.0
872,-0.3213817785263076,0.06160131378573612,90.61770531217277,0.0
873,-0.312092576405476,0.07149229483636396,90.64747695288084,0.0
874,-0.3031627669390708,0.0808858568724215,90.67584201524339,0.0
875,-0.2945243383379546,0.08970767412384476,90.70276426631395,0.0
876,-0.2861985388792121,0.09787586884069113,90.72820752745876,0.0
877,-0.27831693180468503,0.1052986957541631,90.75213568574345,0.0
878,-0.27109949920169074,0.11188523713030898,90.77451270559139,0.0
879,-0.26479647894361336,0.11756643735246344,90.79530264070833,0.0
880,-0.2596112564684242,0.12231989538307783,90.81446964626936,0.0
881,-0.25562768351499,0.12618974449860304,90.83197799136231,0.0
882,-0.25276538181616626,0.12929337489022102,90.84779207168215,0.0
883,-0.25078029445775124,0.1318096649732331,90.86187642247067,0.0
884,-0.24931568097244325,0.13394802583547563,90.87419573169444,0.0
885,-0.24799370461234913,0.1359026631556346,90.88471485345453,0.0
886,-0.24652439721170377,0.13780061260871812,90.89339882162088,0.0
887,-0.2448021240021652,0.13965417278031178,90.90021286368325,0.0
888,-0.24296280386689156,0.1413278172896238,90.90512241481112,0.0
889,-0.2413874037031352,0.14252674065041088,90.90809313211363,0.0
890,-0.24065395635683334,0.14280976148077484,90.9090909090909,1.0
891,-0.2414547992157358,0.14162460796809706,90.9090909090909,0.0
892,-0.24450238318653428,0.1383598388299893,90.9090909090909,0.0
893,-0.2504444011642514,0.1324056110341505,90.9090909090909,0.0
894,-0.25980013363093485,0.12321541232258884,90.9090909090909,0.0
895,-0.27292004213827065,0.11036238125286016,90.9090909090909,0.0
896,-0.2899640668306651,0.09358620378280252,90.9090909090909,0.0
897,-0.31089222162630004,0.07282894972851084,90.9090909090909,0.0
898,-0.3354626052511735,0.04825987844749612,90.9090909090909,0.0
899,-0.3632343938460499,0.020289796584515622,90.9090909090909,0.0
900,-0.393574912432543,-0.010425029027465268,90.9090909090909,0.0
901,-0.42567020777145365,-0.04299077055620483,90.9090909090909,0.0
902,-0.458538710198964,-0.07629866095751088,90.9090909090909,0.0
903,-0.4910489501442075,-0.10906620997501704,90.9090909090909,0.0
904,-0.521945436740154,-0.13990054835592727,90.9090909090909,0.0
905,-0.5498907415913012,-0.1673853202835077,90.9090909090909,0.0
906,-0.573534138754233,-0.1901886082136376,90.9090909090909,0.0
907,-0.5916148698117222,-0.2071841352751437,90.9090909090909,0.0
908,-0.6030993472685572,-0.21757253445550417,90.9090909090909,0.0
909,-0.6073373367346294,-0.2209852803848157,90.9090909090909,0.0
910,-0.6042069501372457,-0.2175524682583635,90.9090909090909,0.0
911,-0.5942090821685188,-0.2079180952940257,90.9090909090909,0.0
912,-0.5784747806125832,-0.19319310291828687,90.9090909090909,0.0
913,-0.5586655440676505,-0.17484632985240706,90.9090909090909,0.0
914,-0.5367723122744701,-0.15454483702151306,90.9090909090909,0.0
915,-0.5148454746107548,-0.13396529235393334,90.9090909090909,0.0
916,-0.4947070806509718,-0.11460474632083512,90.9090909090909,0.0
917,-0.47770256267612815,-0.0976203778957267,90.9090909090909,0.0
918,-0.46454185829603445,-0.08372306381073566,90.9090909090909,0.0
919,-0.4552609030972411,-0.07313978573358854,90.9090909090909,0.0
920,-0.44930778618940237,-0.06564707614277533,90.9090909090909,0.0
921,-0.44572892981393347,-0.06066479348701054,90.9090909090909,0.0
922,-0.4434068897482484,-0.057389389770452895,90.9090909090909,0.0
923,-0.441290554546231,-0.05494061475069356,90.9090909090909,0.0
924,-0.4385653425247882,-0.05249611901984219,90.9090909090909,0.0
925,-0.4347337519861117,-0.04939403665919878,90.9090909090909,0.0
926,-0.4296067801438034,-0.045192505903844625,90.9090909090909,0.0
927,-0.42323252465530836,-0.0396847791085823,90.9090909090909,0.0
928,-0.41580050261536544,-0.03287676875165905,90.9090909090909,0.0
929,-0.40755648050241833,-0.024939013953959394,90.9090909090909,0.0
930,-0.39874755897356023,-0.01614663660567032,90.9090909090909,0.0
931,-0.3895992385904936,-0.006819395527861621,90.9090909090909,0.0
932,-0.38031297806347925,0.002729407553745282,90.9090909090909,0.0
933,-0.3710686257188959,0.012230355361802121,90.9090909090909,0.0
934,-0.3620208100462399,0.021480336111435613,90.9090909090909,0.0
935,-0.3532877405657918,0.03035106857506853,90.9090909090909,0.0
936,-0.3449389262753217,0.038786189777588784,90.9090909090909,0.0
937,-0.33699050669513214,0.04678985568142433,90.9090909090909,0.0
938,-0.3294127114167697,0.054409793094962355,90.9090909090909,0.0
939,-0.32214707473554804,0.06171752101119293,90.9090909090909,0.0
940,-0.3151264266889934,0.06878820239101673,90.9090909090909,0.0
941,-0.3082910845929322,0.07568234980364769,90.9090909090909,0.0
942,-0.30159896099664457,0.08243137508374794,90.9090909090909,0.0
943,-0.2950318796542089,0.08902868809374313,90.9090909090909,0.0
944,-0.2886019187409391,0.09542762743540716,90.9090909090909,0.0
945,-0.28235910629898553,0.10154684556462445,90.9090909090909,0.0
946,-0.27639708077051106,0.10728279588694943,90.9090909090909,0.0
947,-0.2708498403166715,0.112527696557349,90.9090909090909,0.0
948,-0.2658734716827727,0.11718994905557685,90.9090909090909,0.0
949,-0.2616124826682815,0.12121281392613366,90.9090909090909,0.0
950,-0.2581587710457459,0.12458663285411233,90.9090909090909,0.0
951,-0.25551809715369284,0.1273504193289846,90.9090909090909,0.0
952,-0.2536001703165701,0.12958036484410634,90.9090909090909,0.0
953,-0.252242454255999,0.13136550499298033,90.9090909090909,0.0
954,-0.25126624884517734,0.13277387693325354,90.9090909090909,0.0
955,-0.25055101581215766,0.1338151772870485,90.9090909090909,0.0
956,-0.2501046710409466,0.13440743465251473,90.9090909090909,1.0
957,-0.2501074686784416,0.13435507884586084,90.9204050627691,0.0
958,-0.2509154703885212,0.13334401877621838,90.9538283824979,0.0
959,-0.2530229347681232,0.13095639380890123,91.00860461876297,0.0
960,-0.2569955442071787,0.12670429476682687,91.08400456224169,0.0
961,-0.26339303389208385,0.12007874442220456,91.17932258390896,0.0
962,-0.2726984620538831,0.11060814505421301,91.29387336785082,0.0
963,-0.28526402017659147,0.09791944288221341,91.42698881581529,0.0
964,-0.3012744686525394,0.0817952833364263,91.57801510500964,0.0
965,-0.32072340447043546,0.062221098979571864,91.7463098828927,0.0
966,-0.3433967098320483,0.03941704603700603,91.93123958474499,0.0
967,-0.36886099584924226,0.013850802458356293,92.13217686166145,0.0
968,-0.3964601214871202,-0.013771521582270005,92.34849810833008,0.0
969,-0.4253269452931078,-0.042537577151266576,92.57958108155735,0.0
970,-0.4544180549670135,-0.07138331192308853,92.82480260199961,0.0
971,-0.482575589374398,-0.09916665410148304,93.08353633297823,0.0
972,-0.5086136661277136,-0.12475448554231544,93.35515063160776,0.0
973,-0.5314200474651707,-0.14711457494604632,93.63900646876841,0.0
974,-0.5500592138725984,-0.16540241342354575,93.93445541571371,0.0
975,-0.5638622026604677,-0.17903241959886254,94.24083769633508,0.0
976,-0.572490772466329,-0.18772409358825307,94.55748030531171,0.0
977,-0.5759670590167018,-0.19151644965651488,94.88369519356468,0.0
978,-0.5746636753485437,-0.190748170223256,95.2187775236115,0.0
979,-0.5692531518592809,-0.1860058160403611,95.56200399858508,0.0
980,-0.5606205116066482,-0.17804728700107667,95.91263126983904,0.0
981,-0.54974904526835,-0.1677116465497496,96.26989442920892,0.0
982,-0.5375959254841965,-0.15582856939736384,96.63300559313357,0.0
983,-0.5249787842978254,-0.14314048869970186,97.00115258695668,0.0
984,-0.5124944085321447,-0.13024788976944696,97.3734977388199,0.0
985,-0.5004853168438566,-0.11758354448691494,97.74917679361609,0.0
986,-0.48905988201743805,-0.10541573098594972,98.12729795848296,0.0
987,-0.47815885654501283,-0.09387489366688073,98.50694109227157,0.0
988,-0.46764876135223366,-0.08299406045451477,98.88715705230378,0.0
989,-0.45741460900997566,-0.0727516294324871,99.2669672125216,0.0
990,-0.44742449118585087,-0.06310624545937499,99.64536316780924,0.0
991,-0.43774780755073117,-0.054017045983519585,100.02130663981328,0.0
992,-0.4285246885989422,-0.04544753212313864,100.39372959997658,0.0
993,-0.41990086265460613,-0.03735630110999147,100.7615346257087,0.0
994,-0.41195377857988524,-0.029681478375597675,101.12359550561798,0.0
995,-0.40463815589841706,-0.02232698019208672,101.47875810949765,0.0
996,-0.3977715388728332,-0.01515751177042296,101.82584153826615,0.0
997,-0.3910656085680172,-0.008006011615412374,102.16363956828164,0.0
998,-0.3841924373336275,-0.0006931904550091239,102.4909224033591,0.0
999,-0.3768630209685723,0.0069448493762419156,102.80643874639131,0.0
1000,-0.36889300437836225,0.015027165809627693,103.10891820069251,0.0
1001,-0.36023793246219227,0.023603281816221906,103.39707400902972,0.0
1002,-0.3509933063723707,0.0326383942681773,103.66960613577089,0.0
1003,-0.34136673897670666,0.04201109198695933,103.92520469465627,0.0
1004,-0.3316358042069324,0.05152338962335304,104.1625537213929,0.0
1005,-0.3221049423721982,0.06092060928270515,104.3803352865932,0.0
1006,-0.3130704092169294,0.06991735806648831,104.57723394054798,0.0
1007,-0.30479686456986416,0.07822563685204144,104.75194147697339,0.0
1008,-0.2975048032606067,0.0855817268741764,104.90316199824288,0.0
1009,-0.29136535529365337,0.09176951248769494,105.02961725976333,0.0
1010,-0.28649807961220364,0.09663888379540146,105.13005226614351,0.0
1011,-0.28296803189790765,0.10011853018281489,105.20324108671332,0.0
1012,-0.28078017521563997,0.10222270022747745,105.24799285286831,0.0
1013,-0.27987158122426276,0.10305147979551113,105.26315789473685,1.0
1014,-0.28010429434989537,0.10278407164624644,105.24463459256731,0.0
1015,-0.2812635640542403,0.10166470966177242,105.1897500900615,0.0
1016,-0.28306658210219693,0.09998138151197186,105.09958588231287,0.0
1017,-0.28518524460507866,0.09803846970012002,104.97528890165654,0.0
1018,-0.28728289462232964,0.09612557008478663,104.818064261648,0.0
1019,-0.2890605451869474,0.0944857884572249,104.62916797634658,0.0
1020,-0.29030427997642844,0.0932873943241593,104.40989972152133,0.0
1021,-0.29092371863405303,0.09260256314223533,104.16159569961968,0.0
1022,-0.2909723581127599,0.09239599779043711,103.88562166499206,0.0
1023,-0.2906443465779765,0.0925246642854259,103.58336616009278,0.0
1024,-0.2902481640216666,0.09274809003391976,103.25623400732526,0.0
1025,-0.2901641755444336,0.09274713347821753,102.90564009499995,0.0
1026,-0.29079763888791876,0.09214825660573114,102.53300348965074,0.0
1027,-0.2925391426678634,0.09055032045177824,102.13974190082752,0.0
1028,-0.29573994426291134,0.08755169065124467,101.72726651853961,0.0
1029,-0.3007021839412668,0.08277662754315428,101.29697723785885,0.0
1030,-0.3076772139429046,0.07590103801099818,100.85025827986489,0.0
1031,-0.31686262376076385,0.06667821091456817,100.38847421318663,0.0
1032,-0.32839078839401115,0.05496487280546179,99.91296637589925,0.0
1033,-0.3423069430750056,0.04074681276099655,99.42504969350516,0.0
1034,-0.35853985165600777,0.02416175688258398,98.92600988516854,0.0
1035,-0.3768711932061874,0.005515646493794019,98.41710104729569,0.0
1036,-0.3969109441483843,-0.014712437353009582,97.89954360094384,0.0
1037,-0.4180863498133721,-0.03588129071163136,97.37452258738999,0.0
1038,-0.43965195068442137,-0.05721765493723488,96.84318629447301,0.0
1039,-0.46072668003262324,-0.07786575500458325,96.30664519501319,0.0
1040,-0.4803600888361754,-0.09695325103093203,95.76597117768003,0.0
1041,-0.49762322035865836,-0.11366698518812343,95.22219705009121,0.0
1042,-0.5117121750829701,-0.12732908677424798,94.67631629364625,0.0
1043,-0.5220465682471083,-0.13746267705802934,94.12928304959306,0.0
1044,-0.5283432234695812,-0.14383707341748816,93.5820123160605,0.0
1045,-0.5306487513698809,-0.14648507906133607,93.03538033622846,0.0
1046,-0.5293227483759922,-0.14568922814786606,92.49022515841983,0.0
1047,-0.5249742243558648,-0.14193890165216216,91.94734734965238,0.0
1048,-0.5183643950554325,-0.13586499488746567,91.40751084505592,0.0
1049,-0.5102959565498075,-0.12816231296059932,90.87144391651698,0.0
1050,-0.5015103892293407,-0.11951140454857387,90.33984024493091,0.0
1051,-0.4926106798797653,-0.11051088797461692,89.81336008150622,0.0
1052,-0.4840189177663063,-0.10162874209007879,89.29263148465309,0.0
1053,-0.47596930706385443,-0.09317718853019365,88.77825162008598,0.0
1054,-0.4685298729189973,-0.0853115442592356,88.27078811286283,0.0
1055,-0.4616421353411851,-0.0780496167658434,87.77078044116193,0.0
1056,-0.45516756947434844,-0.07130548612410198,87.27874136264991,0.0
1057,-0.44893189086636437,-0.06493019635333086,86.79515836531569,0.0
1058,-0.44276161013745297,-0.05875197239718692,86.3204951356292,0.0
1059,-0.43651050990051404,-0.052609846330965326,85.8551930378258,0.0
1060,-0.43007593791512944,-0.0463766291975625,85.39967259901555,0.0
1061,-0.42340590711410553,-0.039969574213814155,84.95433499566931,0.0
1062,-0.4164980793094705,-0.033349447432738176,84.5195635378412,0.0
1063,-0.40939119724520834,-0.02651072592242169,84.09572514824752,0.0
1064,-0.4021492621832267,-0.01946702638911875,83.68317183404214,0.0
1065,-0.39483973844163367,-0.012236442591725377,83.28224214980229,0.0
1066,-0.3875096172369039,-0.004831129637582879,82.89326265087776,0.0
1067,-0.3801662099838387,0.002745778372790157,82.5165493368562,0.0
1068,-0.37277092778884213,0.010494828184392367,82.15240908546565,0.0
1069,-0.36525218935915144,0.018407779043747075,81.80114107777563,0.0
1070,-0.35753776662472525,0.026451538845522884,81.46303821607236,0.0
1071,-0.3495990941970812,0.034553526822197,81.13838853627952,0.0
1072,-0.3414933845908232,0.04259371574100259,80.82747661727439,0.0
1073,-0.3333869647886322,0.050407349403768356,80.53058498991942,0.0
1074,-0.32554708305337826,0.05779976872198922,80.2479955490923,0.0
1075,-0.31829915186388674,0.06457151946084186,79.97999097246216,0.0
1076,-0.31195872469393926,0.07054885286322496,79.72685615022911,0.0
1077,-0.30675742471565676,0.0756127923260945,79.48887963052734,0.0
1078,-0.3027853311534686,0.07971978069174618,79.26635508569191,0.0
1079,-0.29996775455122215,0.08290869502278175,79.05958280511697,0.0
1080,-0.2980838685258526,0.08529228706161873,78.86887122099219,0.0
1081,-0.29682204988136274,0.08703497412994693,78.69453847380576,0.0
1082,-0.29585595492916167,0.08832226133429054,78.53691402515425,0.0
1083,-0.2949195501315535,0.08932895499768198,78.39634032611148,0.0
1084,-0.2938603145178918,0.09019320198050787,78.27317455019252,0.0
1085,-0.29265729455012324,0.09100133453477126,78.16779040081597,0.0
1086,-0.2914020351142937,0.09178516504665335,78.0805800041338,0.0
1087,-0.2902518027286641,0.09252977807278215,78.01195589917575,0.0
1088,-0.2893724149239909,0.09318707911290913,77.96235313846657,0.0
1089,-0.28889023907041467,0.09368917673539784,77.93223151363583,0.0
1090,-0.2888691219509289,0.09395638481538608,77.92207792207792,1.0
1091,-0.2893194281493096,0.09389694335689928,77.93903153826713,0.0
1092,-0.29023559083113865,0.0933987085145079,77.98914694474024,0.0
1093,-0.2916488360440111,0.0923160751015273,78.07136508315897,0.0
1094,-0.29367604049749646,0.09045737935202046,78.1846984871597,0.0
1095,-0.29654609231431156,0.08757845708390827,78.3282228415298,0.0
1096,-0.30059208944523447,0.08338687411262913,78.50106914750373,0.0
1097,-0.3062093283968855,0.07755904164405464,78.70241640416214,0.0
1098,-0.31379098505357095,0.06976969903337735,78.93148472682729,0.0
1099,-0.3236604659843416,0.05973081750220949,79.18752883274236,0.0
1100,-0.33601831438017427,0.0472353400913873,79.46983183246459,0.0
1101,-0.3509130056285861,0.032200451491397275,79.77769927251792,0.0
1102,-0.3682334580211481,0.014705074741931608,80.1104533811293,0.0
1103,-0.38771250940963986,-0.004983306723132165,80.46742747447897,0.0
1104,-0.408929298171669,-0.026396840608803734,80.84796048596954,0.0
1105,-0.43130508366186115,-0.048874122333473116,81.25139158568864,0.0
1106,-0.45409805688397864,-0.07158811499517902,81.67705486161384,0.0
1107,-0.4764119923890397,-0.09359579674194324,82.12427403828751,0.0
1108,-0.49723544183327356,-0.11390743691541139,82.59235721276333,0.0
1109,-0.5155204169006967,-0.13157003333239498,83.08059159167684,0.0
1110,-0.5302950206724716,-0.14575606598003418,83.5882382173966,0.0
1111,-0.5407897530729747,-0.15584624350898427,84.1145266754402,0.0
1112,-0.5465488807775254,-0.1614942165908055,84.65864977975352,0.0
1113,-0.547499747233884,-0.16266283046748675,85.21975823711212,0.0
1114,-0.5439631441313676,-0.15962533259300973,85.79695529686296,0.0
1115,-0.5366025652833017,-0.1529303711934096,86.38929139752541,0.0
1116,-0.5263242270586158,-0.1433355016630451,86.99575882745312,0.0
1117,-0.5141493312934617,-0.13171900402035117,87.61528642284583,0.0
1118,-0.5010834256383485,-0.11898304636246612,88.246734332909,0.0
1119,-0.48800510048320744,-0.10596200521561457,88.8888888888889,0.0
1120,-0.47558926187997086,-0.09334804966171256,89.54045762104121,0.0
1121,-0.4642711733614355,-0.0816424218667144,90.20006447528766,0.0
1122,-0.4542488055216614,-0.07113607363476968,90.86624528931038,0.0
1123,-0.4455147849044772,-0.06191844263392504,91.53744359604147,0.0
1124,-0.4379064960556108,-0.053909062191957006,92.21200683079908,0.0
1125,-0.43116344981142624,-0.04690401105313487,92.88818302654983,0.0
1126,-0.4249834367659899,-0.04062819290375208,93.56411808974059,0.0
1127,-0.41907145405471596,-0.03478502527612336,94.23785375661178,0.0
1128,-0.413177037144741,-0.029096990037205853,94.9073263365982,0.0
1129,-0.407116871226521,-0.02333316925711238,95.57036635503032,0.0
1130,-0.4007813265797787,-0.01732281349632552,96.22469921150903,0.0
1131,-0.3941261660880555,-0.010956636849486258,96.86794697265323,0.0
1132,-0.3871535238547439,-0.004179466834862526,97.4976314179911,0.0
1133,-0.3798884685685403,0.0030211906589726126,98.11117845515156,0.0
1134,-0.37235841934305647,0.010626273832009713,98.7059240147721,0.0
1135,-0.36458200463942175,0.01859271202293948,99.27912152625012,0.0
1136,-0.3565713915449701,0.026855918620933186,99.82795106224188,0.0
1137,-0.3483477980060483,0.035327722780606495,100.3495302223292,0.0
1138,-0.33996486245473656,0.04389189332226166,100.84092680429208,0.0
1139,-0.3315307135744091,0.052400345292050565,101.29917328482993,0.0
1140,-0.3232189188712552,0.06067311963828394,101.72128310039497,0.0
1141,-0.31526174189377215,0.06850433509059826,102.10426868325168,0.0
1142,-0.30792521845776394,0.07567481748239714,102.44516116837357,0.0
1143,-0.301472038628844,0.08197045262524146,102.74103164397657,0.0
1144,-0.2961224493118806,0.08720392725052589,102.9890137732516,0.0
1145,-0.2920236007875377,0.09123672856526877,103.18632756832302,0.0
1146,-0.28923381438383516,0.09399816260779738,103.33030405097668,0.0
1147,-0.28772196838563774,0.09549861210657022,103.41841048983,0.0
1148,-0.28737679991667586,0.09583504894975484,103.44827586206897,1.0
1149,-0.28801932395555296,0.09518770405446603,103.44160384805676,0.0
1150,-0.28941441496784176,0.09380763284289363,103.42178054034798,0.0
1151,-0.2912825638326782,0.0919956794740095,103.38910223602296,0.0
1152,-0.2933161896170284,0.09007410430775466,103.3438742380057,0.0
1153,-0.2952042865089936,0.0883529629654119,103.28641012060469,0.0
1154,-0.2966653117090683,0.08709419830554607,103.21703099842777,0.0
1155,-0.29748401174198874,0.08647720354888205,103.13606480125361,0.0
1156,-0.29754602600940816,0.08657012425858893,103.04384555730337,0.0
1157,-0.29686504175227174,0.08731115564487993,102.94071268720595,0.0
1158,-0.29559928747447317,0.08850337942126743,102.8270103107976,0.0
1159,-0.29405514764386276,0.08982520848307099,102.70308656873478,0.0
1160,-0.2926750592542285,0.09085636953289355,102.56929296073828,0.0
1161,-0.2920060342927977,0.09111684394913933,102.42598370212059,0.0
1162,-0.29264649269520904,0.09011377607644157,102.27351510008297,0.0
1163,-0.29517400337332844,0.08738963252628895,102.11224495110523,0.0
1164,-0.30006415968822403,0.08256442688631183,101.94253196058675,0.0
1165,-0.3076180597989216,0.07536597787106472,101.76473518573901,0.0
1166,-0.31791868901562464,0.06564491488092336,101.57921350257253,0.0
1167,-0.33083184052970427,0.05337494145124043,101.38632509767126,0.0
1168,-0.3460547081619121,0.03864270584618692,101.18642698530108,0.0
1169,-0.3631982776881844,0.02163427425790298,100.97987455025981,0.0
1170,-0.381874644285497,0.002625590013106624,100.76702111674409,0.0
1171,-0.4017546774317857,-0.01801803446377869,100.54821754338248,0.0
1172,-0.4225695378749161,-0.03983297743991905,100.32381184446623,0.0
1173,-0.444050262858174,-0.06224409023372847,100.0941488373005,0.0
1174,-0.4658258247066074,-0.0845569979231325,99.85956981549488,0.0
1175,-0.4873213100771696,-0.10596749343636713,99.62041224792038,0.0
1176,-0.5077049236788549,-0.12559737274787547,99.37700950297224,0.0
1177,-0.5259212427787874,-0.14255990788302517,99.1296905977029,0.0
1178,-0.5408211405909624,-0.15604953772191466,98.87877997131712,0.0
1179,-0.5513646276562159,-0.16544175878535544,98.624597282462,0.0
1180,-0.5568434817068417,-0.17038338354845478,98.36745722968921,0.0
1181,-0.5570573858795201,-0.17085243770258599,98.10766939442027,0.0
1182,-0.5523867333353033,-0.16717173967193513,97.84553810570696,0.0
1183,-0.5437351267606104,-0.159969680872874,97.58136232604484,0.0
1184,-0.5323543387510697,-0.15009345911066058,97.3154355574731,0.0
1185,-0.5195995580949182,-0.13849081744665587,97.04804576717281,0.0
1186,-0.5066810491169215,-0.1260832499329071,96.77947533176174,0.0
1187,-0.4944749907818794,-0.11365483459559167,96.5100009994744,0.0
1188,-0.483434341470162,-0.1017761831920249,96.23989386941304,0.0
1189,-0.4736088501050404,-0.09077394187287419,95.96941938705459,0.0
1190,-0.46475257458099184,-0.08074544966316949,95.69883735520496,0.0
1191,-0.456476675093676,-0.07160847785272799,95.42840195959946,0.0
1192,-0.4483996799556958,-0.06316979776959894,95.1583618083616,0.0
1193,-0.44025624607724034,-0.055194853062080634,94.88895998454772,0.0
1194,-0.43194359868025517,-0.04746385222165743,94.62043411102275,0.0
1195,-0.42350552428924765,-0.039805765677181734,94.35301642693467,0.0
1196,-0.41507110706888223,-0.03210895548586995,94.08693387507678,0.0
1197,-0.4067756425059304,-0.02431340646916813,93.82240819945348,0.0
1198,-0.3986927641227122,-0.016393243415688142,93.55965605239126,0.0
1199,-0.39079997587561777,-0.008338799493905771,93.29888911056496,0.0
1200,-0.3829865974847038,-0.0001453044573422324,93.0403141993394,0.0
1201,-0.37509778771005076,0.008188614200138097,92.78413342485598,0.0
1202,-0.36699619141300927,0.01665355826769345,92.53054431332593,0.0
1203,-0.35861825737732017,0.025217170980069162,92.27973995702351,0.0
1204,-0.3500066069728904,0.033812517282432904,92.03190916650455,0.0
1205,-0.34131040597491086,0.042331844407316646,91.78723662860871,0.0
1206,-0.33275754814820235,0.05062855232772952,91.54590306983673,0.0
1207,-0.32461083818822906,0.05852763676955976,91.30808542472633,0.0
1208,-0.31712281986395696,0.06584257014928233,91.07395700888436,0.0
1209,-0.31050090000801017,0.07239516997329612,90.84368769636481,0.0
1210,-0.3048883927362072,0.07803470067160344,90.61744410111557,0.0
1211,-0.3003608706294282,0.08265312345345001,90.39538976224894,0.0
1212,-0.29693286224926246,0.08619466363234594,90.17768533292445,0.0
1213,-0.2945684928094602,0.08865924729382604,89.96448877266273,0.0
1214,-0.29319105500089615,0.09010049066681959,89.75595554294347,0.0
1215,-0.2926896419919907,0.09061959494812472,89.55223880597015,1.0
1216,-0.2929241284602707,0.0903566727150608,89.34790103307958,0.0
1217,-0.29373130227504796,0.08948080511492551,89.13762192757507,0.0
1218,-0.29493416066721134,0.08817965837738967,88.92172697863532,0.0
1219,-0.2963540065898139,0.08664893643271043,88.70053882737113,0.0
1220,-0.29782273942114607,0.08508145718254688,88.47437692347373,0.0
1221,-0.29919232702197185,0.08365533682786691,88.24355720713162,0.0
1222,-0.3003403743864742,0.08252075424389134,88.00839181593845,0.0
1223,-0.30117380227990825,0.08178511505666018,87.76918881642689,0.0
1224,-0.3016348247169854,0.08149714007913933,87.52625195978555,0.0
1225,-0.3017130795624366,0.0816313512099748,87.27988046124572,0.0
1226,-0.30146478872635873,0.08207538311300706,87.03036880256172,0.0
1227,-0.3010353903250156,0.08262319057092989,86.7780065569547,0.0
1228,-0.30067796443720823,0.0829772359618697,86.52307823584245,0.0
1229,-0.3007577125944812,0.08276193922691624,86.265863156638,0.0
1230,-0.30173408660685785,0.08154908652487336,86.0066353308665,0.0
1231,-0.30411729912923635,0.0788938127639685,85.74566337182426,0.0
1232,-0.3084037328669326,0.07437768700666192,85.48321042098301,0.0
1233,-0.3150024512050742,0.06765388751502519,85.21953409232837,0.0
1234,-0.3241693347118898,0.05848888103938149,84.95488643381228,0.0
1235,-0.3359642183522552,0.04679556490766294,84.68951390509606,0.0
1236,-0.3502399338789027,0.032654291214230545,84.42365737076025,0.0
1237,-0.36666263285278616,0.016320087472287376,84.15755210816366,0.0
1238,-0.38475355131763633,-0.0017838715081902115,83.89142782914169,0.0
1239,-0.4039368488791745,-0.021085366673601044,83.62550871474765,0.0
1240,-0.42357868836227563,-0.04089329416089295,83.36001346225487,0.0
1241,-0.44300967425967475,-0.060437561622204525,83.0951553436572,0.0
1242,-0.4615337032280083,-0.07891762358637736,82.83114227492455,0.0
1243,-0.4784363198646129,-0.09555822429520625,82.56817689529473,0.0
1244,-0.4930095033949532,-0.10966968124538017,82.30645665590627,0.0
1245,-0.5046045633295083,-0.1207080135476461,82.0461739171038,0.0
1246,-0.5127119790834646,-0.12832800565320637,81.78751605377495,0.0
1247,-0.5170519731056827,-0.1324208409629912,81.53066556810683,0.0
1248,-0.5176490615193652,-0.13312817502100105,81.275800209179,0.0
1249,-0.5148626878106034,-0.1308269812892075,81.02309309884056,0.0
1250,-0.5093555049486679,-0.12608405115275795,80.77271286334945,0.0
1251,-0.5019981746413252,-0.11958478506652163,80.52482377028281,0.0
1252,-0.4937289587979328,-0.1120464672396305,80.2795858702585,0.0
1253,-0.48540091283590864,-0.10413004932347293,80.0371551430391,0.0
1254,-0.47765348427781323,-0.09636541531243314,79.7976836476204,0.0
1255,-0.47083714961878986,-0.08910272906157604,79.56131967593709,0.0
1256,-0.4650030557103017,-0.08249722512898333,79.32820790984962,0.0
1257,-0.4599517077609036,-0.07652789690593471,79.09848958110537,0.0
1258,-0.45532229117043893,-0.07104358696702237,78.8723026339976,0.0
1259,-0.4506997675146103,-0.06582460791852573,78.6497818904753,0.0
1260,-0.4457183051032752,-0.06064543223243722,78.43105921748474,0.0
1261,-0.4401430015376623,-0.055324738964422346,78.21626369635338,0.0
1262,-0.43391524768567824,-0.049752984810722,78.00552179405334,0.0
1263,-0.42715161408582586,-0.04389376097473263,77.79895753620987,0.0
1264,-0.42009415135164613,-0.0377620690218426,77.5966926817466,0.0
1265,-0.4130219955086149,-0.03138863364452478,77.39884689908614,0.0
1266,-0.4061472774497973,-0.024782944703923504,77.2055379438502,0.0
1267,-0.3995271858037688,-0.01790788887323104,77.01688183802919,0.0
1268,-0.39302343450552196,-0.010675432004219013,76.83299305061678,0.0
1269,-0.3863282656275729,-0.0029666447285803046,76.65398467972872,0.0
1270,-0.3790552151890483,0.005327958132602499,76.4799686362518,0.0
1271,-0.37087022299515704,0.014258239083430622,76.31105582909095,0.0
1272,-0.3616229241816348,0.023768592606661032,76.14735635210936,0.0
1273,-0.35143565423579914,0.0336704102795857,75.98897967287877,0.0
1274,-0.3407202133134538,0.043642700338788934,75.8360348233833,0.0
1275,-0.3301151751936645,0.053263726462161945,75.68863059284314,0.0
1276,-0.3203609137994801,0.06206862137381762,75.54687572285125,0.0
1277,-0.3121469420845365,0.06962126110973424,75.41087910503961,0.0
1278,-0.3059716897231005,0.0755850408533046,75.28074998151885,0.0
1279,-0.30204860842734504,0.07977747318017978,75.15659814836056,0.0
1280,-0.30027823019251004,0.08219752996924666,75.03853416241932,0.0
1281,-0.30028832113819703,0.08302117194357464,74.9266695518193,0.0
1282,-0.30152778001735947,0.08256774725455093,74.82111703045958,0.0
1283,-0.3033877982662704,0.08124600599744974,74.72199071692258,0.0
1284,-0.3053187130945859,0.07949192461130863,74.6294063582022,0.0
1285,-0.3069144439116208,0.07771072352446559,74.54348155870113,0.0
1286,-0.3079477308986899,0.07623268197212454,74.46433601498228,0.0
1287,-0.30835529330872125,0.07528767390438046,74.39209175679714,0.0
1288,-0.30818735238791545,0.07499825110737654,74.32687339495247,0.0
1289,-0.3075455397153122,0.07538701656551781,74.26880837661946,0.0
1290,-0.30653380927468765,0.07639192645744713,74.21802724873494,0.0
1291,-0.305238661397982,0.07788328556887586,74.17466393019158,0.0
1292,-0.3037412975970066,0.07967810212383727,74.13885599356634,0.0
1293,-0.30215096849471984,0.08155021021451701,74.110744957192,0.0
1294,-0.3006411616185997,0.08323710441143047,74.09047658843686,0.0
1295,-0.299470908855442,0.08444596371419319,74.07820121912162,0.0
1296,-0.2989809146314081,0.08486155385616928,74.07407407407408,1.0
1297,-0.2995642756661396,0.08415778786059094,74.09569090116649,0.0
1298,-0.3016200566398198,0.08201326038154258,74.15957325814075,0.0
1299,-0.3055024782813466,0.07812972283992038,74.26436975550386,0.0
1300,-0.31147852081944355,0.07225174484744,74.40885096536265,0.0
1301,-0.3197030638510051,0.06418588722459087,74.59189505757621,0.0
1302,-0.33021451699194604,0.05381839427311796,74.81247465298013,0.0
1303,-0.34294692499841634,0.04113123166584204,75.06964468989786,0.0
1304,-0.35774888542913297,0.026216721421513853,75.36253112640983,0.0
1305,-0.37439747231480314,0.009290691300300042,75.69032032276652,0.0
1306,-0.3925980473265513,-0.009297067415700945,76.05224896671905,0.0
1307,-0.411967906974064,-0.029057796214766722,76.44759442006621,0.0
1308,-0.43201065524259863,-0.049368324554695406,76.87566537793465,0.0
1309,-0.45209532565727056,-0.06948969479797977,77.33579274369234,0.0
1310,-0.4714564640121396,-0.08860330547002004,77.82732063234697,0.0
1311,-0.4892275378103719,-0.10586537331449997,78.34959742415704,0.0
1312,-0.5045114412218565,-0.12047667817554905,78.90196679829774,0.0
1313,-0.5164811978040014,-0.1317603802194648,79.48375868406923,0.0
1314,-0.5244940761504561,-0.13923727666590321,80.09428007457757,0.0
1315,-0.5281957254673123,-0.14268622343979817,80.73280565531735,0.0
1316,-0.5275897794363268,-0.14217825078869223,81.39856820788671,0.0
1317,-0.5230540276039303,-0.1380762409973979,82.09074875741541,0.0
1318,-0.5152960240054139,-0.13099737129297212,82.80846644142132,0.0
1319,-0.5052554419901212,-0.12174180774361426,83.55076808797341,0.0
1320,-0.4939725893863181,-0.11119707168953176,84.3166175024582,0.0
1321,-0.48244838240073934,-0.1002318699724823,85.10488447515277,0.0
1322,-0.47151995298213295,-0.08959512585495155,85.91433353641274,0.0
1323,-0.46176998759301163,-0.07983514210006123,86.74361250278457,0.0
1324,-0.453479864410152,-0.07125049888083376,87.5912408759124,0.0
1325,-0.4466289061223302,-0.06387911456627036,88.45559817685242,0.0
1326,-0.4409356121388324,-0.057525823510801606,89.33491232139733,0.0
1327,-0.43593182909022404,-0.05182286912470815,90.22724816723333,0.0
1328,-0.43105751440231527,-0.046312791110253014,91.13049639109063,0.0
1329,-0.42576216312057186,-0.040540003613177486,92.04236288326308,0.0
1330,-0.41959920659733574,-0.03413633457295874,92.96035887757593,0.0
1331,-0.4123015155470349,-0.026887040239905534,93.8817920664996,0.0
1332,-0.4038287937999032,-0.018767139583969604,94.80375898286346,0.0
1333,-0.39438032119867805,-0.009942871863114159,95.72313896051016,0.0
1334,-0.38436921459494744,-0.0007389635265264045,96.63659001498208,0.0
1335,-0.3743582334713563,0.008421698667360537,97.54054701042688,0.0
1336,-0.3649633349926579,0.017094454290121477,98.43122249856513,0.0
1337,-0.3567393989450262,0.024890781079632572,99.30461062775416,0.0
1338,-0.350070425125303,0.03154286210030608,100.1564945226917,0.0
1339,-0.34509038135430414,0.03694254840141566,100.98245752577567,0.0
1340,-0.3416574761994899,0.04114768066690652,101.77789866719418,0.0
1341,-0.3393929174389329,0.04435559153335603,102.5380526901817,0.0
1342,-0.33777762076867324,0.04685062888963512,103.25801489853099,0.0
1343,-0.3362824982089263,0.04893807957631089,103.93277101384203,0.0
1344,-0.33449670144231713,0.05087956014563162,104.55723212924858,0.0
1345,-0.3322183915830279,0.05284407571282379,105.12627472452262,0.0
1346,-0.3294846317340202,0.0548847332067615,105.63478556568406,0.0
1347,-0.3265363129861811,0.05694461166602021,106.07771115303093,0.0
1348,-0.3237332264437755,0.058888204031995475,106.45011120881394,0.0
1349,-0.3214467104472334,0.060548937107863215,106.74721551510869,0.0
1350,-0.31995962185509447,0.061779969046229975,106.96448323076396,0.0
1351,-0.31939710783361586,0.062495453578789224,107.09766364192795,0.0
1352,-0.319701011711066,0.06269258250849442,107.14285714285714,1.0
1353,-0.32064990125389786,0.06245004331420121,107.13032436141773,0.0
1354,-0.3219177994975617,0.06190463980782376,107.09321867032122,0.0
1355,-0.32315784723166147,0.0612131832633281,107.03230290190365,0.0
1356,-0.3240919551996079,0.06051007971526094,106.94836898364345,0.0
1357,-0.324584743062152,0.05987156921011942,106.84223456839972,0.0
1358,-0.3246817837106858,0.059295278660598666,106.71473970173761,0.0
1359,-0.3246001755447555,0.058699312825397754,106.56674354653572,0.0
1360,-0.3246729851254869,0.0579397578914354,106.39912118337419,0.0
1361,-0.3252639429143199,0.05684066933184643,106.21276050342081,0.0
1362,-0.32667897026662374,0.05522765306850927,106.00855920869517,0.0
1363,-0.3291020658474194,0.05295578703689865,105.78742193273374,0.0
1364,-0.3325740355254971,0.04992488093871547,105.55025749281917,0.0
1365,-0.33701705385537406,0.0460792075177123,105.297976283108,0.0
1366,-0.34229229235827335,0.04139362652710954,105.031487816209,0.0
1367,-0.348267894232379,0.035852105507866106,104.75169841905007,0.0
1368,-0.35487371954889935,0.02942693231108984,104.45950908724173,0.0
1369,-0.36212684095404174,0.02206687513316777,104.15581350061194,0.0
1370,-0.3701236363348281,0.01370027596588019,103.84149620115973,0.0
1371,-0.3790050124558122,0.004255196323359932,103.51743093336577,0.0
1372,-0.38890657924126615,-0.006305786628517558,103.18447914560424,0.0
1373,-0.3999046764445991,-0.017942704437797746,102.843488650334,0.0
1374,-0.4119649851688178,-0.030496756685619186,102.49529243980076,0.0
1375,-0.42489765364816684,-0.04366090830468686,102.14070765316009,0.0
1376,-0.4383243428825387,-0.05697203206293691,101.78053469022828,0.0
1377,-0.4516672791686501,-0.06983083572930103,101.41555646648077,0.0
1378,-0.4641737262440304,-0.08155077750577873,101.04653780344154,0.0
1379,-0.47498620311913775,-0.09143119120959389,100.67422494823438,0.0
1380,-0.4832573214988628,-0.09884410001663525,100.29934521579192,0.0
1381,-0.4882914481706619,-0.10332005136488415,99.9226067470343,0.0
1382,-0.48968076509310265,-0.10461695838961488,99.54469837622766,0.0
1383,-0.4873983185226545,-0.10275805482826013,99.16628960070544,0.0
1384,-0.48181896211857783,-0.09803050463371803,98.78803064617695,0.0
1385,-0.4736582734128292,-0.09094389808770326,98.4105526209485,0.0
1386,-0.46384247466615236,-0.08215606431695986,98.03446775253454,0.0
1387,-0.4533410772579128,-0.07238034427176335,97.6603697003373,0.0
1388,-0.44300278985885694,-0.06229201882431681,97.28883393830864,0.0
1389,-0.43343246992643664,-0.05245108819840637,96.92041820178149,0.0
1390,-0.4249343631867909,-0.04325421630638135,96.55566299295393,0.0
1391,-0.4175286774105619,-0.034921554893907206,96.19509213983007,0.0
1392,-0.41102970355858803,-0.027516187929387523,95.83921340375915,0.0
1393,-0.40515893704177264,-0.02098708644233661,95.48851913106374,0.0
1394,-0.39965948618322045,-0.015222355517079077,95.1434869446088,0.0
1395,-0.39438029455754925,-0.010099005274283325,94.8045804715285,0.0
1396,-0.3893099075803038,-0.005518323133094511,94.47225010369799,0.0
1397,-0.38455645492347007,-0.0014211245737511015,94.14693378790781,0.0
1398,-0.3802875321293797,0.002216859227985108,93.82905784306989,0.0
1399,-0.3766546545851954,0.005404065957247257,93.51903780215201,0.0
1400,-0.37372835974382473,0.008158213835870252,93.21727927690536,0.0
1401,-0.3714626068070214,0.010528549974969171,92.92417884381109,0.0
1402,-0.36969513178146246,0.012608274608363904,92.64012495003249,0.0
1403,-0.36817894521957323,0.014533651812877028,92.36549883851521,0.0
1404,-0.36663267603640365,0.016470211622607808,92.10067549173124,0.0
1405,-0.3647950118131135,0.01858970842479762,91.84602459391384,0.0
1406,-0.3624702758676382,0.0210434041463662,91.60191151198002,0.0
1407,-0.3595565868943237,0.023937540088361076,91.36869829568914,0.0
1408,-0.35605339363871596,0.027315750904047316,91.14674469793657,0.0
1409,-0.3520502047797639,0.031151181042796773,90.93640921643933,0.0
1410,-0.34770225824506246,0.035348835543560886,90.73805015843199,0.0
1411,-0.3432010967289129,0.039756810113087585,90.55202673036176,0.0
1412,-0.33874793985737717,0.044183862131801976,90.3787001549547,0.0
1413,-0.3345351366698901,0.048420391749389335,90.21843481842099,0.0
1414,-0.3307366198305175,0.05226014282339237,90.07159945098273,0.0
1415,-0.32750403058165556,0.05552050660623598,89.93856834434418,0.0
1416,-0.32496312030814256,0.058059907694166725,89.81972261018846,0.0
1417,-0.3232061660588879,0.05979117081941698,89.71545148427934,0.0
1418,-0.322279712363962,0.06068997350800207,89.62615368127943,0.0
1419,-0.3221709527838567,0.060797596411955826,89.55223880597015,1.0
1420,-0.3227984511562691,0.060217372391625834,89.4864367626763,0.0
1421,-0.3240126297530192,0.05910465701709528,89.42120639588472,0.0
1422,-0.3256087491800206,0.05765083497554447,89.35655972178903,0.0
1423,-0.3273512360318861,0.056062737930651994,89.29250869931865,0.0
1424,-0.32900494130790936,0.05453967174656727,89.22906523195078,0.0
1425,-0.3303676007474871,0.05325079269931954,89.16624116954797,0.0
1426,-0.3312984767175886,0.05231564058246179,89.1040483102209,0.0
1427,-0.33173965246409887,0.051790152832367285,89.04249840221667,0.0
1428,-0.33172742948997647,0.05165951410427001,88.98160314583204,0.0
1429,-0.33139172662799876,0.051837944913180334,88.92137419535156,0.0
1430,-0.33094248864836845,0.05217430566930275,88.86182316101052,0.0
1431,-0.3306448215792304,0.052461526421422905,88.80296161098255,0.0
1432,-0.3307882221460187,0.052447649947563055,88.74480107339188,0.0
1433,-0.3316578048628676,0.051846826822305694,88.68735303835017,0.0
1434,-0.33351497883356024,0.05034982845805568,88.63062896001773,0.0
1435,-0.33659134535567414,0.04763520164898318,88.57464025868939,0.0
1436,-0.3410941406927793,0.04338353907134462,88.51939832290482,0.0
1437,-0.347216422442522,0.03729789530941368,88.4649145115834,0.0
1438,-0.3551420777291439,0.029132682708578696,88.41120015618367,0.0
1439,-0.3650356442440485,0.01873129766725486,88.35826656288769,0.0
1440,-0.3770103599970843,0.006069550320756005,88.30612501480985,0.0
1441,-0.3910745573332837,-0.008701572893175004,88.2547867742309,0.0
1442,-0.4070651535845119,-0.025223166178868973,88.20426308485699,0.0
1443,-0.4245851087722344,-0.042916180243425,88.15456517410401,0.0
1444,-0.44296640444595464,-0.06099882560265574,88.10570425540733,0.0
1445,-0.4612790311635688,-0.07853854418744544,88.05769153055736,0.0
1446,-0.4783988619295334,-0.09453704939843281,88.0105381920611,0.0
1447,-0.4931342415465743,-0.10803945749661802,87.96425542552977,0.0
1448,-0.5043953898664358,-0.11825176251450442,87.91885441209327,0.0
1449,-0.5113760813593654,-0.12464668330098483,87.87434633084143,0.0
1450,-0.5137077056336896,-0.1270376733632478,87.83074236129242,0.0
1451,-0.5115456286969875,-0.125605212201608,87.78805368588901,0.0
1452,-0.5055591526754796,-0.12086784231299251,87.74629149252289,0.0
1453,-0.4968183930049087,-0.11360112343544877,87.70546697708738,0.0
1454,-0.4865986086332874,-0.10471832892337408,87.66559134605932,0.0
1455,-0.47614604584078213,-0.09513473475906573,87.62667581911035,0.0
1456,-0.46646059221175196,-0.08564071592899418,87.58873163174836,0.0
1457,-0.45814542294886373,-0.07680665656453778,87.55177003798941,0.0
1458,-0.45135462009834443,-0.06893539196983789,87.51580231306099,0.0
1459,-0.4458433427427684,-0.062067314006733876,87.48083975613706,0.0
1460,-0.441099581587712,-0.056031978001565036,87.44689369310548,0.0
1461,-0.4365183406192309,-0.05053075370659235,87.41397547936884,0.0
1462,-0.4315720790423346,-0.04522987170630066,87.38209650267903,0.0
1463,-0.4259363800779185,-0.03984311639595789,87.35126818600648,0.0
1464,-0.41954510771752984,-0.03418807312228357,87.32150199044484,0.0
1465,-0.4125700861800793,-0.028207756319507275,87.29280941815198,0.0
1466,-0.4053404347428177,-0.02195843186205239,87.26520201532809,0.0
1467,-0.39823059714469516,-0.015572216904384227,87.23869137523185,0.0
1468,-0.3915507955496452,-0.009207816747037828,87.21328914123526,0.0
1469,-0.38546909487661096,-0.0030036849817523387,87.18900700991892,0.0
1470,-0.37998273118005665,0.0029548242109388757,87.16585673420767,0.0
1471,-0.3749413092676305,0.008647989331169028,87.14385012654856,0.0
1472,-0.37010988794812844,0.014113748827313147,87.12299906213177,0.0
1473,-0.36524972716503945,0.0194243572394034,87.10331548215568,0.0
1474,-0.3601914264368245,0.02465605019934778,87.08481139713726,0.0
1475,-0.354880047130162,0.029860696179811193,87.06749889026908,0.0
1476,-0.34938258124051835,0.03504658233711837,87.05139012082424,0.0
1477,-0.3438607637205345,0.040172070529558394,87.03649732761009,0.0
1478,-0.33852232700641943,0.04515202564606622,87.02283283247277,0.0
1479,-0.3335683281211896,0.04987375899802251,87.01040904385339,0.0
1480,-0.3291523630749409,0.05421747548050943,86.99923846039759,0.0
1481,-0.3253607905803334,0.058076074376001895,86.98933367461991,0.0
1482,-0.3222145596781612,0.06137034425001042,86.98070737662438,0.0
1483,-0.3196862675156843,0.06405750285002662,86.97337235788335,0.0
1484,-0.31772292615076597,0.06613297250583006,86.96734151507552,0.0
1485,-0.31626577548716406,0.06762670310525949,86.96262785398555,0.0
1486,-0.3152618027184956,0.06859599378616112,86.95924449346673,0.0
1487,-0.3146655422249924,0.06911666384602698,86.95720466946842,0.0
1488,-0.31443318281647703,0.06927385634594001,86.95652173913044,1.0
1489,-0.3145136977435917,0.06915309128392517,86.96726135423793,0.0
1490,-0.314843181710473,0.06883173340509753,86.99900474653371,0.0
1491,-0.3153478658433244,0.06837095631883053,87.05105998893313,0.0
1492,-0.3159577857360463,0.067808523601649,87.12276084371793,0.0
1493,-0.3166277802805577,0.06715306389270062,87.21346361392108,0.0
1494,-0.3173580317012629,0.06638072959443789,87.32254416904041,0.0
1495,-0.31820545732241723,0.06543500473648545,87.44939512596478,0.0
1496,-0.31928077305924757,0.06422993420992854,87.59342316818514,0.0
1497,-0.32073216490629586,0.06265633095376097,87.75404648833626,0.0
1498,-0.3227219308706755,0.060589844568157455,87.93069234090599,0.0
1499,-0.32540450063885507,0.05789941318600386,88.1227946935843,0.0
1500,-0.32891229142460693,0.05445473057088997,88.3297919672312,0.0
1501,-0.3333513908411069,0.05013193091409103,88.55112485584,0.0
1502,-0.33880451646566456,0.04481755002360731,88.78623421918017,0.0
1503,-0.3453361550668927,0.038411693480265366,89.03455904203932,0.0
1504,-0.3529950251916884,0.030831955985805324,89.29553445515857,0.0
1505,-0.36181135911697726,0.022019790812816995,89.56858981408548,0.0
1506,-0.3717893285900314,0.011950636386911193,89.85314683326054,0.0
1507,-0.3828966287518502,0.000648197573271548,90.14861777372037,0.0
1508,-0.3950531158546119,-0.011798018254994727,90.45440368384672,0.0
1509,-0.4081190524113092,-0.02521428249879372,90.76989269362448,0.0
1510,-0.4218823515912623,-0.039327077011997696,91.09445836389777,0.0
1511,-0.4360445878635077,-0.05375501619135575,91.42745809313305,0.0
1512,-0.45020794295056465,-0.06801299455304048,91.76823158521702,0.0
1513,-0.4638689022010569,-0.08153228583128068,92.11609938283229,0.0
1514,-0.4764275360623106,-0.09369809415494826,92.47036147196592,0.0
1515,-0.4872213648910493,-0.10390279678286371,92.83029596411339,0.0
1516,-0.49558856500181675,-0.11160935509411685,93.1951578637371,0.0
1517,-0.500956738882549,-0.11641594874809628,93.56417792951918,0.0
1518,-0.5029428476942617,-0.11811078775254293,93.93656163890782,0.0
1519,-0.5014410346043938,-0.11670612422350413,94.3114882663793,0.0
1520,-0.49667210655497185,-0.11244313032785573,94.68811008672104,0.0
1521,-0.4891740796520579,-0.10576428406712857,95.06555171546296,0.0
1522,-0.47972714522779103,-0.09725625904043737,95.44290959933659,0.0
1523,-0.4692249256635579,-0.08757257300655256,95.81925167030174,0.0
1524,-0.4585207650398007,-0.07734979332991507,96.19361717723426,0.0
1525,-0.4482867862765169,-0.0671326350038488,96.5650167097913,0.0
1526,-0.43892092519420983,-0.05732127415930595,96.93243242924345,0.0
1527,-0.4305237114930497,-0.04814904991699974,97.29481852116179,0.0
1528,-0.4229466608359848,-0.039691735214151556,97.65110188474645,0.0
1529,-0.4158942033264647,-0.03190254675228856,98.00018307326246,0.0
1530,-0.4090471681307661,-0.024661863189873193,98.3409374994763,0.0
1531,-0.4021718427045932,-0.017828527774260798,98.67221691914705,0.0
1532,-0.39518530268009655,-0.011281022815543086,98.992851204492,0.0
1533,-0.38816272944981417,-0.004941113760464438,99.30165041809833,0.0
1534,-0.38129105816841163,0.0012216314235694303,99.59740719597761,0.0
1535,-0.3747896993780577,0.007200494285523506,99.87889944633842,0.0
1536,-0.3688280703927099,0.012969767498475324,100.14489336818447,0.0
1537,-0.36346848232515166,0.01850182989070431,100.39414679102237,0.0
1538,-0.35865232424967497,0.023776420676036254,100.62541283379569,0.0
1539,-0.3542316195390918,0.028779279602639374,100.83744387766,0.0
1540,-0.35003274729927336,0.03349181961478976,101.02899584340086,0.0
1541,-0.34592947572690186,0.037877127842680255,101.19883276020612,0.0
1542,-0.34190082569246544,0.04186921179896609,101.34573160817432,0.0
1543,-0.3380550908799445,0.04537156334751521,101.46848741242981,0.0
1544,-0.3346120509894435,0.048268131374859614,101.56591856208044,0.0
1545,-0.33184778467655385,0.05044565449263602,101.6368723225732,0.0
1546,-0.33001733018869805,0.051822319930189875,101.68023050535639,0.0
1547,-0.32927701476301174,0.05237512905758121,101.69491525423729,1.0
1548,-0.3296287670817104,0.05215797630969358,101.67570131390099,0.0
1549,-0.3309028599943389,0.051304438467969275,101.61868894426743,0.0
1550,-0.3327848590263112,0.05001308414739483,101.52488246441528,0.0
1551,-0.3348801224847674,0.04851768226446047,101.39536064803647,0.0
1552,-0.3367986492794874,0.04704873528958658,101.23126940314769,0.0
1553,-0.33823753028202996,0.04579516645099423,101.03381433565895,0.0
1554,-0.3390393540907221,0.044875097677114,100.80425327112026,0.0
1555,-0.33921218176877055,0.04432245516349083,100.54388880495544,0.0
1556,-0.33890773915976563,0.04409224376138102,100.25406094667554,0.0
1557,-0.3383658904689852,0.04408278329372799,99.93613991810425,0.0
1558,-0.3378420548705322,0.0441691710820446,99.59151915969656,0.0
1559,-0.33753780912635045,0.04423970385778625,99.22160859274537,0.0
1560,-0.33755266287505065,0.04422649785065927,98.8278281787915,0.0
1561,-0.3378677165392963,0.044123082320807624,98.41160181102117,0.0
1562,-0.3383621151099572,0.043984812536930054,97.97435156596956,0.0
1563,-0.3388543866911713,0.04391174838893794,97.51749233756243,0.0
1564,-0.3391558731092847,0.04401730336480984,97.04242686951054,0.0
1565,-0.3391234999271174,0.04438876853139124,96.55054119640126,0.0
1566,-0.3387027533936637,0.04504733031491552,96.04320049857135,0.0
1567,-0.3379562965025173,0.04591531953452142,95.52174537103488,0.0
1568,-0.3370768288988679,0.0467972988214082,94.98748850241763,0.0
1569,-0.3363837386405719,0.04737951653084255,94.44171175602558,0.0
1570,-0.33630272935073224,0.04724958663779518,93.88566364185813,0.0
1571,-0.3373278119955346,0.04593535506789638,93.32055716556044,0.0
1572,-0.3399671770735093,0.04295912039996282,92.7475680379792,0.0
1573,-0.3446781589996575,0.0379010009192331,92.16783322711844,0.0
1574,-0.3517998776504225,0.030463555977767953,91.58244983286245,0.0
1575,-0.36149326887358973,0.020528999014752365,90.99247426380526,0.0
1576,-0.37369671921297953,0.008200624744717003,90.39892169486836,0.0
1577,-0.38810276851946385,-0.006178544085016627,89.8027657840611,0.0
1578,-0.40415911254323317,-0.022034475753586857,89.20493862670587,0.0
1579,-0.4210960275157244,-0.03859955763275883,88.6063309256732,0.0
1580,-0.43798138844766143,-0.0549763240246309,88.00779235661493,0.0
1581,-0.45380214513128786,-0.07022126417604126,87.41013210781104,0.0
1582,-0.4675667472561843,-0.08343917971385462,86.8141195750252,0.0
1583,-0.47841728873021044,-0.09387634290346142,86.22048519266274,0.0
1584,-0.48573489321728897,-0.1010000990803432,85.62992138351807,0.0
1585,-0.48921931623800596,-0.10455385699049088,85.04308361045747,0.0
1586,-0.4889258059238122,-0.10457957857293056,84.4605915144871,0.0
1587,-0.48524967913536177,-0.10140448186798397,83.88303012478467,0.0
1588,-0.4788604906658594,-0.0955939354427972,83.31095112740913,0.0
1589,-0.4705995327993072,-0.08787749950317289,82.74487418053103,0.0
1590,-0.46136223421134104,-0.07905885386405447,82.18528826513497,0.0
1591,-0.45198783614996346,-0.06992230731163152,81.63265306122449,0.0
1592,-0.44317282088209814,-0.06114846985092754,81.08740034060091,0.0
1593,-0.43541543257159027,-0.05324966758374834,80.54993536828415,0.0
1594,-0.428990771094357,-0.04653228201497735,80.02063830559229,0.0
1595,-0.4239521952844998,-0.04108904533928935,79.49986560879218,0.0
1596,-0.42015489896566866,-0.03682006266177769,78.98795141807649,0.0
1597,-0.4172988946450124,-0.0334775067007127,78.48520893240988,0.0
1598,-0.4149884356322527,-0.030725962297501193,77.9919317665206,0.0
1599,-0.4128022033624429,-0.028208597007760905,77.50839528699265,0.0
1600,-0.410364883802733,-0.025608907583008402,77.03485792504217,0.0
1601,-0.40740861162546127,-0.02269882685466022,76.5715624641378,0.0
1602,-0.4038136914150038,-0.019366394351279362,76.11873730115467,0.0
1603,-0.3996215158599225,-0.015619714543610079,75.67659768023654,0.0
1604,-0.39501712286637397,-0.01156805117465974,75.24534689898222,0.0
1605,-0.390283434451491,-0.007384963283162339,74.82517748697707,0.0
1606,-0.3857341486450232,-0.003261630794220094,74.4162723570573,0.0
1607,-0.3816377250404968,0.0006397356247627023,74.01880593003156,0.0
1608,-0.378149571633952,0.004222703821204307,73.63294523389064,0.0
1609,-0.3752705958042347,0.0074761666995782315,73.25885097881716,0.0
1610,-0.3728453973565691,0.010472990842869238,72.89667860956699,0.0
1611,-0.37060281311758436,0.013348803049398329,72.54657933703363,0.0
1612,-0.36822857620595023,0.016266381317188956,72.20870115103175,0.0
1613,-0.3654494525498315,0.019374251678477193,71.88318981654811,0.0
1614,-0.36210460410094036,0.022769177144525015,71.57018985591168,0.0
1615,-0.3581846500177309,0.026471026709662872,71.26984551953093,0.0
1616,-0.35382995073342777,0.030415386767172724,70.98230174804182,0.0
1617,-0.34929235474823256,0.03446505926292086,70.70770512890394,0.0
1618,-0.34487410119551315,0.03843734524901069,70.44620485068151,0.0
1619,-0.3408611082370552,0.04214073358195525,70.19795365845083,0.0
1620,-0.33746598311926373,0.04541297326117582,69.96310881399256,0.0
1621,-0.33479116834734046,0.04815271682678326,69.74183306465677,0.0
1622,-0.33281700730589453,0.050338740137090554,69.53429562503662,0.0
1623,-0.33141430451194637,0.052033595538594116,69.34067317585668,0.0
1624,-0.3303764585040676,0.05337171497406434,69.16115088477645,0.0
1625,-0.3294628474464211,0.05453476083919807,68.99592345413758,0.0
1626,-0.32844371014769463,0.05571893078698945,68.84519620104378,0.0
1627,-0.3271380206792351,0.0570997375790991,68.70918617556721,0.0
1628,-0.325439483725698,0.058799561697467556,68.58812332332555,0.0
1629,-0.3233301653612451,0.06086227400366843,68.48225169917995,0.0
1630,-0.32088433644465914,0.06323780295435857,68.39183073937166,0.0
1631,-0.3182656338906034,0.06577800913871867,68.31713660005475,0.0
1632,-0.3157191004822501,0.06824386243582384,68.25846357090269,0.0
1633,-0.3135577221694518,0.07032280399029504,68.21612557327926,0.0
1634,-0.31214228634845703,0.07165433102345864,68.19045775338348,0.0
1635,-0.3118541300495431,0.07186123937302621,68.18181818181819,1.0
1636,-0.31306201063843986,0.07058357470074998,68.18985220684178,0.0
1637,-0.31608609073249844,0.06751218535712787,68.21369821220115,0.0
1638,-0.3211633369883068,0.062418866083020205,68.25298777632457,0.0
1639,-0.3284191077127223,0.05518045386332418,68.30737202081703,0.0
1640,-0.33784903483983686,0.04579487015224183,68.37651998630801,0.0
1641,-0.34931351684646217,0.034387928104412935,68.46011710115823,0.0
1642,-0.3625448089611326,0.021210622019764827,68.55786373297141,0.0
1643,-0.37716466027355255,0.00662745179649776,68.6694738137794,0.0
1644,-0.39270921839577416,-0.008903009040654934,68.79467353059034,0.0
1645,-0.4086574943062737,-0.024853677436193003,68.93320007372259,0.0
1646,-0.42445990622858143,-0.04065884271476575,69.08480043600423,0.0
1647,-0.4395644102093306,-0.055746507646187826,69.24923025650796,0.0
1648,-0.45343961413230244,-0.06957132082445759,69.42625270302389,0.0
1649,-0.4655965697779737,-0.08164617016156527,69.61563738795452,0.0
1650,-0.47561230582294256,-0.09157037716130333,69.81715931275575,0.0
1651,-0.4831571549111522,-0.09905231991955907,70.03059783644979,0.0
1652,-0.4880242013758067,-0.1039243880705177,70.25573566410655,0.0
1653,-0.4901542257884423,-0.1061486168069849,70.49235785153529,0.0
1654,-0.4896462659211344,-0.10581225416141081,70.74025082275033,0.0
1655,-0.4867452266440686,-0.10311380643237193,70.99920139708114,0.0
1656,-0.4818047891907358,-0.09834150505906052,71.26899582308899,0.0
1657,-0.47523387410676843,-0.09184724455673798,71.54941881673436,0.0
1658,-0.46744296470033486,-0.08401948452378824,71.84025260151628,0.0
1659,-0.4588074410111039,-0.07525821794690053,72.14127594857666,0.0
1660,-0.4496570400231506,-0.06595401353243634,72.45226321503655,0.0
1661,-0.44028747803743207,-0.05647174418599131,72.77298337910626,0.0
1662,-0.43097954537286354,-0.04713843012456108,73.1031990707932,0.0
1663,-0.4220088307222478,-0.038234054766673214,73.44266559732046,0.0
1664,-0.4136366059145553,-0.029984370525576908,73.79112996266984,0.0
1665,-0.4060845001625127,-0.022555392908654177,74.14832988097616,0.0
1666,-0.3995051336114436,-0.016050068881371598,74.51399278382881,0.0
1667,-0.3939627393445233,-0.010508076868338758,74.88783482188254,0.0
1668,-0.3894319092007916,-0.005909628988114247,75.26955986154519,0.0
1669,-0.3858133779640416,-0.0021835239942495296,75.65885847789667,0.0
1670,-0.3829588916832175,0.0007812125731124463,76.0554069454026,0.0
1671,-0.38069605766521303,0.003121625554064665,76.45886622841913,0.0
1672,-0.3788479843866508,0.004987101465211315,76.86888097394298,0.0
1673,-0.37724771603927276,0.006527647756298261,77.28507850954331,0.0
1674,-0.37574991362336296,0.00788568126420577,77.70706784992032,0.0
1675,-0.3742405603765453,0.009191878896979994,78.1344387160682,0.0
1676,-0.37264188625371486,0.01056448871381018,78.56676057157695,0.0
1677,-0.3709081452467679,0.012110415529361426,79.00358168118683,0.0
1678,-0.36901074260947786,0.013925696455627499,79.4444281973084,0.0
1679,-0.36691734093507516,0.016092958847484504,79.88880328083755,0.0
1680,-0.3645750294634392,0.018674274592637985,80.33618626322408,0.0
1681,-0.36190850051632617,0.021699431331895894,80.78603185738946,0.0
1682,-0.3588391563827407,0.0251516869182056,81.23776942572982,0.0
1683,-0.35532216946634126,0.02895496525518989,81.6908023140735,0.0
1684,-0.35138968810994897,0.032967502810626124,82.14450726108468,0.0
1685,-0.34718345753770957,0.03698661248079319,82.59823389320255,0.0
1686,-0.3429612572847816,0.04076729832378065,83.05130431577099,0.0
1687,-0.3390685530640309,0.04405422072231281,83.50301281153203,0.0
1688,-0.3358773201721015,0.04662273114253845,83.9526256581178,0.0
1689,-0.333704650250657,0.04832140655647232,84.3993810765617,0.0
1690,-0.3327311915989378,0.049106744654821836,84.84248932314732,0.0
1691,-0.3329416016853348,0.049061136425253546,85.28113293710447,0.0
1692,-0.33410546360005994,0.04838805047179959,85.71446715673086,0.0
1693,-0.3358082718772231,0.04738302545151812,86.14162051644179,0.0
1694,-0.3375298466033172,0.04638449619274576,86.56169563701843,0.0
1695,-0.338754579012273,0.04571330679285353,86.9737702209095,0.0
1696,-0.3390878158739547,0.04561270037217125,87.3768982638333,0.0
1697,-0.33834906182923535,0.04620078080701448,87.7701114931014,0.0
1698,-0.3366175780690821,0.04744479002711351,88.15242104203261,0.0
1699,-0.33421854495692005,0.049161686617421936,88.5228193685289,0.0
1700,-0.33165446985703684,0.0510437121764369,88.88028242433367,0.0
1701,-0.3295016670089487,0.05270241388909844,89.22377207968142,0.0
1702,-0.32830058830669917,0.05372129354614979,89.55223880597015,1.0
1703,-0.32846880677875534,0.0537066369119588,89.87656196144154,0.0
1704,-0.33025667881902876,0.0523281122568906,90.20815218734535,0.0
1705,-0.33375105631783947,0.049344619426197014,90.54674458066377,0.0
1706,-0.33891677050693964,0.04461533140102615,90.8920664491749,0.0
1707,-0.345654296688693,0.03809953015426238,91.2438367267816,0.0
1708,-0.3538488807935422,0.029850679725421898,91.60176539438655,0.0
1709,-0.36339227000194807,0.020009837085057672,91.96555290728547,0.0
1710,-0.3741704918824218,0.008801343001583427,92.33488963023287,0.0
1711,-0.3860251054962119,-0.003469302614154974,92.70945528152372,0.0
1712,-0.39870594763390116,-0.016418228828502447,93.0889183876282,0.0
1713,-0.41183704841902574,-0.02959096456447316,93.47293575011544,0.0
1714,-0.4249130796386933,-0.042479192606251714,93.86115192680576,0.0
1715,-0.43733320336494386,-0.05454849205677595,94.2531987292981,0.0
1716,-0.4484664754941064,-0.06527606353862707,94.64869473923022,0.0
1717,-0.4577327654055347,-0.07419436049962129,95.04724484584193,0.0
1718,-0.464679070558664,-0.08093434701754179,95.44843980762509,0.0
1719,-0.4690340380655802,-0.08526138394790866,95.85185584105835,0.0
1720,-0.47073142781252636,-0.0870976636427222,96.25705423963507,0.0
1721,-0.469902437905308,-0.08652736849581634,96.66358102660165,0.0
1722,-0.4668437686221407,-0.08378371294373231,97.070966645024,0.0
1723,-0.4619712768481225,-0.0792200372251754,97.47872568899389,0.0
1724,-0.455768446450267,-0.07326954482700998,97.8863566799689,0.0
1725,-0.4487364109089016,-0.06639972242657795,98.29334189240818,0.0
1726,-0.4413497269123942,-0.05906781134048084,98.6991472330177,0.0
1727,-0.4340204624179499,-0.05168298976835013,99.10322217804887,0.0
1728,-0.42707242914680416,-0.04457940079266778,99.5049997732023,0.0
1729,-0.42072709250473517,-0.03800212827528264,99.90389670076624,0.0
1730,-0.41510230546716714,-0.03210601900070181,100.29931341866671,0.0
1731,-0.41022402865261576,-0.026965212673280038,100.69063437611696,0.0
1732,-0.40604924452709423,-0.02258968592227256,101.0772283105237,0.0
1733,-0.4024955580447353,-0.01894430146980287,101.4584486302334,0.0
1734,-0.3994706302708544,-0.015965939181456276,101.83363388757833,0.0
1735,-0.39689415745661466,-0.013575284215160962,102.2021083465041,0.0
1736,-0.39470725719807304,-0.011681589695035967,102.56318264882705,0.0
1737,-0.392867893551399,-0.010180869031559665,102.91615458287293,0.0
1738,-0.39133459526773906,-0.008950029633201758,103.26030995788787,0.0
1739,-0.3900432659461961,-0.007840924586412296,103.59492358718455,0.0
1740,-0.388883759657636,-0.006678745931033786,103.91926038248701,0.0
1741,-0.3876845408218868,-0.005268389072625505,104.2325765613667,0.0
1742,-0.3862142138147077,-0.0034104510525784122,104.53412096901869,0.0
1743,-0.3842060952859249,-0.0009257780598683797,104.82313651490962,0.0
1744,-0.3814055098872512,0.002315383968480158,105.09886172404012,0.0
1745,-0.3776308790124483,0.006365758362158556,105.36053240170499,0.0
1746,-0.37283254721174836,0.011181821591532661,105.60738340970954,0.0
1747,-0.36713089776197694,0.01661885737455229,105.83865055101347,0.0
1748,-0.3608188410710492,0.02244335813364398,106.05357255873074,0.0
1749,-0.35432230141325066,0.02836193374181397,106.25139318432497,0.0
1750,-0.34812378243025993,0.03406183560584671,106.43136337871078,0.0
1751,-0.3426657728172754,0.039255159531941704,106.5927435588163,0.0
1752,-0.3382593058059106,0.043717689591045245,106.73480595099086,0.0
1753,-0.33502466870725406,0.04731460184730644,106.8568370014697,0.0
1754,-0.3328835600954492,0.050008577406680126,106.9581398429477,0.0
1755,-0.33160589653464406,0.051850337876909396,107.03803680518573,0.0
1756,-0.33089532488047446,0.05295588709542701,107.09587195648915,0.0
1757,-0.3304831421347062,0.05347753884783124,107.13101366188127,0.0
1758,-0.33019734454146354,0.05357633357206267,107.14285714285714,1.0
1759,-0.3299838516158665,0.05340166934245222,107.12228314685738,0.0
1760,-0.3298766885502291,0.05308064430004441,107.06131704003798,0.0
1761,-0.32993488841143337,0.05271597680144266,106.96115740703173,0.0
1762,-0.330177115181548,0.052388710476598085,106.82308224243413,0.0
1763,-0.33054467758595313,0.05216105190974368,106.64844015936407,0.0
1764,-0.3309098149666496,0.05207572310095348,106.43864153868513,0.0
1765,-0.3311252272116021,0.05215051422342764,106.1951497071916,0.0
1766,-0.3310925464767389,0.05236925136847971,105.91947222691766,0.0
1767,-0.330820124652794,0.052672139988709614,105.61315237072765,0.0
1768,-0.3304467685115064,0.05294883860410644,105.27776085170174,0.0
1769,-0.33022386222064365,0.053036719924524856,104.9148878657543,0.0
1770,-0.3304657083052112,0.05272518528962601,104.5261354986044,0.0
1771,-0.33148933016363513,0.05176542991265479,104.11311053984576,0.0
1772,-0.33356648610882816,0.04988435769578013,103.67741773859868,0.0
1773,-0.3369028063099529,0.046801603944171676,103.22065352721462,0.0
1774,-0.3416457367344168,0.042249503147290486,102.74440023186585,0.0
1775,-0.34790981136051796,0.035996640741259016,102.25022078169071,0.0
1776,-0.3557997328804571,0.02787562976796519,101.73965392155348,0.0
1777,-0.36541193850902837,0.01781455825528455,101.214209927475,0.0
1778,-0.37680392564373816,0.005869315388458654,100.67536681843278,0.0
1779,-0.389934631814191,-0.007748563867942666,100.12456705353344,0.0
1780,-0.40459336309256144,-0.0226557511621859,99.56321469952896,0.0
1781,-0.4203435336063852,-0.03830003487536706,98.99267305027008,0.0
1782,-0.4365070901205459,-0.05398752989444093,98.41426267693961,0.0
1783,-0.45220565229295,-0.0689351979061581,97.829259885754,0.0
1784,-0.46645825849673495,-0.0823442327792662,97.23889555822328,0.0
1785,-0.4783184141358472,-0.09348458113794507,96.64435434796954,0.0
