,PPG_Raw,PPG_Clean,PPG_Rate,PPG_Peaks
0,-0.0858881691885221,0.01137829846500128,88.83826879271069,0.0
1,-0.08534115405833682,0.011732290095850827,88.83826879271069,0.0
2,-0.08485556111190105,0.012080959671276047,88.83826879271069,0.0
3,-0.0844631329445599,0.01242335121136345,88.83826879271069,0.0
4,-0.08416330867497644,0.012771864753334014,88.83826879271069,0.0
5,-0.08391681422367678,0.013153243807702792,88.83826879271069,0.0
6,-0.08364993424163458,0.013604806083392196,88.83826879271069,0.0
7,-0.08326965778610422,0.014166816749328744,88.83826879271069,0.0
8,-0.08268660333786552,0.014873060067664862,88.83826879271069,0.0
9,-0.0818397210504438,0.01574227092094229,88.83826879271069,0.0
10,-0.08071541703792173,0.01677294033108183,88.83826879271069,0.0
11,-0.07935468844229289,0.01794310583308593,88.83826879271069,0.0
12,-0.07784510445285128,0.019215296290933336,88.83826879271069,0.0
13,-0.07629917901579106,0.02054521575200302,88.83826879271069,0.0
14,-0.07482530717198002,0.02189149001833724,88.83826879271069,0.0
15,-0.07350024298497174,0.023223268426235684,88.83826879271069,0.0
16,-0.0723519598938948,0.024522887932053435,88.83826879271069,0.0
17,-0.07135871478319498,0.025782115422600407,88.83826879271069,0.0
18,-0.07046536849336715,0.02699236668235875,88.83826879271069,0.0
19,-0.06961302912426902,0.028131246180247246,88.83826879271069,0.0
20,-0.06877415827939776,0.02914919839477284,88.83826879271069,0.0
21,-0.06798323931928445,0.029960552996807346,88.83826879271069,0.0
22,-0.06735344223337986,0.030442568614788987,88.83826879271069,0.0
23,-0.06707260894989459,0.030444333903959744,88.83826879271069,0.0
24,-0.06737695164992213,0.029804975516799784,88.83826879271069,0.0
25,-0.06850696585306218,0.028378164107430128,88.83826879271069,0.0
26,-0.0706554757559191,0.026058063963506364,88.83826879271069,0.0
27,-0.07392070897133965,0.02280116702350784,88.83826879271069,0.0
28,-0.0782767686603465,0.018639126300518356,88.83826879271069,0.0
29,-0.08356982506510258,0.01367962604756739,88.83826879271069,0.0
30,-0.08954181084915408,0.008095018412626137,88.83826879271069,0.0
31,-0.09587610162605024,0.002101217912635983,88.83826879271069,0.0
32,-0.10225359420100162,-0.004068554482826885,88.83826879271069,0.0
33,-0.10840458559815626,-0.010189697250775728,88.83826879271069,0.0
34,-0.1141430491273262,-0.01606687604356668,88.83826879271069,0.0
35,-0.11937525724998166,-0.021546201574881973,88.83826879271069,0.0
36,-0.12408275083203016,-0.0265181823667689,88.83826879271069,0.0
37,-0.12828781460706024,-0.03091308748310475,88.83826879271069,0.0
38,-0.13201500080082634,-0.03469201583720274,88.83826879271069,0.0
39,-0.135262716614533,-0.03783747152326017,88.83826879271069,0.0
40,-0.1379941406169937,-0.04034653908191852,88.83826879271069,0.0
41,-0.1401487658281038,-0.04222816847728648,88.83826879271069,0.0
42,-0.14166812333246617,-0.04350420128819693,88.83826879271069,0.0
43,-0.14252469411017812,-0.04421223327089446,88.83826879271069,0.0
44,-0.1427428945842824,-0.04440769365366964,88.83826879271069,0.0
45,-0.14240472121802147,-0.044162808840066146,88.83826879271069,0.0
46,-0.14163831572057656,-0.043561253998050706,88.83826879271069,0.0
47,-0.1405931722342029,-0.04268886613043886,88.83826879271069,0.0
48,-0.13940930492160025,-0.04162226975692837,88.83826879271069,0.0
49,-0.13818877639853558,-0.04041817994809203,88.83826879271069,0.0
50,-0.13697678608541242,-0.039106217806353365,88.83826879271069,0.0
51,-0.1357567425435862,-0.03768728263747217,88.83826879271069,0.0
52,-0.13446021345524034,-0.036138107293898485,88.83826879271069,0.0
53,-0.13298911194609164,-0.03442098804674755,88.83826879271069,0.0
54,-0.1312445924159434,-0.032496293570399466,88.83826879271069,0.0
55,-0.1291554541764632,-0.030334612485950277,88.83826879271069,0.0
56,-0.12669881885435447,-0.027925510142453536,88.83826879271069,0.0
57,-0.12390764344491097,-0.02528081096426915,88.83826879271069,0.0
58,-0.12086301143115194,-0.022431848314499677,88.83826879271069,0.0
59,-0.11767331714585418,-0.019421808950479715,88.83826879271069,0.0
60,-0.11444621798015174,-0.01629567039158384,88.83826879271069,0.0
61,-0.11126138571125081,-0.013090891547008893,88.83826879271069,0.0
62,-0.1081519637516612,-0.009831765977335186,88.83826879271069,0.0
63,-0.10510030439750553,-0.006529234676533097,88.83826879271069,0.0
64,-0.10204970927839341,-0.0031862822158658516,88.83826879271069,0.0
65,-0.0989294966537471,0.00019271952593365171,88.83826879271069,0.0
66,-0.09568675746373408,0.003591683840768814,88.83826879271069,0.0
67,-0.09231558204277114,0.006974943853735715,88.83826879271069,0.0
68,-0.08887423606558024,0.010284748470067506,88.83826879271069,0.0
69,-0.08548335354341165,0.013445558686595433,88.83826879271069,0.0
70,-0.08230353385806162,0.016374608928654184,88.83826879271069,0.0
71,-0.07949744328903732,0.018996286462011954,88.83826879271069,0.0
72,-0.07718732527134467,0.021256619962514673,88.83826879271069,0.0
73,-0.07542133583901994,0.02313396749493835,88.83826879271069,0.0
74,-0.07415999852264765,0.024642949808448427,88.83826879271069,0.0
75,-0.07328773527315059,0.025830521360810894,88.83826879271069,0.0
76,-0.07264603379060422,0.02676525562933662,88.83826879271069,0.0
77,-0.07207748320225353,0.0275227750650446,88.83826879271069,0.0
78,-0.07146648137675266,0.0281712125927883,88.83826879271069,0.0
79,-0.07076416081645129,0.028760369713813155,88.83826879271069,0.0
80,-0.0699911081148078,0.02931692975446408,88.83826879271069,0.0
81,-0.06921920157203801,0.029846125878851278,88.83826879271069,0.0
82,-0.06854042405079952,0.03033827663644475,88.83826879271069,0.0
83,-0.06803379501816419,0.030777200855704852,88.83826879271069,0.0
84,-0.06774106388473143,0.031147121551484018,88.83826879271069,0.0
85,-0.06765824591087581,0.031435359476227935,88.83826879271069,0.0
86,-0.06774487373875744,0.03162966243819701,88.83826879271069,0.0
87,-0.06794753055425108,0.031710930633271905,88.83826879271069,1.0
88,-0.0682301604137629,0.031643800262993446,88.74958676121233,0.0
89,-0.06860173795462282,0.03136853301090965,88.66222146715477,0.0
90,-0.06913252586727561,0.030797639224238466,88.57616951593918,0.0
91,-0.06995320622003891,0.02981963864278738,88.49142761259004,0.0
92,-0.07123592407145182,0.028310612988132526,88.40799256141818,0.0
93,-0.07316144626842255,0.026152198988768856,88.32586126570189,0.0
94,-0.07588058432913357,0.023252932648991566,88.2450307273867,0.0
95,-0.07947937757512731,0.01956882182419805,88.165498046803,0.0
96,-0.08395589105787349,0.015118933560212468,88.0872604224021,0.0
97,-0.08921274504036054,0.009992631397080613,88.01031515051025,0.0
98,-0.09506534088406599,0.004346662640153399,87.93465962510084,0.0
99,-0.10126269726161029,-0.0016077898369288302,87.86029133758471,0.0
100,-0.10751646970088498,-0.007626122595942388,87.78720787661842,0.0
101,-0.11353370348880967,-0.013455994406802955,87.71540692793069,0.0
102,-0.11904926351770957,-0.018863524129965555,87.6448862741666,0.0
103,-0.12385400296630654,-0.023655885666203583,87.5756437947502,0.0
104,-0.12781460628184868,-0.027696969189477498,87.50767746576493,0.0
105,-0.13088139613992517,-0.030914147718620978,87.44098535985205,0.0
106,-0.13308205199159756,-0.03329586414025733,87.3755656461272,0.0
107,-0.13450228699298425,-0.03488139929911422,87.31141659011514,0.0
108,-0.13525814903597888,-0.03574546386849904,87.24853655370242,0.0
109,-0.13546716666340952,-0.035980920972056275,87.18692399510834,0.0
110,-0.13522575452932187,-0.035682882507267,87.12657746887407,0.0
111,-0.13459792927619463,-0.03493669623988763,87.06749562586998,0.0
112,-0.1336164653529749,-0.033811179703554434,87.00967721332127,0.0
113,-0.13229372630638148,-0.03235718207814835,86.9531210748521,0.0
114,-0.13063690333262135,-0.030610487355594924,86.897826150548,0.0
115,-0.12866191517780934,-0.028597438737903425,86.84379147703675,0.0
116,-0.12640162132709942,-0.0263415402985656,86.79101618758808,0.0
117,-0.1239065776425397,-0.023869592985855344,86.73949951223194,0.0
118,-0.12123940142406255,-0.021216449662850412,86.6892407778953,0.0
119,-0.11846603314504839,-0.018427996025005666,86.64023940855836,0.0
120,-0.11564811688947241,-0.01556230151578988,86.59249492542924,0.0
121,-0.11284002930058136,-0.012688972303542786,86.54600694713824,0.0
122,-0.11009187150997381,-0.009886643906872623,86.50077518995079,0.0
123,-0.10745666340506163,-0.007238436739914144,86.45679946800043,0.0
124,-0.10499724681462205,-0.004825246091746679,86.41407969354073,0.0
125,-0.10278741431299977,-0.002717063121654509,86.37261587721724,0.0
126,-0.10090344937357375,-0.0009631066926058208,86.3324081283591,0.0
127,-0.09940631296685953,0.00041777647407405596,86.29345665529063,0.0
128,-0.09831947938701195,0.0014444719573504473,86.25576176566312,0.0
129,-0.09761055173781039,0.002176651847533303,86.21932386680703,0.0
130,-0.09718452101143121,0.002711927028522551,86.18414346610447,0.0
131,-0.09689280631647319,0.003176504212400133,86.15022117138268,0.0
132,-0.09655673186756077,0.0037100745538812367,86.11755769132822,0.0
133,-0.09599932999700429,0.004446967155990593,86.08615383592246,0.0
134,-0.09507716950085504,0.005496553741088468,86.05601051689828,0.0
135,-0.09370472178361783,0.006926247575984168,86.02712874821844,0.0
136,-0.09186671943835359,0.008750120361400594,85.99950964657583,0.0
137,-0.08961759775191393,0.010925254001468435,85.97315443191562,0.0
138,-0.08707015159971086,0.01335666152694603,85.94806442797993,0.0
139,-0.08437720709076482,0.01591021436718852,85.92424106287507,0.0
140,-0.08171021583028382,0.018431743550197447,85.90168586966155,0.0
141,-0.07923761855201057,0.02076951952946513,85.88040048696739,0.0
142,-0.07710441428970664,0.022796765971570307,85.86038665962484,0.0
143,-0.07541354617550675,0.024430775654916855,85.8416462393309,0.0
144,-0.07421006215909495,0.025645582091074957,85.82418118533188,0.0
145,-0.07347035160531927,0.026475978270207243,85.80799356513253,0.0
146,-0.07310009826222123,0.02701190056946415,85.7930855552297,0.0
147,-0.07294459644785052,0.027383680791152887,85.77945944187141,0.0
148,-0.0728129257370061,0.027740199935705402,85.76711762184124,0.0
149,-0.07251349156150946,0.02822327473789149,85.75606260326848,0.0
150,-0.07189408044734931,0.028942382602359346,85.74629700646487,0.0
151,-0.07087681227270755,0.029953866247000926,85.73782356478756,0.0
152,-0.06947872906788961,0.03124799562340934,85.73064512552959,0.0
153,-0.06781254293913312,0.032745839980417774,85.72476465083741,0.0
154,-0.06606802774361198,0.034306133482655154,85.72018521865671,0.0
155,-0.06448029531342567,0.035740611868310894,85.7169100237064,0.0
156,-0.06329434330544209,0.036835033569009606,85.71494237848157,0.0
157,-0.06273465134943555,0.037372512347993755,85.71428571428572,1.0
158,-0.06298493529645584,0.03715591306510513,85.71509306441823,0.0
159,-0.06417847562167178,0.03602674147154035,85.71749862459242,0.0
160,-0.06639587082488849,0.033878923529137864,85.72147778940564,0.0
161,-0.06966586702954808,0.03066684061401023,85.72700611941912,0.0
162,-0.07396604366442247,0.026407763805517764,85.73405933221352,0.0
163,-0.07922257137396214,0.021179333428276305,85.74261329362565,0.0
164,-0.08531060380989032,0.015112987226298629,85.75264400916105,0.0
165,-0.09205796183159032,0.008384337418157969,85.76412761557863,0.0
166,-0.09925414289777994,0.0012015166840624002,85.77704037264257,0.0
167,-0.10666470605865497,-0.006207502902032473,85.79135865503747,0.0
168,-0.1140487648359802,-0.013607672237045502,85.80705894444284,0.0
169,-0.12117586764295941,-0.02076889249430472,85.82411782176341,0.0
170,-0.1278387604856907,-0.027476705937206053,85.84251195951137,0.0
171,-0.1338603829778925,-0.03354132290866025,85.86221811433761,0.0
172,-0.13909603142666876,-0.03880492416429776,85.88321311970857,0.0
173,-0.14343354337116854,-0.043147356303582254,85.90547387872589,0.0
174,-0.1467945252659442,-0.04649037356614176,85.92897735708581,0.0
175,-0.14913797856528657,-0.04880047077371549,85.95370057617626,0.0
176,-0.1504652358375065,-0.05009015657504531,85.9796206063084,0.0
177,-0.1508234381759257,-0.05041732461732999,86.00671456008102,0.0
178,-0.1503048753684148,-0.04988228131552896,86.03495958587531,0.0
179,-0.14904119298851956,-0.048622037102681995,86.06433286147809,0.0
180,-0.1471935492796907,-0.0468016726610993,86.09481158783163,0.0
181,-0.1449409129449809,-0.04460292520127166,86.12637298290838,0.0
182,-0.1424682349545494,-0.04221055531171608,86.15899427570929,0.0
183,-0.13995476910093535,-0.039797496894292975,86.19265270038379,0.0
184,-0.13756165254955935,-0.03751019691049762,86.2273254904707,0.0
185,-0.13541806272073137,-0.035455838346567195,86.26298987325866,0.0
186,-0.13360690358495822,-0.033693215174557395,86.29962306426503,0.0
187,-0.1321530228570891,-0.03222880405235527,86.3372022618325,0.0
188,-0.131017998408044,-0.03101900793451799,86.37570464184263,0.0
189,-0.13010468235749123,-0.02997866515613607,86.41510735254553,0.0
190,-0.12927219024355072,-0.02899485551308538,86.45538750950537,0.0
191,-0.1283590126477338,-0.02794400701477957,86.4965221906612,0.0
192,-0.12720968863993135,-0.026709562347017164,86.53848843150269,0.0
193,-0.12569971066047123,-0.0251972185229049,86.58126322036077,0.0
194,-0.1237539387022354,-0.023345124824415635,86.6248234938131,0.0
195,-0.12135523013404029,-0.02112739125127809,86.66914613220415,0.0
196,-0.11854171601860357,-0.0185506525424558,86.71420795528027,0.0
197,-0.1153930039569439,-0.015644960895613,86.75998571794008,0.0
198,-0.11200767636451586,-0.01245159025913045,86.80645610609992,0.0
199,-0.10847678285260419,-0.009011088790853064,86.85359573267556,0.0
200,-0.10486006929765739,-0.0053548781392360155,86.9013811336802,0.0
201,-0.10117236436479707,-0.0015028101274077704,86.94978876443953,0.0
202,-0.09738576735743446,0.0025324871158886007,86.99879499592447,0.0
203,-0.09344881737031945,0.006735546717082035,87.04837611120236,0.0
204,-0.08931788057926132,0.011075099173440107,87.09850830200777,0.0
205,-0.08499094022544239,0.015492112726181985,87.14916766543348,0.0
206,-0.08053219541339564,0.01989284317961773,87.20033020074285,0.0
207,-0.07607842865391234,0.024149924043302434,87.2519718063047,0.0
208,-0.07182406846760994,0.02811269128378717,87.30406827665196,0.0
209,-0.06798878159809747,0.03162568829179506,87.3565952996652,0.0
210,-0.06477649343357998,0.03455219647315522,87.40952845388236,0.0
211,-0.06233622619798162,0.03679820007313536,87.46284320593632,0.0
212,-0.06073317498749007,0.03833175826405434,87.51651490812156,0.0
213,-0.05993469176810682,0.039193414483456104,87.57051879609138,0.0
214,-0.059812351878125156,0.03949486948222798,87.62482998668754,0.0
215,-0.06015910098688668,0.03940534054880374,87.67942347590379,0.0
216,-0.06071928282645967,0.039127382260246577,87.7342741369849,0.0
217,-0.061228114267279365,0.03886599541609935,87.78935671866314,0.0
218,-0.06145535847315493,0.03879620369138975,87.84464584353395,0.0
219,-0.061246028585105534,0.03903466207578258,87.90011600657256,0.0
220,-0.0605500913671717,0.03962018534417714,87.95574157379347,0.0
221,-0.05943435259987262,0.04050646292651285,88.01149678105493,0.0
222,-0.058073183649729784,0.04156797184632581,88.06735573300999,0.0
223,-0.05671963292448097,0.042617671300811864,88.12329240220653,0.0
224,-0.055663192326643504,0.04343297142452056,88.179280628338,0.0
225,-0.05518350716450013,0.04378515820877875,88.23529411764706,1.0
226,-0.05550976781461269,0.04346719300230625,88.29179899889479,0.0
227,-0.056793478783584754,0.042315609199448226,88.3493004363969,0.0
228,-0.05909855789728204,0.040223868782773314,88.40783075493177,0.0
229,-0.06240837303432458,0.0371465918528304,88.46742250602057,0.0
230,-0.06664545149844016,0.03309602296468436,88.52810847563163,0.0
231,-0.07169705092890111,0.028133483929856727,88.58992169216677,0.0
232,-0.07743904690215242,0.02235908071027446,88.65289543473517,0.0
233,-0.08375172384638298,0.01590251550791276,88.71706324172122,0.0
234,-0.09052375142895022,0.008916687099175025,88.78245891965244,0.0
235,-0.0976443551088042,0.0015742237787555128,88.84911655237497,0.0
236,-0.10498765685115315,-0.005934341530548299,88.91707051054281,0.0
237,-0.11239623849958183,-0.013402938586650436,88.98635546142918,0.0
238,-0.11967191653349646,-0.020615132395089074,89.0570063790669,0.0
239,-0.12657979838735425,-0.02735359371930475,89.12905855472653,0.0
240,-0.13286736965262086,-0.033413964368607704,89.20254760774056,0.0
241,-0.1382952441776575,-0.038621607812075985,89.27750949668231,0.0
242,-0.14267226419938892,-0.042848405964312025,89.3539805309092,0.0
243,-0.14588616942221416,-0.04602612624251731,89.43199738247964,0.0
244,-0.1479221781203823,-0.04815316419217641,89.51159709845423,0.0
245,-0.1488647469681937,-0.0492926355549469,89.5928171135912,0.0
246,-0.14888150452147436,-0.049561569729038205,89.67569526344772,0.0
247,-0.1481921648211908,-0.049112894113917054,89.76026979789837,0.0
248,-0.14702862158134472,-0.048113493666953486,89.84657939508287,0.0
249,-0.14559481227079554,-0.046722461679483025,89.93466317579573,0.0
250,-0.14403555711477684,-0.045073502090406524,90.02456071833127,0.0
251,-0.142421782307402,-0.043264338183832934,90.11631207379722,0.0
252,-0.14075533734087242,-0.04135422313035307,90.20995778191183,0.0
253,-0.13899100237768916,-0.039368711916449944,90.30553888729965,0.0
254,-0.13706806683160094,-0.03730926723634991,90.403096956301,0.0
255,-0.1349410042477738,-0.035164453765207944,90.5026740943126,0.0
256,-0.1325994784905846,-0.03291961354067003,90.60431296367557,0.0
257,-0.1300720204237008,-0.030562908531863865,90.70805680212956,0.0
258,-0.12741367876247514,-0.028087108968181312,90.81394944185136,0.0
259,-0.12468353731924801,-0.025488003993890535,90.92203532909782,0.0
260,-0.12192120198704971,-0.02276134379433817,91.0323595444734,0.0
261,-0.11913118328410555,-0.019900491330322095,91.14496782384421,0.0
262,-0.11628080963717854,-0.01689643117582733,91.25990657992058,0.0
263,-0.11331226737381289,-0.01374067937653031,91.37722292453176,0.0
264,-0.11016445398388792,-0.010430366092240604,91.49696469161744,0.0
265,-0.10679720714254443,-0.0069737651459880045,91.61918046096156,0.0
266,-0.1032099718922063,-0.003394158428428315,91.74391958269528,0.0
267,-0.09944893858423502,0.0002697248162624923,91.87123220259735,0.0
268,-0.09560025918203217,0.003967479626423784,92.001169288221,0.0
269,-0.09177101905235098,0.007644512038379675,92.13378265587825,0.0
270,-0.08806316855071865,0.011251564966848544,92.26912499851373,0.0
271,-0.0845477408141881,0.014753902683958958,92.40724991450192,0.0
272,-0.0812467966429067,0.018137766889172773,92.54821193740237,0.0
273,-0.07812849833257306,0.021412412843439355,92.69206656671074,0.0
274,-0.07511699221589191,0.02460721578834472,92.8388702996434,0.0
275,-0.0721143952809171,0.02776463866625476,92.98868066399669,0.0
276,-0.06902843917525517,0.03093086924413868,93.14155625212271,0.0
277,-0.06579747983219353,0.034146358763195016,93.29755675606656,0.0
278,-0.062405464890902276,0.03743821012637107,93.45674300391084,0.0
279,-0.05888304847709195,0.04081548954372535,93.61917699737704,0.0
280,-0.055296201552034595,0.04426738474772749,93.78492195073416,0.0
281,-0.05172832726645914,0.04776310951418171,93.95404233106848,0.0
282,-0.0482640000475677,0.051251917818258955,94.1266038999708,0.0
283,-0.04498109510111683,0.05466173691178523,94.30267375669985,0.0
284,-0.04195404644002551,0.057895726002116586,94.48232038288386,0.0
285,-0.039266255983430975,0.060827273025250136,94.66561368882516,0.0
286,-0.0370262991981108,0.06329518160249953,94.85262506147608,0.0
287,-0.0353815688005584,0.06510168136100755,95.04342741415746,0.0
288,-0.0345241294583535,0.06601611541221626,95.23809523809524,1.0
289,-0.03468579054068215,0.06578657957433588,95.45622771977764,0.0
290,-0.036121688258954156,0.06416045764860608,95.71647160662131,0.0
291,-0.03908346565623464,0.06091293680060303,96.01752845183485,0.0
292,-0.04378447719975383,0.05588054684755485,96.35816215711988,0.0
293,-0.05036062447415594,0.04899496708058041,96.73718661873328,0.0
294,-0.058831692049817086,0.04031120649851965,97.1534539263696,0.0
295,-0.06906938984720173,0.030024138028915945,97.60584300065341,0.0
296,-0.08077937610300776,0.0184684544078611,98.0932485699045,0.0
297,-0.09350461778457092,0.0060993922994264285,98.61457040023097,0.0
298,-0.10665559048464288,-0.006545242930343198,99.16870270530728,0.0
299,-0.11956831444444761,-0.018897668793374144,99.7545236737498,0.0
300,-0.13158432017302302,-0.030420058073496493,100.37088506311956,0.0
301,-0.14213906291195685,-0.04066245793501303,101.0166018205351,0.0
302,-0.15083998740027993,-0.04930897445791173,101.69044170091665,0.0
303,-0.1575152804423246,-0.05620410074637196,102.39111486523161,0.0
304,-0.16222054087748256,-0.06135443440701788,103.117263452977,0.0
305,-0.16520158420302272,-0.06490552403905364,103.86745113569647,0.0
306,-0.1668234452694011,-0.06709826114876874,104.64015267174842,0.0
307,-0.16748386203013932,-0.0682130855062347,105.43374349694737,0.0
308,-0.16753135493279686,-0.06851248096545344,106.24648940118868,0.0
309,-0.16720374703555826,-0.06819237152145098,107.07653635779842,0.0
310,-0.16659547555229626,-0.06735111094933424,107.9219005901278,0.0
311,-0.16565489995455177,-0.06598123553720349,108.78045897879149,0.0
312,-0.16420825755355684,-0.06398474179169578,109.64993993280181,0.0
313,-0.16200496926062607,-0.06120820019991654,110.52791486847981,0.0
314,-0.15877804822155367,-0.05749032853624186,111.41179046111786,0.0
315,-0.15431168707516735,-0.05271237751187548,112.29880185552778,0.0
316,-0.14850526128752314,-0.046841239993577706,113.18600704228824,0.0
317,-0.14142036831087373,-0.03995668534696495,114.07028262604891,0.0
318,-0.13329766195482523,-0.03225729331672293,114.94832122985378,0.0
319,-0.12453522340072719,-0.0240439209649134,115.81663079416425,0.0
320,-0.1156299207536107,-0.015684020224023664,116.6715360400298,0.0
321,-0.10709460361403952,-0.007563875347798846,117.50918237146847,0.0
322,-0.09937220824340012,-3.802510767625909e-05,118.32554249130597,0.0
323,-0.09276890092954374,0.006614692656938627,119.11642599613849,0.0
324,-0.08742157882466753,0.01222085824047241,119.87749219840224,0.0
325,-0.08330351419062108,0.016723632384313684,120.60426639548436,0.0
326,-0.08026072418053641,0.020174973618365972,121.29215976629,0.0
327,-0.07806490430838837,0.0227121412213649,121.93649302383064,0.0
328,-0.07646785623537446,0.02452426945044618,122.53252388772133,0.0
329,-0.07524596349771813,0.025815879682592986,123.07547836295001,0.0
330,-0.07422883843133958,0.026773799430391057,123.56058572146284,0.0
331,-0.07331143830161363,0.027542411293856577,123.98311698224641,0.0
332,-0.07245242349599151,0.028209979739147253,124.3384265756807,0.0
333,-0.07166305571842085,0.02880654155358309,124.62199676179915,0.0
334,-0.07099095795368318,0.029311930248291557,124.82948425334371,0.0
335,-0.0705023064096814,0.029671188253865693,124.95676837750607,0.0
336,-0.07026511706677512,0.029813968245147433,125.0,1.0
337,-0.07033549144261053,0.029674454997366127,124.99562920000031,0.0
338,-0.07074793640910874,0.029208691599280117,124.98262798731707,0.0
339,-0.07151006017977542,0.028406798836262712,124.96116572117568,0.0
340,-0.07260117971658647,0.027298308124211256,124.93141501486059,0.0
341,-0.07397398091381575,0.025949630539153376,124.8935515074004,0.0
342,-0.07555861980226741,0.024453565519250924,124.84775363708505,0.0
343,-0.0772694533532298,0.022911749743494435,124.79420241725806,0.0
344,-0.07901544731681827,0.021412070202904324,124.73308121480518,0.0
345,-0.08071554563382005,0.02000424345765949,124.66457553173827,0.0
346,-0.08231936386717156,0.01867780601188586,124.58887279025105,0.0
347,-0.08383136527744685,0.017347370600085784,124.5061621215993,0.0
348,-0.08533364616389491,0.015849836775469126,124.41663415913581,0.0
349,-0.08699964226702395,0.013957024160775162,124.32048083580548,0.0
350,-0.08908989711304852,0.011404842451716635,124.21789518638383,0.0
351,-0.09192283159157506,0.007936846852026634,124.1090711547172,0.0
352,-0.09581878762686916,0.00335641306756206,123.99420340620085,0.0
353,-0.10102372236799953,-0.00242136783532456,123.87348714570696,0.0
354,-0.10762757401782076,-0.00932871109772436,123.74711794115262,0.0
355,-0.11549836186721425,-0.017125305602711374,123.61529155287545,0.0
356,-0.12425360261829302,-0.025406987544784293,123.47820376896185,0.0
357,-0.13328422798797934,-0.03364524061186875,123.33605024665326,0.0
358,-0.14183386677186377,-0.04125354653179018,123.18902635993355,0.0
359,-0.14912141528591022,-0.0476704341409367,123.03732705338196,0.0
360,-0.15448178382071046,-0.05244453157112157,122.88114670235639,0.0
361,-0.15749268216994974,-0.055305261774765614,122.72067897955327,0.0
362,-0.1580566570071097,-0.056204660878855804,122.55611672797339,0.0
363,-0.15641733811485348,-0.05532093684673714,122.38765184030535,0.0
364,-0.15310467322143784,-0.053021801173471036,122.21547514472344,0.0
365,-0.14882158506680604,-0.04979369676082657,122.039776297081,0.0
366,-0.14429876841205208,-0.04615002279229201,121.86074367946684,0.0
367,-0.14015084371099892,-0.042535789719705466,121.6785643050786,0.0
368,-0.13676412538854277,-0.039246909505147184,121.49342372935489,0.0
369,-0.13423581763556294,-0.03637942871912063,121.305505967297,0.0
370,-0.13237107961705716,-0.03381811838054355,121.11499341689948,0.0
371,-0.13073277957101917,-0.03126619860425952,120.92206678860063,0.0
372,-0.12873143408006446,-0.028310130461443504,120.7269050406539,0.0
373,-0.1257395803220249,-0.02450684868930185,120.52968532031447,0.0
374,-0.12121369367876247,-0.01947673839787283,120.33058291072682,0.0
375,-0.11480587960577568,-0.012984803338993356,120.12977118339458,0.0
376,-0.10644668953593593,-0.004994982697995618,119.9274215561069,0.0
377,-0.09638125997218186,0.004312011318412752,119.7237034561916,0.0
378,-0.08514619426364461,0.014559667384665215,119.51878428896171,0.0
379,-0.0734857451727327,0.02523007091307994,119.31282941121762,0.0
380,-0.06222146730264989,0.0357398135225875,119.10600210966601,0.0
381,-0.052104673695843165,0.045521647949825494,118.89846358411278,0.0
382,-0.0436891090478267,0.05409582579593765,118.69037293528842,0.0
383,-0.03725734104945692,0.06111839399456498,118.48188715716068,0.0
384,-0.03281848416885806,0.06639984089098512,118.27316113359151,0.0
385,-0.030172547671016757,0.06989477871487215,118.06434763919422,0.0
386,-0.02901642723681691,0.07166991793382835,117.85559734424824,0.0
387,-0.029055661679188067,0.07186175512473303,117.6470588235294,1.0
388,-0.03008764889467165,0.0706362033363082,117.42785870138268,0.0
389,-0.03203432303728002,0.0681598703000421,117.18761441505568,0.0
390,-0.03492027064929226,0.06458780501899111,116.92721753750278,0.0
391,-0.03880979794485027,0.06006686983701973,116.64756849554168,0.0
392,-0.04372835819991633,0.054749147494357955,116.34957382323647,0.0
393,-0.049596916191172805,0.0488072587429188,116.03414353339454,0.0
394,-0.05620181717034711,0.04244368911211384,115.70218861554756,0.0
395,-0.06320979049528787,0.03588888608433667,115.35461866726659,0.0
396,-0.07022229700286035,0.029386975089776557,114.99233966419615,0.0
397,-0.0768508744171436,0.023172104315394265,114.61625187278659,0.0
398,-0.08278973187490893,0.017441414878255342,114.22724790837931,0.0
399,-0.0878649659448118,0.012331660873518793,113.82621094005493,0.0
400,-0.0920493047832846,0.007905441801696486,113.41401304250415,0.0
401,-0.09544285842358535,0.004150345849488934,112.99151369412486,0.0
402,-0.098229597244025,0.000990928058550564,112.55955841959296,0.0
403,-0.10062373318958552,-0.0016896489855159763,112.11897757429837,0.0
404,-0.10281979698115844,-0.004023508392433917,111.67058526728216,0.0
405,-0.1049565938717061,-0.006133225954641556,111.21517841865344,0.0
406,-0.10710033978953837,-0.008113106217959971,110.75353594690341,0.0
407,-0.1092474861674657,-0.010019453685544293,110.28641808106646,0.0
408,-0.11134363472490333,-0.011870348787680837,109.81456579229737,0.0
409,-0.1133118387371928,-0.013653280356377265,109.33870033913529,0.0
410,-0.11508196338782421,-0.01533755235538653,108.85952292050771,0.0
411,-0.11661318484259152,-0.016887924582781513,108.37771443037704,0.0
412,-0.11790428074969872,-0.018276426739004092,107.89393530785189,0.0
413,-0.11899047695602002,-0.019490416447829922,107.40882547656103,0.0
414,-0.11992997873629034,-0.02053630679451292,106.92300436711928,0.0
415,-0.12078643405895162,-0.021439537182986065,106.43707101659187,0.0
416,-0.12161432328967249,-0.02224199950193544,105.95160423898416,0.0
417,-0.12245238112440943,-0.022998165813820828,105.46716286093778,0.0
418,-0.12332641734926926,-0.023770719571618616,104.98428601700206,0.0
419,-0.12425883691002428,-0.024625851814863823,104.50349349905939,0.0
420,-0.12527935027434178,-0.025627873358647028,104.02528615471756,0.0
421,-0.12643081086809163,-0.02683266296222911,103.55014632973077,0.0
422,-0.12776594507504777,-0.028279803184004495,103.0785383497729,0.0
423,-0.12933426976405424,-0.02998394080062448,102.61090903715855,0.0
424,-0.13116245772224483,-0.031926687685879564,102.14768825838487,0.0
425,-0.13323431620221035,-0.034050935133871446,101.68928949864704,0.0
426,-0.13547720834706645,-0.036259529420328444,101.23611045976249,0.0
427,-0.13775990905714391,-0.03841973427516575,100.78853367821876,0.0
428,-0.13990340714726487,-0.04037385773773036,100.34692716033625,0.0
429,-0.14170254565625146,-0.0419550826574539,99.9116450318105,0.0
430,-0.1429538960781409,-0.04300624442965357,99.48302819916267,0.0
431,-0.14348432517507465,-0.04339838389183838,99.06140502088915,0.0
432,-0.14317502231140727,-0.043045623854698394,98.64709198634962,0.0
433,-0.14197677422222335,-0.04191338916531306,98.24039440067924,0.0
434,-0.1399136899468446,-0.04001816040650266,97.84160707424329,0.0
435,-0.13707437397897435,-0.03741861108923142,97.45101501538032,0.0
436,-0.1335917555066315,-0.034199800309622,97.0688941253965,0.0
437,-0.12961518878879952,-0.03045369373586209,96.69551189498344,0.0
438,-0.12528046711603663,-0.026260300391119006,96.33112810143236,0.0
439,-0.12068431666537004,-0.021673870944448982,95.97599550621025,0.0
440,-0.11586930075682418,-0.016717793836920725,95.63036055264939,0.0
441,-0.11082298328364264,-0.011390132945991536,95.29446406368103,0.0
442,-0.10549230026014175,-0.005679454754213123,94.96854193971512,0.0
443,-0.09981113628380146,0.0004118692903898359,94.65282585693737,0.0
444,-0.09373658890872859,0.006841808862117094,94.34754396645634,0.0
445,-0.08728741129042795,0.013506443970147795,94.05292159489333,0.0
446,-0.08057659619437159,0.02022754029442815,93.76918194716377,0.0
447,-0.07382926932152586,0.026754715661775737,93.49654681235438,0.0
448,-0.06737779479293994,0.032784308541396884,93.23523727375431,0.0
449,-0.06162922397826477,0.037993555427131405,92.98547442425375,0.0
450,-0.057006265690092414,0.042085062727242335,92.74748008848009,0.0
451,-0.05387081556525643,0.04483366796076638,92.52147755320136,0.0
452,-0.0524463820666066,0.046126408992457235,92.3076923076923,1.0
453,-0.05275949997986375,0.0459869582608962,92.09987192479917,0.0
454,-0.05461807969563984,0.04457856763797003,91.89169751016932,0.0
455,-0.057636135454797115,0.042183813350761816,91.6832953270539,0.0
456,-0.061301579318531016,0.03916428622088436,91.47478947286677,0.0
457,-0.06507104926591037,0.03590767844784142,91.26630188660288,0.0
458,-0.06846784755921467,0.03277240696332126,91.05795235959361,0.0
459,-0.07115899459818201,0.030040312880112788,90.84985854945022,0.0
460,-0.07299483847329981,0.027885999269842487,90.64213599704924,0.0
461,-0.07400627849198152,0.026367529745928677,90.43489814641644,0.0
462,-0.07436599714198058,0.025438468724381366,90.22825636736934,0.0
463,-0.07432765871067284,0.02497673748244656,90.02231998078173,0.0
464,-0.07415947911305648,0.02482250582110803,89.81719628633752,0.0
465,-0.07408662014632694,0.024816001181643073,89.61299059264489,0.0
466,-0.07425238872457961,0.02482688463497257,89.40980624958645,0.0
467,-0.07470315506182214,0.02476943298608093,89.20774468278455,0.0
468,-0.07539742586637292,0.02460152370896915,89.00690543006621,0.0
469,-0.07623584591016049,0.02430947793185623,88.80738617981622,0.0
470,-0.07710570411644997,0.023884276485021214,88.60928281111154,0.0
471,-0.07793056287471486,0.023296763020003317,88.41268943553521,0.0
472,-0.07871335943012595,0.02247970662917101,88.21769844057268,0.0
473,-0.0795608543475063,0.021322919661493356,88.0244005344979,0.0
474,-0.08067979503470765,0.019684347472347145,87.83288479266231,0.0
475,-0.08234106570765831,0.01741588753777361,87.64323870510391,0.0
476,-0.08481660107340763,0.014398635315491485,87.4555482253987,0.0
477,-0.08830284311276773,0.010579316651078769,87.26989782068254,0.0
478,-0.09285105954107675,0.005998660691315589,87.08637052277494,0.0
479,-0.09832601305412593,0.0008037537950191347,86.90504798034281,0.0
480,-0.10440864781959858,-0.0047602303718657195,86.7260105120457,0.0
481,-0.11064643603698163,-0.01037889439823625,86.54933716061007,0.0
482,-0.11654037583228848,-0.015713287762902463,86.37510574778406,0.0
483,-0.12164570237160256,-0.020451930261288637,86.20339293013006,0.0
484,-0.1256590042211966,-0.024360066756924387,86.03427425561594,0.0
485,-0.1284694766675534,-0.02731671545412574,85.8678242209717,0.0
486,-0.13016427160501803,-0.02933281102341345,85.70411632978256,0.0
487,-0.13099215594934924,-0.030547720329497072,85.54322315129386,0.0
488,-0.13130051613727828,-0.031205562650698713,85.38521637990857,0.0
489,-0.1314649084252985,-0.031616131502975375,85.2301668953621,0.0
490,-0.13182779832608643,-0.03210718620223715,85.07814482356433,0.0
491,-0.13265623323573386,-0.03297533177343922,84.92921959810292,0.0
492,-0.1341201737327594,-0.03444193287487941,84.78346002240667,0.0
493,-0.13628681170999632,-0.03661904459157225,84.64093433257256,0.0
494,-0.13912308868543125,-0.03948872413819277,84.50171026086394,0.0
495,-0.14249930586337048,-0.042897651979709295,84.36585509989293,0.0
496,-0.14619061130968486,-0.046567796277622545,84.23343576750369,0.0
497,-0.14987868448802952,-0.0501227214315534,84.10451887237818,0.0
498,-0.1531608276203397,-0.05312780464854004,83.9791707803912,0.0
499,-0.15557553741820387,-0.05514092773574419,83.85745768174486,0.0
500,-0.15665087064669542,-0.05576826353988137,83.73944565891878,0.0
501,-0.15597454143190653,-0.054717997310786304,83.62520075547617,0.0
502,-0.15327471858917002,-0.05184384420214396,83.51478904577085,0.0
503,-0.148491663507419,-0.04717066534397012,83.40827670560573,0.0
504,-0.14181699994757038,-0.04089668351872813,83.30573008389756,0.0
505,-0.13368264088371182,-0.03337059610547925,83.2072157754086,0.0
506,-0.12469507976903818,-0.025046566783983114,83.1128006946106,0.0
507,-0.11552852100638361,-0.016424537366321438,83.02255215075193,0.0
508,-0.10680487457149578,-0.007986350397443534,82.93653792420508,0.0
509,-0.09899329068379262,-0.0001389381040711353,82.85482634417588,0.0
510,-0.09235442891633248,0.006825941912579885,82.77748636786384,0.0
511,-0.08693862623702599,0.012749796761811816,82.70458766116735,0.0
512,-0.08262979761958339,0.017602582208207377,82.63620068103499,0.0
513,-0.07921511056072988,0.021458912216939297,82.57239675957092,0.0
514,-0.07645744865985789,0.024462535980249094,82.51324819000853,0.0
515,-0.07415238624305946,0.026787623072378877,82.45882831467502,0.0
516,-0.07216015371093232,0.02860462512546812,82.40921161507654,0.0
517,-0.07041191723057906,0.030056116738536455,82.36447380424185,0.0
518,-0.06889605415448091,0.03124486794701716,82.32469192147096,0.0
519,-0.06763319459132366,0.03223334124161225,82.28994442964456,0.0
520,-0.06664907757571621,0.0330515446240768,82.2603113152593,0.0
521,-0.0659526525658841,0.03370909659528462,82.23587419136392,0.0
522,-0.06552419356849823,0.03420749606940568,82.2167164035824,0.0
523,-0.06531509730024616,0.03454965927853413,82.20292313942113,0.0
524,-0.0652579566938898,0.03474531825027496,82.19458154106981,0.0
525,-0.06528289108285219,0.03481236271097017,82.19178082191782,1.0
526,-0.06533453079538576,0.03477523915570729,82.19178082191782,0.0
527,-0.06538403030796529,0.0346618851039677,82.19178082191782,0.0
528,-0.06543222040259447,0.03450039827503426,82.19178082191782,0.0
529,-0.0655031084532384,0.034315953854542655,82.19178082191782,0.0
530,-0.06563042841807583,0.03412774444782122,82.19178082191782,0.0
531,-0.06584263275506574,0.033945282269228466,82.19178082191782,0.0
532,-0.06615264332906544,0.03376350318425286,82.19178082191782,0.0
533,-0.06655743218004749,0.03355676858625632,82.19178082191782,0.0
534,-0.06704932707427487,0.03327286380439858,82.19178082191782,0.0
535,-0.06763662271468324,0.03282905581232853,82.19178082191782,0.0
536,-0.06836681542878628,0.032112759653970535,82.19178082191782,0.0
537,-0.0693429950884438,0.03098903281053796,82.19178082191782,0.0
538,-0.07072400059922805,0.029315867393035253,82.19178082191782,0.0
539,-0.07270264242664297,0.02696628998554293,82.19178082191782,0.0
540,-0.07546312624550244,0.023854102676647858,82.19178082191782,0.0
541,-0.07912678653972995,0.01995835863400157,82.19178082191782,0.0
542,-0.083701396391922,0.015340971070467802,82.19178082191782,0.0
543,-0.08905087365679334,0.010152561895630869,82.19178082191782,0.0
544,-0.0948978036521442,0.004623723207447009,82.19178082191782,0.0
545,-0.1008617558672075,-0.0009581710079022004,82.19178082191782,0.0
546,-0.10652503326295723,-0.006283362744611838,82.19178082191782,0.0
547,-0.1115085651446312,-0.011059659078586866,82.19178082191782,0.0
548,-0.11553774306495677,-0.015051166797298812,82.19178082191782,0.0
549,-0.11848220989477766,-0.01810948146384078,82.19178082191782,0.0
550,-0.12036293791338971,-0.020192752833532765,82.19178082191782,0.0
551,-0.1213303246709206,-0.021370539096327783,82.19178082191782,0.0
552,-0.12162450130071967,-0.021814866889218867,82.19178082191782,0.0
553,-0.12153141105906345,-0.02177981394806582,82.19178082191782,0.0
554,-0.12134563461780967,-0.021572903286844195,82.19178082191782,0.0
555,-0.12134527532371184,-0.021521682207795916,82.19178082191782,0.0
556,-0.12177798188668729,-0.02193839327530912,82.19178082191782,0.0
557,-0.12285263462539951,-0.023085094090801388,82.19178082191782,0.0
558,-0.12472975852851294,-0.025141343563263977,82.19178082191782,0.0
559,-0.1275055736098378,-0.0281768072548381,82.19178082191782,0.0
560,-0.13118881145708466,-0.03213170615328818,82.19178082191782,0.0
561,-0.13567436597853477,-0.03680855087646499,82.19178082191782,0.0
562,-0.14072182550899004,-0.041878564655656154,82.19178082191782,0.0
563,-0.14594876011017735,-0.04690518273860537,82.19178082191782,0.0
564,-0.1508477336127368,-0.051384865670636555,82.19178082191782,0.0
565,-0.15483228134746713,-0.05480239823467023,82.19178082191782,0.0
566,-0.15731085845918857,-0.056694463699974634,82.19178082191782,0.0
567,-0.1577798849236096,-0.056712444463132214,82.19178082191782,0.0
568,-0.15591914164039697,-0.05467400388638759,82.19178082191782,0.0
569,-0.15166738484460826,-0.05059371442876319,82.19178082191782,0.0
570,-0.14525597165051812,-0.044685997131207876,82.19178082191782,0.0
571,-0.13718553780331477,-0.037338493379406604,82.19178082191782,0.0
572,-0.12814495266698328,-0.029059691336661232,82.19178082191782,0.0
573,-0.11888907470699044,-0.02040982249220326,82.19178082191782,0.0
574,-0.11010573064197024,-0.011927404553115733,82.19178082191782,0.0
575,-0.10230653408978467,-0.0040644432925451435,82.19178082191782,0.0
576,-0.09576814783048351,0.0028589533631028854,82.19178082191782,0.0
577,-0.09053348110045517,0.008674335870340107,82.19178082191782,0.0
578,-0.0864633073156717,0.013358444794991996,82.19178082191782,0.0
579,-0.08331540323191734,0.017005160519784318,82.19178082191782,0.0
580,-0.08082477608090907,0.019784190400887317,82.19178082191782,0.0
581,-0.07876437607350796,0.02189622841706538,82.19178082191782,0.0
582,-0.07697675086811812,0.02353346434412487,82.19178082191782,0.0
583,-0.07537813046152944,0.02485173989835746,82.19178082191782,0.0
584,-0.07394356952734066,0.02595721996420067,82.19178082191782,0.0
585,-0.07268381179107393,0.026907065537258863,82.19178082191782,0.0
586,-0.07162259965392136,0.027720948636436676,82.19178082191782,0.0
587,-0.07077938257265294,0.02839869805544754,82.19178082191782,0.0
588,-0.07015871737146832,0.02893894889668714,82.19178082191782,0.0
589,-0.06974525302454855,0.02935420452342983,82.19178082191782,0.0
590,-0.06950241204819338,0.029678923680724344,82.19178082191782,0.0
591,-0.0693734882254978,0.029968838079011784,82.19178082191782,0.0
592,-0.06928525396017608,0.03029145978944885,82.19178082191782,0.0
593,-0.06915550140817495,0.030709473932779202,82.19178082191782,0.0
594,-0.0689064296829041,0.03126025826637154,82.19178082191782,0.0
595,-0.06848482378157474,0.03193592199165311,82.19178082191782,0.0
596,-0.06788735836510516,0.03266876498778692,82.19178082191782,0.0
597,-0.06718563597648401,0.03332668282383412,82.19178082191782,0.0
598,-0.06654214498491884,0.03372163533844098,82.19178082191782,1.0
599,-0.06620714849503417,0.03363191589296634,82.21553462021352,0.0
600,-0.06648922835476909,0.03283594647572424,82.28566564731766,0.0
601,-0.06769914158749572,0.031152301558838816,82.4005872064164,0.0
602,-0.07007623255801643,0.028478416363613715,82.55884335435887,0.0
603,-0.07371557303881496,0.02481970043281715,82.75909223690768,0.0
604,-0.07851825901340098,0.02030199273710663,83.00009078085567,0.0
605,-0.0841838863920696,0.015163395913335013,83.28068051219098,0.0
606,-0.0902529634361413,0.009725886088059604,83.59977430001982,0.0
607,-0.09619129116700782,0.00435164299453035,83.95634385161624,0.0
608,-0.10149412602865585,-0.0006074312482015464,84.3494078057069,0.0
609,-0.10578110330447767,-0.004857024294745752,84.77802028969634,0.0
610,-0.10885627055683436,-0.008195513748295804,85.24125982265285,0.0
611,-0.11071956176043993,-0.010530935966815608,85.7382184600615,0.0
612,-0.11153165176468367,-0.011878325876595722,86.26799108909256,0.0
613,-0.11154757610642704,-0.012340417841891802,86.82966479485194,0.0
614,-0.11104161389328748,-0.012078057695701071,87.42230822915464,0.0
615,-0.11024533320706886,-0.011278108058114522,88.04496092413588,0.0
616,-0.10931366180932797,-0.010125936954038982,88.69662250380573,0.0
617,-0.10832337212834595,-0.008787182286878154,89.37624175776018,0.0
618,-0.10729802399411952,-0.007400238625847858,90.08270555296322,0.0
619,-0.10624625705054942,-0.006077819785556186,90.81482757207877,0.0
620,-0.10519813712604802,-0.004913849919054465,91.57133688050247,0.0
621,-0.10422710132903418,-0.003991276325820071,92.35086633925671,0.0
622,-0.10345138718248327,-0.0033871512140703558,93.15194089746478,0.0
623,-0.10301620725965704,-0.003173057996435022,93.97296581639239,0.0
624,-0.10306388771730662,-0.003410989818592173,94.81221489715784,0.0
625,-0.10370210225606567,-0.004146450352358705,95.66781880624659,0.0
626,-0.10497979441613979,-0.005401365254276104,96.53775361691547,0.0
627,-0.10687709015761052,-0.007169212142294743,97.41982971035317,0.0
628,-0.10931081416156002,-0.009413773644272044,98.31168120786867,0.0
629,-0.1121526163351102,-0.012071512483235613,99.2107561340745,0.0
630,-0.11525340394792599,-0.015056274848088524,100.11430754052067,0.0
631,-0.11846651215656939,-0.01826429482299806,101.01938584883587,0.0
632,-0.12166303502332265,-0.021577545376610552,101.92283270126623,0.0
633,-0.12473559888964837,-0.02486434297809623,102.8212766334608,0.0
634,-0.12759068074625168,-0.027977494558774785,103.71113090810256,0.0
635,-0.13013316069407327,-0.03075173874816307,104.58859386695806,0.0
636,-0.13224909844664526,-0.03300329418977763,105.44965217133648,0.0
637,-0.13379326037134398,-0.03453459022396398,106.29008730484445,0.0
638,-0.1345869104001025,-0.035146520544599213,107.10548570561153,0.0
639,-0.13442939970178042,-0.034658889300841225,107.8912528757026,0.0
640,-0.1331245764012531,-0.03293743503801966,108.64263178116427,0.0
641,-0.13052000652582565,-0.029923450876679032,109.35472580520172,0.0
642,-0.1265533420383132,-0.025660197525162822,110.02252644785297,0.0
643,-0.12129627722795736,-0.020309609989397705,110.64094587726964,0.0
644,-0.11498367940065864,-0.014153605643347528,111.20485433013374,0.0
645,-0.10801552541808557,-0.007576649764107351,111.70912223258671,0.0
646,-0.10092365968388749,-0.0010297605484602367,112.14866677020322,0.0
647,-0.0943039733820971,0.005019891019213043,112.51850247915272,0.0
648,-0.08872514076028244,0.010146153553136441,112.81379526525632,0.0
649,-0.08463376626428398,0.014018140620898858,113.02991908900059,0.0
650,-0.08227900994434546,0.016441817306211446,113.16251438978385,0.0
651,-0.08167569170299376,0.01738132544523216,113.20754716981132,1.0
652,-0.0826146413265632,0.016956302499397325,113.17751979170525,0.0
653,-0.08471620310364125,0.015416141910363175,113.08828480187881,0.0
654,-0.08751171065322193,0.013096561885158507,112.94124653780007,0.0
655,-0.09053186651498643,0.010366977041133572,112.73797633785024,0.0
656,-0.09338162428038509,0.007578349809083078,112.48019786760638,0.0
657,-0.09578739345349184,0.005020301439903411,112.16977176541775,0.0
658,-0.09761152776019352,0.0028936657557342427,111.80867982450941,0.0
659,-0.09883794137094543,0.0013011178698103722,111.39900892311114,0.0
660,-0.09953872738327944,0.00025488244462888417,110.94293490454812,0.0
661,-0.09983358610606971,-0.00030240741137974644,110.44270659637908,0.0
662,-0.09985208955308993,-0.00046937741282319836,109.90063014211297,0.0
663,-0.09970496345984879,-0.00035620094903914944,109.319053801395,0.0
664,-0.09946664540430701,-5.886171712074029e-05,108.70035335543773,0.0
665,-0.09916866859627699,0.0003587924425788522,108.04691823447655,0.0
666,-0.09880208476603393,0.0008732733177779888,107.36113846370786,0.0
667,-0.09832660971227321,0.0014998652318238192,106.64539250402065,0.0
668,-0.0976839210418477,0.002282659603151373,105.90203604430098,0.0
669,-0.09681247606017186,0.0032787038200563926,105.13339178354026,0.0
670,-0.09566154985172781,0.004539337964612798,104.34174022371022,0.0
671,-0.09420300269133164,0.006091952789508211,103.52931147860737,0.0
672,-0.0924403043500938,0.007925223967310779,102.6982780897701,0.0
673,-0.09041502901992506,0.00998042430005527,101.85074882822748,0.0
674,-0.08821088884961736,0.012150709736236824,100.98876345028651,0.0
675,-0.08595433434465637,0.014289307693821073,100.11428836678343,0.0
676,-0.08380941849260204,0.01622630557772784,99.22921317816517,0.0
677,-0.08196406992808083,0.017792302757308125,98.33534802233486,0.0
678,-0.08060607896717902,0.018845715212516347,97.43442167827325,0.0
679,-0.07989011662556487,0.019299286725808704,96.52808036590712,0.0
680,-0.0799011321007493,0.019140710832760317,95.6178871813839,0.0
681,-0.08062298861258942,0.01844252446257904,94.70532210668422,0.0
682,-0.0819226070648576,0.017357772172179764,93.79178253320161,0.0
683,-0.08355809363977373,0.016100285654578078,92.87858424040198,0.0
684,-0.08521416895448528,0.014911413090205992,91.96696277279243,0.0
685,-0.08656074772402673,0.014018059647744502,91.05807516105781,0.0
686,-0.08732296494905621,0.013589247863802705,90.15300193623452,0.0
687,-0.08734608324224011,0.013699439138761316,89.2527493890803,0.0
688,-0.08663869638770462,0.014306207136349348,88.35825203026613,0.0
689,-0.0853828173893369,0.015247542440182619,87.4703752105805,0.0
690,-0.08390801243779689,0.01626052204742054,86.58991786392268,0.0
691,-0.0826356379014303,0.017019028418665975,85.71761533941137,0.0
692,-0.08200561452872689,0.017184504251488382,84.85414229240023,0.0
693,-0.0824006022066928,0.016461149570707184,84.00011560752962,0.0
694,-0.0840811433764133,0.014646019985568064,83.15609733012792,0.0
695,-0.08714166187721464,0.011665331553161813,82.32259758528184,0.0
696,-0.09149275648141338,0.007590723661792905,81.50007746670813,0.0
697,-0.09687118215940875,0.002632789237678553,80.68895188017046,0.0
698,-0.10287561183216644,-0.0028868203676711748,79.88959232859021,0.0
699,-0.10902337592418544,-0.00857970230430831,79.10232962819907,0.0
700,-0.11482041050636085,-0.014043663964762112,78.32745654707756,0.0
701,-0.11983363453044338,-0.018915300827160076,77.56523035922342,0.0
702,-0.12375280255595021,-0.022913567616835315,76.81587530890525,0.0
703,-0.1264290648193244,-0.02586774635302183,76.07958498148966,0.0
704,-0.12788134995097644,-0.02772643395976525,75.35652457819538,0.0
705,-0.12826928144806288,-0.028547900738007052,74.64683309333611,0.0
706,-0.1278406188954523,-0.028475601577111383,73.95062539357833,0.0
707,-0.12686859487404717,-0.02770501631842804,73.26799419957152,0.0
708,-0.12559664526992015,-0.02644887928936045,72.59901197101857,0.0
709,-0.12420383890356189,-0.02490714725726966,71.94373269685495,0.0
710,-0.1227958129244614,-0.023246071408887944,71.30219359270713,0.0
711,-0.12141713181384012,-0.02158809870396501,70.67441670821486,0.0
712,-0.1200752805479907,-0.020011747061897876,70.060410447137,0.0
713,-0.11876547982342063,-0.01855868363267968,69.46017100342638,0.0
714,-0.11748837859616836,-0.017244330064568974,68.87368371666533,0.0
715,-0.11625732310882045,-0.016068452585664035,68.30092435040503,0.0
716,-0.11509616650954824,-0.015023130760791351,67.74186029705892,0.0
717,-0.11403113610852021,-0.014096848791393463,67.19645171306767,0.0
718,-0.11308085663012675,-0.013274810873908175,66.6646525880881,0.0
719,-0.11224781092111724,-0.012536629607733451,66.14641175196354,0.0
720,-0.11151320196872526,-0.01185310065232318,65.64167382321848,0.0
721,-0.11083605995968046,-0.011183833446843205,65.15038010278313,0.0
722,-0.11015672078990472,-0.010477147523046224,64.67246941660486,0.0
723,-0.10940426319827955,-0.00967302125298047,64.2078789107417,0.0
724,-0.10850682352430938,-0.008709162043743737,63.7565448024631,0.0
725,-0.10740290773873411,-0.007529594605283751,63.31840309080821,0.0
726,-0.10605131783656689,-0.006094628597618129,62.89339022997372,0.0
727,-0.1044376692826605,-0.004390708331449207,62.481443768823205,0.0
728,-0.10257685758634084,-0.0024384681507778234,62.082502959732224,0.0
729,-0.10051263339238276,-0.00029731183276437284,61.6965093399067,0.0
730,-0.09831650831271505,0.001934983196290584,61.32340728824054,0.0
731,-0.09608755849603162,0.004128719565632287,60.96314456071205,0.0
732,-0.09395231640942935,0.00613516333741989,60.61567280725861,0.0
733,-0.0920610847157796,0.007805198412536175,60.28094807301736,0.0
734,-0.0905756146600673,0.00901181850433364,59.958931286776526,0.0
735,-0.08964472055658143,0.009673223706382695,59.64958873944887,0.0
736,-0.08936918951867774,0.00977231846789995,59.35289255535668,0.0
737,-0.08976363825961206,0.009368171013888009,59.06882115910739,0.0
738,-0.09072786595168826,0.008595801762126529,58.79735974084184,0.0
739,-0.09204089378291197,0.007652583519054265,58.53850072265432,0.0
740,-0.09338592045328517,0.006772276880755747,58.29224422901462,0.0
741,-0.09440494845036428,0.006190676277007552,58.05859856407247,0.0
742,-0.09477120555220335,0.006109203936168407,57.83758069878958,0.0
743,-0.09425999076784401,0.006663811549908243,57.629216770930995,0.0
744,-0.09279748750194422,0.007905792143291847,57.43354260105382,0.0
745,-0.09047309294601218,0.009798614253206233,57.2506042277612,0.0
746,-0.08751171439405567,0.0122312291604405,57.08045846564306,0.0
747,-0.08421433114779539,0.015044406525560043,56.923173489508514,0.0
748,-0.08088400549137666,0.018063567774935303,56.77882944872526,0.0
749,-0.077757989431785,0.0211301511109188,56.64751911572797,0.0
750,-0.07496407861169464,0.02412414616123079,56.52934857303897,0.0
751,-0.07251199373883406,0.02697290414206766,56.424437943468526,0.0
752,-0.0703204684142885,0.02964497618193741,56.33292216852985,0.0
753,-0.0682706095903115,0.032131568768987054,56.254951840525095,0.0
754,-0.0662687833128572,0.03442122524795525,56.19069409423432,0.0
755,-0.06429999583304356,0.036474807282954644,56.14033356468195,0.0
756,-0.06245632806581357,0.038207483440880215,56.104073418068175,0.0
757,-0.0609333164593405,0.0394824675485754,56.08213646364946,0.0
758,-0.059997334869430055,0.04011832564575253,56.074766355140184,1.0
759,-0.05993536840083662,0.03990860913591688,56.08819056177848,0.0
760,-0.061002243195123436,0.038650121199026506,56.127970384135146,0.0
761,-0.06337856197724752,0.0361747513079099,56.193419132838926,0.0
762,-0.06714668790069203,0.032379615127412276,56.28391490339032,0.0
763,-0.07228491312388619,0.027250983168847616,56.39889453027371,0.0
764,-0.07867434687616973,0.02087876020199188,56.53784805229484,0.0
765,-0.08611095860977486,0.013459680796294763,56.70031361576655,0.0
766,-0.09431694430626376,0.005288655164868662,56.88587275069458,0.0
767,-0.10294995614632867,-0.0032612229703391574,57.09414596231074,0.0
768,-0.11161356810196671,-0.011768511463373564,57.32478858637546,0.0
769,-0.1198752785633284,-0.01980058365853228,57.57748686180278,0.0
770,-0.12729767854926624,-0.026954521297179124,57.85195417849722,0.0
771,-0.1334838334506605,-0.03289713164559454,58.147927461959966,0.0
772,-0.13813091005651748,-0.03739886962373363,58.465163659325285,0.0
773,-0.14107961968828003,-0.040356582067418066,58.80343629412367,0.0
774,-0.14234451513184726,-0.04180112508844578,59.162532059310784,0.0
775,-0.14211359557431216,-0.04188802400053289,59.542247420026335,0.0
776,-0.14071431611658375,-0.040872117409642174,59.94238519921616,0.0
777,-0.1385535103380991,-0.03906996663114872,60.36275112072427,0.0
778,-0.1360464428541293,-0.0368160449703304,60.80315028579478,0.0
779,-0.13355217074187448,-0.03441979683299834,61.26338356017108,0.0
780,-0.13132852537983136,-0.032130314603320206,61.74324385019311,0.0
781,-0.1295128302891443,-0.030113724287804903,62.242512247528005,0.0
782,-0.12812723287775382,-0.028445815621562277,62.7609540234787,0.0
783,-0.12710254403799295,-0.027119592392110117,63.29831445525607,0.0
784,-0.1263123905636092,-0.026064856302368343,63.85431446823312,0.0
785,-0.12560972654112923,-0.025175139669263956,64.42864608008752,0.0
786,-0.12485936213340484,-0.02433651793621145,65.02096763494731,0.0
787,-0.12396232854072457,-0.023453081089354233,65.63089881825628,0.0
788,-0.12287004876367184,-0.022464953478463112,66.25801544614194,0.0
789,-0.1215880693052528,-0.021356435772947574,66.90184402668118,0.0
790,-0.12017032557427476,-0.020153767512698765,67.56185609469232,0.0
791,-0.11870555793717501,-0.018913854379679823,68.23746232662297,0.0
792,-0.11729782192214405,-0.01770680190112217,68.92800644782703,0.0
793,-0.11604347379052331,-0.016596046598671164,69.6327589511116,0.0
794,-0.1150078458228812,-0.015620154294570046,70.35091065295434,0.0
795,-0.11420584737708243,-0.014779927836136672,71.08156612230489,0.0
796,-0.11359121079138566,-0.01403339573847856,71.82373702643373,0.0
797,-0.11305822205972456,-0.013299708497343226,72.57633544890373,0.0
798,-0.11245723387078718,-0.012471218645536667,73.33816724640374,0.0
799,-0.11162162667633019,-0.011431396081010093,74.10792552386269,0.0
800,-0.11040041974246748,-0.010075064830128155,74.88418432086337,0.0
801,-0.10868877733797878,-0.008326996614215827,75.66539261675857,0.0
802,-0.10644899953615164,-0.006155267481966544,76.4498687768459,0.0
803,-0.1037171495571527,-0.003576897971622978,77.23579557719893,0.0
804,-0.10059434073545591,-0.0006549030399918276,78.02121596090896,0.0
805,-0.09722555107814565,0.002512388818593357,78.8040296931016,0.0
806,-0.0937715002246496,0.0058074115667596255,79.58199109558846,0.0
807,-0.09038011369361088,0.009111586154577873,80.35270805373358,0.0
808,-0.08716355251297474,0.012322261915083253,81.11364249728692,0.0
809,-0.08418508117749647,0.015365466239144233,81.86211256270668,0.0
810,-0.08145752116902777,0.018202607174524824,82.59529664592486,0.0
811,-0.07895211266313369,0.02083057577203367,83.31023955062055,0.0
812,-0.0766140219408604,0.023275941175406843,84.00386092685757,0.0
813,-0.07437942457896425,0.025584871696047996,84.6729661774481,0.0
814,-0.07218968110658014,0.027810910164673852,85.31425998374995,0.0
815,-0.07000036430892592,0.030002770018839223,85.92436256807193,0.0
816,-0.06778563930305999,0.03219399157193484,86.49982876597196,0.0
817,-0.06554025766777861,0.034395748675981094,87.03716992831835,0.0
818,-0.06328132786631509,0.036593462679463375,87.53287861028791,0.0
819,-0.06105037329545106,0.03874726055624443,87.98345593320343,0.0
820,-0.058914239455447076,0.04079576026711569,88.38544142652606,0.0
821,-0.0569625093606044,0.042662210187913364,88.7354450732483,0.0
822,-0.055299871823458135,0.04426169009185222,89.03018119481433,0.0
823,-0.05403402048677586,0.04550795934432263,89.26650372452146,0.0
824,-0.05326206294618123,0.046318680592435595,89.44144233462757,0.0
825,-0.053059802397290565,0.0466181889051371,89.55223880597015,1.0
826,-0.053477753684641284,0.0463376769738415,89.6296731542648,0.0
827,-0.05454540608063628,0.045413490786627195,89.70623633590785,0.0
828,-0.05628200241547274,0.043784962866504455,89.78191727983652,0.0
829,-0.05870934443786094,0.04139361513487197,89.85670491588048,0.0
830,-0.06186097485724753,0.038185459300552206,89.93058817664088,0.0
831,-0.06578295905369311,0.034117453702903464,90.00355599939377,0.0
832,-0.0705240841260031,0.029168048339397422,90.07559732801786,0.0
833,-0.07611672847917088,0.023350420283363017,90.14670111494586,0.0
834,-0.08255277691200215,0.01672581449769878,90.21685632313944,0.0
835,-0.08976076246587293,0.009413703124696261,90.28605192808708,0.0
836,-0.09759047799636326,0.0015955071910687558,90.35427691982485,0.0
837,-0.10580987463384678,-0.006490530484107519,90.42152030497934,0.0
838,-0.11411677393834954,-0.014564188774702207,90.48777110883225,0.0
839,-0.1221652793860564,-0.022326748282527682,90.55301837740679,0.0
840,-0.1296039933071863,-0.02949009259968892,90.61725117957452,0.0
841,-0.13612037157150012,-0.035806939601870855,90.68045860918313,0.0
842,-0.1414832326862121,-0.04109707253656642,90.74262978720373,0.0
843,-0.14557443955390714,-0.04526485011292061,90.80375386389785,0.0
844,-0.148401980833082,-0.048304713370644715,90.86382002100322,0.0
845,-0.15009037320299576,-0.05029360958942187,90.92281747393787,0.0
846,-0.15084972300183686,-0.051371756249163535,90.98073547402205,0.0
847,-0.1509302772448346,-0.051715413885143634,91.03756331071732,0.0
848,-0.15057301554750352,-0.05150681312966888,91.09329031388201,0.0
849,-0.14996754998425144,-0.05090675386893443,91.14790585604294,0.0
850,-0.1492261675128875,-0.05003459527770121,91.20139935468215,0.0
851,-0.14837819890679874,-0.04895859895131862,91.25376027453828,0.0
852,-0.1473835726802363,-0.04769730910948153,91.30497812992208,0.0
853,-0.14615994261170162,-0.04623039193488728,91.3550424870449,0.0
854,-0.144615211608506,-0.04451561063198749,91.40394296635992,0.0
855,-0.14267702910003052,-0.042507724778216446,91.45166924491501,0.0
856,-0.14031274678647812,-0.0401751840254792,91.49821105871672,0.0
857,-0.1375366920748967,-0.037511416179820956,91.54355820510452,0.0
858,-0.13440536191020977,-0.03453899047159628,91.58770054513452,0.0
859,-0.13100405460486622,-0.03130658861393654,91.63062800597187,0.0
860,-0.1274297332457554,-0.02788017858086067,91.67233058329103,0.0
861,-0.1237744831609293,-0.024330796839036977,91.71279834368315,0.0
862,-0.12011241091777564,-0.020721778578066525,91.75202142706951,0.0
863,-0.11649113591871411,-0.01709813884515205,91.78999004912043,0.0
864,-0.11292785748348919,-0.0134802039944639,91.82669450367857,0.0
865,-0.10940959410730781,-0.009862677782456034,91.86212516518569,0.0
866,-0.10589739359192862,-0.0062192689597566075,91.89627249111237,0.0
867,-0.10233463692418206,-0.0025119692677887506,91.929127024389,0.0
868,-0.0986594864723342,0.0012967996076916656,91.96067939583811,0.0
869,-0.09482071289622658,0.005231522414524842,91.9909203266061,0.0
870,-0.09079462368485432,0.009292927018193137,92.01984063059403,0.0
871,-0.08659918997092522,0.013451537117573614,92.04743121688661,0.0
872,-0.08230070960725511,0.01764690565156094,92.0736830921776,0.0
873,-0.07800935728263335,0.021792906652141016,92.09858736319165,0.0
874,-0.07386293985331169,0.025788249665203676,92.12213523910086,0.0
875,-0.07000218244707952,0.029530306624936505,92.14431803393526,0.0
876,-0.06654417692585009,0.03292966067919626,92.16512716898637,0.0
877,-0.06356156282527738,0.03592266506819325,92.18455417520245,0.0
878,-0.06107299694424826,0.0384797577255467,92.20259069557474,0.0
879,-0.059046406886196334,0.040608179692970044,92.21922848751346,0.0
880,-0.057412307345999995,0.04234884909041224,92.23445942521252,0.0
881,-0.05608188912205117,0.04376817532955828,92.24827550200196,0.0
882,-0.0549644712995672,0.04494634547104799,92.26066883268693,0.0
883,-0.05398080487932189,0.04596397405249903,92.27163165587241,0.0
884,-0.05307139702293165,0.04688899872254115,92.28115633627206,0.0
885,-0.05220116157867971,0.04776543144845989,92.28923536700084,0.0
886,-0.051362469523448806,0.048605170246944725,92.29586137184968,0.0
887,-0.05057801323172903,0.04938364307124161,92.30102710754142,0.0
888,-0.04990340589610108,0.05003964240986367,92.304725465967,0.0
889,-0.04942800340627172,0.050479316043582155,92.30694947640049,0.0
890,-0.04927183914358195,0.05058388747581934,92.3076923076923,1.0
891,-0.049577148979848676,0.05022028751068097,92.30414764887266,0.0
892,-0.05049450790875271,0.04925352468850977,92.29365359680428,0.0
893,-0.0521654177007247,0.04755938185030212,92.27642225039594,0.0
894,-0.05470449413400344,0.04503598360656068,92.25266840904453,0.0
895,-0.05818472004818043,0.041612990002584685,92.22260926687842,0.0
896,-0.06262854795643556,0.03725762674609236,92.18646411456064,0.0
897,-0.06800628082349074,0.031977376143748945,92.14445404924979,0.0
898,-0.07424151922321282,0.025819775722303685,92.09680169326381,0.0
899,-0.08122182959155297,0.018870228836768026,92.04373092193771,0.0
900,-0.08881142655224764,0.011248877821171229,91.98546660111344,0.0
901,-0.09686195455144088,0.0031073619477672357,91.92223433464886,0.0
902,-0.10521788142978503,-0.005374266871383645,91.85426022228123,0.0
903,-0.11371488017782724,-0.013990896073789838,91.78177062813286,0.0
904,-0.12217260631756795,-0.022516993745854065,91.70499196009791,0.0
905,-0.13038645287330322,-0.030713799461034336,91.62415046030462,0.0
906,-0.13812468819936322,-0.03834003722317351,91.53947200680281,0.0
907,-0.14513662438799985,-0.04516630281977843,91.45118192658653,0.0
908,-0.1511739507342717,-0.05099210964135112,91.35950482002046,0.0
909,-0.15602227706966487,-0.05566339881861586,91.26466439670361,0.0
910,-0.15953532914521243,-0.05908752399748006,91.16688332276841,0.0
911,-0.16166207287152012,-0.06124262543740779,91.0663830795811,0.0
912,-0.16245823262003115,-0.06217903860352162,90.96338383378054,0.0
913,-0.16207777114386676,-0.062011816422446304,90.85810431856422,0.0
914,-0.16074547461006583,-0.0609052342145669,90.75076172610679,0.0
915,-0.15871707281446584,-0.05905181933044816,90.64157161097297,0.0
916,-0.15623678623443765,-0.05664955010350928,90.530747804368,0.0
917,-0.15350279240110554,-0.05388110675988082,90.41850233905019,0.0
918,-0.15064850877173705,-0.05089838590742822,90.30504538471621,0.0
919,-0.14774244586452762,-0.04781412517628674,90.19058519365576,0.0
920,-0.144803422630956,-0.04470082648125584,90.07532805646211,0.0
921,-0.14182344933514174,-0.04159567079496776,89.95947826757671,0.0
922,-0.1387893436565736,-0.03850915144059218,89.84323810043871,0.0
923,-0.13569643289765948,-0.035434890959929494,89.72680779200667,0.0
924,-0.13255214717977204,-0.032358498101242,89.61038553641622,0.0
925,-0.12937170178299823,-0.029264137348740272,89.49416748753711,0.0
926,-0.12617051359667814,-0.026138415097646653,89.37834777019374,0.0
927,-0.12295785294471406,-0.022971955351261175,89.26311849981566,0.0
928,-0.1197342296611153,-0.01975947411339886,89.1486698102886,0.0
929,-0.11649261191718352,-0.016499232230499816,89.03518988978234,0.0
930,-0.11322202739332689,-0.013192531795276824,88.9228650243381,0.0
931,-0.10991182418655689,-0.009843563641895068,88.81187964900667,0.0
932,-0.10655547909813354,-0.006459561192507318,88.70241640633829,0.0
933,-0.1031535803596186,-0.0030509819637512363,88.59465621203451,0.0
934,-0.09971591107222387,0.00036862013656258075,88.48877832758636,0.0
935,-0.09626234390271168,0.0037832520239343206,88.3849604397334,0.0
936,-0.09282190196741588,0.0071756489854248665,88.28337874659401,0.0
937,-0.08942935994893628,0.01052865970664556,88.18420805033101,0.0
938,-0.08611944450478107,0.0138263537309849,88.08762185623289,0.0
939,-0.082919890530474,0.01705432139416889,87.99379247810741,0.0
940,-0.0798457453264841,0.020198822908330794,87.90289114990199,0.0
941,-0.07689765692148476,0.02324483580909178,87.81508814348352,0.0
942,-0.07406594548409866,0.026173550346077667,87.73055289252973,0.0
943,-0.07134011684859043,0.02896030476886184,87.64945412250425,0.0
944,-0.06872087467904259,0.0315741485468163,87.57195998670862,0.0
945,-0.06622979006245179,0.033980026832222544,87.49823820842612,0.0
946,-0.06391167510045724,0.036143958531834455,87.42845622919556,0.0
947,-0.06182679351785921,0.03804064459888732,87.36278136327681,0.0
948,-0.06003374645045992,0.03966194007730674,87.30138095839409,0.0
949,-0.0585677897522913,0.041023873208019986,87.24442256286993,0.0
950,-0.05742185661053023,0.04216969092264219,87.19207409928875,0.0
951,-0.056537589655283195,0.04316691593134381,87.14450404485763,0.0
952,-0.05581112687321604,0.04409758078321698,87.10188161866127,0.0
953,-0.0551140991726129,0.045042414797474076,87.06437697603887,0.0
954,-0.05432571490815025,0.04606140569932251,87.03216141034338,0.0
955,-0.05336837468061653,0.047174400491813484,87.005407562377,0.0
956,-0.052237964622644815,0.048345891151704345,86.98428963783357,0.0
957,-0.05102108559953013,0.04947767477684492,86.96898363311514,0.0
958,-0.04989454149295801,0.05041174402992216,86.95966756993124,0.0
959,-0.0491064946004602,0.050943832857893376,86.95652173913044,1.0
960,-0.048942717617484054,0.05084594516541299,86.95818944732208,0.0
961,-0.049684421596122894,0.04989440240966726,86.96312590323653,0.0
962,-0.051565663104496375,0.0478988577638904,86.97123162278992,0.0
963,-0.0547381597595349,0.044727569668650505,86.98240775503459,0.0
964,-0.05924962924538702,0.040325018769244984,86.99655601089847,0.0
965,-0.06503891424756102,0.034719487706799626,87.01357859445658,0.0
966,-0.07194772071250968,0.02802014062240228,87.03337813666529,0.0
967,-0.0797454394969424,0.02040500534610404,87.05585763149703,0.0
968,-0.0881609707940849,0.012102676433703809,87.08092037441875,0.0
969,-0.09691440025979349,0.0033712494576223825,87.10846990316439,0.0
970,-0.10574215239761361,-0.005522117431626304,87.13840994075666,0.0
971,-0.11441169680741302,-0.014318423178898126,87.17064434073944,0.0
972,-0.12272526912923673,-0.022779451614230166,87.20507703458725,0.0
973,-0.13051532422538248,-0.030695712165932747,87.24161198126299,0.0
974,-0.13763654064291805,-0.03789060340494477,87.2801531189009,0.0
975,-0.14395951304262364,-0.044222220338674074,87.32060431859509,0.0
976,-0.14936978448227706,-0.04958418565233023,87.36286934027933,0.0
977,-0.1537731961334608,-0.053906400155634235,87.40685179068774,0.0
978,-0.1571057086433365,-0.05715590373199199,87.4524550833898,0.0
979,-0.15934394579528685,-0.05933737912109592,87.49958240089738,0.0
980,-0.16051236667211488,-0.06049243626737045,87.5481366588447,0.0
981,-0.1606841197493543,-0.060696797898862585,87.59802047224578,0.0
982,-0.15997460359310292,-0.06005485173449468,87.64913612383752,0.0
983,-0.15852872867797024,-0.05869161537051847,87.70138553451866,0.0
984,-0.15650430415675706,-0.056742789669417794,87.75467023589935,0.0
985,-0.15405471810616186,-0.054344068738361055,87.80889134497701,0.0
986,-0.15131416493613709,-0.05162109672029061,87.8639495409581,0.0
987,-0.14838806505364416,-0.048681367470591326,87.91974504424712,0.0
988,-0.1453499871811063,-0.045608997471932644,87.9761775976263,0.0
989,-0.14224456724951742,-0.04246277820216014,88.03314644965154,0.0
990,-0.13909426196041882,-0.039277372315854917,88.0905503402921,0.0
991,-0.13590704212422544,-0.036067081215921795,88.14828748884273,0.0
992,-0.1326826848745749,-0.032831350326086244,88.20625558413846,0.0
993,-0.1294168036622498,-0.02956109904522568,88.26435177710353,0.0
994,-0.12610325556018087,-0.026245020872790327,88.32247267566665,0.0
995,-0.12273624637082808,-0.022875131367240443,88.38051434207556,0.0
996,-0.11931310027645473,-0.01945099534938463,88.4383722926445,0.0
997,-0.1158377221267631,-0.01598221945679526,88.4959414999681,0.0
998,-0.11232390961713312,-0.012488962230985237,88.55311639763532,0.0
999,-0.10879726015868091,-0.009000415712795976,88.6097908874772,0.0
1000,-0.10529451688683146,-0.005551464370161395,88.66585834938084,0.0
1001,-0.10185973331888695,-0.002178014469929766,88.72121165370221,0.0
1002,-0.09853752714109877,0.001088239366661574,88.77574317630847,0.0
1003,-0.0953647604925238,0.00422465667483125,88.82934481627986,0.0
1004,-0.09236281766264302,0.007221122024804705,88.88190801629918,0.0
1005,-0.0895327434754432,0.010081342771921823,88.9333237857553,0.0
1006,-0.08685466825921831,0.01282155431396691,88.98348272658458,0.0
1007,-0.08429161986341291,0.015466738367508406,89.03227506187217,0.0
1008,-0.0817968099975974,0.018045019806373717,89.07959066723184,0.0
1009,-0.07932318559298836,0.020581371195397047,89.12531910498043,0.0
1010,-0.07683402707897337,0.02309199607911742,89.16934966111924,0.0
1011,-0.07431290931743234,0.025580694543453558,89.2115713851311,0.0
1012,-0.07177037616865907,0.028038114457019245,89.25187313259842,0.0
1013,-0.06924422008954022,0.030444119318603705,89.29014361064232,0.0
1014,-0.06679148984021306,0.032772704098595305,89.32627142617916,0.0
1015,-0.06447338057632863,0.034998170149857726,89.3601451369855,0.0
1016,-0.06233761556634699,0.03710084383143204,89.39165330555748,0.0
1017,-0.06040479352742889,0.039070644427586315,89.42068455574557,0.0
1018,-0.05866418024736602,0.04090730635665728,89.44712763213872,0.0
1019,-0.05708090346547577,0.042616922532724456,89.4708714621675,0.0
1020,-0.05561218855910964,0.044205464510005864,89.49180522088841,0.0
1021,-0.054227182176741176,0.045670768778205396,89.50981839840549,0.0
1022,-0.05292422081382381,0.046994920484967805,89.52480086987852,0.0
1023,-0.05174092026945443,0.04813889917286609,89.53664296806029,0.0
1024,-0.05075506018814584,0.049040811046307316,89.54523555829772,0.0
1025,-0.050076734446947734,0.04961818741770138,89.55047011592525,0.0
1026,-0.049834031665457634,0.04977392339565217,89.55223880597015,1.0
1027,-0.0501555790705433,0.04940470908615477,89.55166287222085,0.0
1028,-0.05115374600639131,0.048410443528053355,89.54995224172009,0.0
1029,-0.052912048714205906,0.04670318131830149,89.54713273234594,0.0
1030,-0.05547907681915239,0.044214579703167084,89.54323023916928,0.0
1031,-0.05886916150428679,0.04090142392983652,89.5382707281289,0.0
1032,-0.06306774965451283,0.03674939546491039,89.53228022984399,0.0
1033,-0.06803806802105297,0.031775613858300425,89.52528483356606,0.0
1034,-0.07372575327555161,0.026030511518655545,89.51731068127226,0.0
1035,-0.08005943366187068,0.01959929265221782,89.50838396190235,0.0
1036,-0.08694700339941375,0.012602703732287406,89.49853090574076,0.0
1037,-0.09426893044058393,0.005196307515394672,89.48777777894549,0.0
1038,-0.10187123893492459,-0.0024328679506422334,89.47615087822534,0.0
1039,-0.10956177093711078,-0.01007336262695371,89.4636765256669,0.0
1040,-0.11711356764927928,-0.01750052766962889,89.45038106371231,0.0
1041,-0.12427809003514391,-0.024491595538771775,89.4362908502892,0.0
1042,-0.13080831359396503,-0.030843118342015564,89.42143225409356,0.0
1043,-0.1364881997640462,-0.03638837797641534,89.40583165002656,0.0
1044,-0.14116208075764006,-0.04101187737897981,89.38951541478598,0.0
1045,-0.1447564122064362,-0.044658182732727064,89.37250992261292,0.0
1046,-0.14728768094686914,-0.04733324221019921,89.35484154119447,0.0
1047,-0.14885361165601702,-0.049097698587364264,89.33653662772242,0.0
1048,-0.14960917348585628,-0.050053314911486804,89.31762152510893,0.0
1049,-0.14973298211183764,-0.05032503926117628,89.29812255835864,0.0
1050,-0.14939234358300538,-0.050042078843642236,89.27806603109816,0.0
1051,-0.14871557347050543,-0.04932141455431713,89.25747822226249,0.0
1052,-0.14777810442245565,-0.04825645830733198,89.23638538293835,0.0
1053,-0.14660473336670335,-0.04691224733813541,89.21481373336476,0.0
1054,-0.14518536074440866,-0.045327044733306426,89.19278946009024,0.0
1055,-0.14349747418032777,-0.04351887622610346,89.17033871328645,0.0
1056,-0.14152707824655517,-0.04149470035390133,89.14748760421834,0.0
1057,-0.1392814629918776,-0.0392597303395796,89.12426220286983,0.0
1058,-0.13679132607227157,-0.0368248487249308,89.10068853572508,0.0
1059,-0.13410430888561986,-0.03421086770518999,89.07679258370477,0.0
1060,-0.131274852615238,-0.03144930843046261,89.05260028025647,0.0
1061,-0.12835536196928032,-0.028580152580800672,89.02813750959902,0.0
1062,-0.12539147005040283,-0.02564751413259319,89.00343010512,0.0
1063,-0.12242128272713655,-0.022694365529447848,88.97850384792567,0.0
1064,-0.11947643051676554,-0.019757398517366888,88.9533844655425,0.0
1065,-0.11658235980674032,-0.016862907020258385,88.92809763077004,0.0
1066,-0.11375639737984096,-0.014024329133792401,88.90266896068368,0.0
1067,-0.11100398372394125,-0.011241814034237702,88.87712401578707,0.0
1068,-0.10831517667650661,-0.008503887179566492,88.85148829931302,0.0
1069,-0.10566423674165677,-0.005790967897117652,88.8257872566722,0.0
1070,-0.10301430653312502,-0.0030801683014656557,88.80004627504877,0.0
1071,-0.10032704408325548,-0.00035053234246888373,88.7742906831421,0.0
1072,-0.09757451538538123,0.0024122563067487425,88.74854575105351,0.0
1073,-0.09474904698018163,0.005212588228116707,88.72283669031751,0.0
1074,-0.0918670623898914,0.008043649530599474,88.69718865407636,0.0
1075,-0.08896517977959119,0.010888270881715501,88.67162673739715,0.0
1076,-0.0860900307286315,0.01372153170491255,88.64617597773065,0.0
1077,-0.08328586535027988,0.01651437830548957,88.62086135551107,0.0
1078,-0.0805847647072751,0.019237383920249727,88.59570779489549,0.0
1079,-0.0780028102158882,0.02186391312948085,88.57074016464291,0.0
1080,-0.07554264355513698,0.024372282013740493,88.54598327913135,0.0
1081,-0.07320004694704764,0.02674688938630373,88.52146189951262,0.0
1082,-0.07097089814965256,0.028978582344473737,88.49720073500397,0.0
1083,-0.06885552263993683,0.031064608350222962,88.4732244443158,0.0
1084,-0.06685933871186155,0.03300837846079738,88.44955763721484,0.0
1085,-0.06499052261280899,0.03481899183314733,88.42622487622202,0.0
1086,-0.06325634439604856,0.03651017748217462,88.4032506784445,0.0
1087,-0.06165980381879142,0.0380981341000997,88.38065951754137,0.0
1088,-0.060197793698876435,0.039597796830069545,88.35847582582225,0.0
1089,-0.05886179963676499,0.04101736803174507,88.33672399647848,0.0
1090,-0.0576421776190975,0.0423514711496146,88.31542838594652,0.0
1091,-0.05653683547529322,0.043573897419352095,88.29461331640302,0.0
1092,-0.055564025023569504,0.044631433465946314,88.27430307839131,0.0
1093,-0.05477678572952846,0.04544049153235351,88.25452193357908,0.0
1094,-0.0542741815929025,0.04588806869655187,88.23529411764706,1.0
1095,-0.05420336581953368,0.045837900765112266,88.21609058553435,0.0
1096,-0.05474799961236766,0.04514166059129916,88.19638227710526,0.0
1097,-0.05610273355263133,0.0436539278061029,88.17619336898929,0.0
1098,-0.058438880247012055,0.041248750170312876,88.15554801071004,0.0
1099,-0.06187065372807754,0.03783521614090294,88.13447032216101,0.0
1100,-0.06643221141751443,0.033369708832430324,88.11298439121548,0.0
1101,-0.07207235664627687,0.0278633430321441,88.09111427147062,0.0
1102,-0.07866728086121456,0.021384222553090255,88.06888398012546,0.0
1103,-0.0860449392440679,0.014055205756929274,88.04631749599218,0.0
1104,-0.0940106937645806,0.006048477912312111,88.02343875764063,0.0
1105,-0.10236453960721667,-0.00242177838592348,88.0002716616754,0.0
1106,-0.11090510400184396,-0.011107876209497727,87.97684006114497,0.0
1107,-0.11942229687424089,-0.01973834053517145,87.95316776408269,0.0
1108,-0.1276860026188302,-0.02802954332798701,87.92927853217857,0.0
1109,-0.13544029863864007,-0.03570007344477197,87.90519607958176,0.0
1110,-0.14241070755639212,-0.042488109929405445,87.88094407183283,0.0
1111,-0.14832690396044462,-0.04817096922646638,87.85654612492526,0.0
1112,-0.15295717292613037,-0.052584702517994734,87.83202580449554,0.0
1113,-0.1561460726911444,-0.05564060015008476,87.80740662514125,0.0
1114,-0.15784485726205097,-0.05733514122755843,87.78271204986618,0.0
1115,-0.1581256969128062,-0.057750538981716434,87.75796548965207,0.0
1116,-0.15717478656277967,-0.05704452934319644,87.73319030315605,0.0
1117,-0.15526458942900492,-0.05543011067377441,87.70840979653327,0.0
1118,-0.15271034308837572,-0.05314806087294924,87.68364722338376,0.0
1119,-0.14981960830752153,-0.05043668480147639,87.65892578482278,0.0
1120,-0.14684543111561355,-0.047503941211945525,87.63426862967422,0.0
1121,-0.14395313040994223,-0.04450665833753099,87.6096988547861,0.0
1122,-0.14120766045445168,-0.04154005752562959,87.58523950546737,0.0
1123,-0.13858345531264413,-0.03863862336529196,87.56091357604555,0.0
1124,-0.1359929312072871,-0.03578702176755215,87.53674401054427,0.0
1125,-0.13332509750018112,-0.032937840944336806,87.51275370348016,0.0
1126,-0.13048349638543164,-0.030031857908784643,87.48896550077849,0.0
1127,-0.12741367032586967,-0.027016517690672832,87.46540220080666,0.0
1128,-0.12411418264204577,-0.023859268962251177,87.44208655552515,0.0
1129,-0.12063057096577677,-0.020553994303892598,87.4190412717553,0.0
1130,-0.11703673247924981,-0.01712053396142161,87.39628901256307,0.0
1131,-0.11341154120659272,-0.013598765250775552,87.37385239875879,0.0
1132,-0.10981902048979478,-0.010039545467597567,87.35175401051173,0.0
1133,-0.10629803821391329,-0.006494956789248209,87.33001638907957,0.0
1134,-0.10286314199045184,-0.003009833766086323,87.30866203865199,0.0
1135,-0.09951353967740242,0.0003842151873932019,87.28771342830797,0.0
1136,-0.09624431228452174,0.0036718511067542897,87.26719299408687,0.0
1137,-0.09305394095968661,0.006854215482035011,87.24712314117228,0.0
1138,-0.08994495954028543,0.009946656513495458,87.22752624618893,0.0
1139,-0.08691855629375407,0.012974345056257518,87.20842465961238,0.0
1140,-0.08396729810504043,0.0159661360932972,87.18984070829079,0.0
1141,-0.08107132111916356,0.018947132535523964,87.1717966980795,0.0
1142,-0.07820186040831703,0.02193069832636568,87.15431491658767,0.0
1143,-0.07533260876748517,0.02491108084108397,87.13741763603714,0.0
1144,-0.07245565295853579,0.027858158547148765,87.12112711623388,0.0
1145,-0.0695962622307551,0.03071591018733362,87.10546560765175,0.0
1146,-0.06682055992977932,0.033405844011766654,87.09045535462893,0.0
1147,-0.06423205374509078,0.03583580087707188,87.07611859867734,0.0
1148,-0.061956285755001596,0.037913387600618846,87.06247758190517,0.0
1149,-0.060116341454903174,0.039562076428141156,87.04955455055317,0.0
1150,-0.05880465504305111,0.04073705284072446,87.03737175864494,0.0
1151,-0.05805788549147589,0.04143750055480271,87.02595147175194,0.0
1152,-0.05784137580801343,0.041712347371746276,87.01531597087374,0.0
1153,-0.058047844868628656,0.041657546331242905,87.00548755643428,0.0
1154,-0.05851178132499793,0.04140453589719363,86.99648855239477,0.0
1155,-0.059037228639144984,0.04110127335011633,86.98834131048466,0.0
1156,-0.05943336559541636,0.04088877393679631,86.9810682145507,0.0
1157,-0.059550552090435006,0.04087706450639926,86.9746916850262,0.0
1158,-0.05930977686894853,0.04112465427143742,86.96923418352091,0.0
1159,-0.0587203242798191,0.04162499873488258,86.96471821753315,0.0
1160,-0.057883073574752114,0.0423021341555785,86.96116634528538,0.0
1161,-0.056979378245377015,0.043015984301473256,86.95860118068491,0.0
1162,-0.05624766156144583,0.04357615871498681,86.95704539841098,0.0
1163,-0.05595176063703978,0.0437617317398034,86.95652173913044,1.0
1164,-0.05634659912081495,0.043343781430287165,86.95706082665343,0.0
1165,-0.057647548433901234,0.04210749021762516,86.95866221564333,0.0
1166,-0.060009228403052374,0.03987129421057886,86.96130215150349,0.0
1167,-0.06351713549631281,0.036501674454695404,86.964956949422,0.0
1168,-0.06819171439023604,0.03192336022108439,86.96960298876718,0.0
1169,-0.07400048262063354,0.026125597763195594,86.9752167076231,0.0
1170,-0.08087120158380905,0.019165464334395216,86.98177459746309,0.0
1171,-0.08869916562146388,0.011168905910502005,86.98925319795954,0.0
1172,-0.09734472203380495,0.002329408218607637,86.99762909192845,0.0
1173,-0.10662211929505148,-0.0070966731544053405,87.00687890040693,0.0
1174,-0.11628576838983426,-0.016799663259644652,87.01697927786272,0.0
1175,-0.12602292791381856,-0.02643242406307276,87.027906907534,0.0
1176,-0.13546135093005646,-0.035633000137203184,87.03963849689869,0.0
1177,-0.14419648307383687,-0.04405291683387133,87.05215077327178,0.0
1178,-0.15183655171314764,-0.05138812110172068,87.06542047953022,0.0
1179,-0.1580573076933922,-0.05740801948558141,87.079424369964,0.0
1180,-0.16265343626804513,-0.06197743877281234,87.09413920625302,0.0
1181,-0.16557252183812787,-0.06506696790752244,87.10954175356893,0.0
1182,-0.1669207797329608,-0.06674903853671126,87.12560877680127,0.0
1183,-0.16693698105186058,-0.06717988313017248,87.14231703690758,0.0
1184,-0.1659399639610338,-0.06657049434735823,87.15964328738698,0.0
1185,-0.16426276945639848,-0.06515211018495123,87.17756427087687,0.0
1186,-0.16219002683563644,-0.0631429042509302,87.19605671587247,0.0
1187,-0.15991363821459606,-0.06072213258659205,87.21509733356915,0.0
1188,-0.1575160073541759,-0.0580160711743741,87.23466281482715,0.0
1189,-0.15498228984735696,-0.05509717130156852,87.25472982725921,0.0
1190,-0.15223578993655731,-0.05199472692304942,87.27527501244029,0.0
1191,-0.1491853523531506,-0.04871280138089966,87.29627498324032,0.0
1192,-0.14577122438038453,-0.045249837188627226,87.31770632127964,0.0
1193,-0.1419967092229663,-0.04161456309561573,87.33954557450743,0.0
1194,-0.13793698414245406,-0.03783439048262422,87.36176925490346,0.0
1195,-0.13372313523481624,-0.03395495613350962,87.38435383630349,0.0
1196,-0.12950719869610183,-0.030032095798779915,87.40727575234855,0.0
1197,-0.12542027756905,-0.026119585300289717,87.43051139455883,0.0
1198,-0.1215380480566963,-0.022256927021946992,87.45403711053211,0.0
1199,-0.11786495491721509,-0.01846110445421663,87.47782920226797,0.0
1200,-0.11434120369671164,-0.014724779898788582,87.50186392461764,0.0
1201,-0.11086837540642744,-0.011021377485925844,87.52611748386035,0.0
1202,-0.10734365741675844,-0.00731550854482042,87.55056603640719,0.0
1203,-0.10369141477092446,-0.003575815549699036,87.57518568763223,0.0
1204,-0.09988380136675985,0.000213144388287876,87.59995249083248,0.0
1205,-0.09594710290754693,0.004042864952215945,87.62484244631696,0.0
1206,-0.09195497244150777,0.007878402653661548,87.64983150062557,0.0
1207,-0.08801229345572611,0.01166164552546032,87.67489554587877,0.0
1208,-0.08423425175974114,0.01531919094545928,87.70001041925855,0.0
1209,-0.08072522984813921,0.018772790576518678,87.72515190262173,0.0
1210,-0.07756191139453446,0.02195005457138684,87.75029572224616,0.0
1211,-0.07478423556281551,0.02479344661459929,87.77541754871086,0.0
1212,-0.07239597886350879,0.027266361011507187,87.80049299691065,0.0
1213,-0.07037375807418143,0.02935597211406943,87.82549762620627,0.0
1214,-0.06868017235728902,0.031073297219892035,87.85040694071078,0.0
1215,-0.06727522936934996,0.03245131129513494,87.87519638971288,0.0
1216,-0.06612121990755018,0.033541934747136765,87.89984136823821,0.0
1217,-0.06517959291433521,0.03441238050111548,87.92431721774915,0.0
1218,-0.06440260719149501,0.0351409024193688,87.94859922698414,0.0
1219,-0.06372553168023157,0.035811666662816447,87.97266263293703,0.0
1220,-0.06306537871546934,0.0365084324949155,87.99648262197748,0.0
1221,-0.062329362738373785,0.037307005253838295,88.02003433111275,0.0
1222,-0.06143178685894115,0.038266897068282714,88.04329284939202,0.0
1223,-0.060314092040621464,0.03942310003552805,88.0662332194534,0.0
1224,-0.05896131360005343,0.040779145291486206,88.08883043921462,0.0
1225,-0.05740979792634554,0.04230257905127618,88.11105946370802,0.0
1226,-0.055744736512982444,0.04392364841581745,88.13289520705986,0.0
1227,-0.05408988872102817,0.045537479011450936,88.15431254461504,0.0
1228,-0.05259395689707225,0.047009513809977595,88.17528631520742,0.0
1229,-0.05141773628464052,0.04818361176486714,88.19579132357607,0.0
1230,-0.05072405943809933,0.04889204190827084,88.21580234292793,0.0
1231,-0.05067017410909319,0.04896662955273398,88.23529411764706,1.0
1232,-0.05140084029848018,0.04825043022154809,88.25427390179853,0.0
1233,-0.05304053219976449,0.04660942214131246,88.27278055325519,0.0
1234,-0.05568422921677909,0.04394374469152308,88.29083624205475,0.0
1235,-0.05938755075194163,0.04019794298923114,88.30846318954332,0.0
1236,-0.0641577711062523,0.03536953251886282,88.32568366616657,0.0
1237,-0.06994730811739162,0.029515031666759763,88.34251998936992,0.0
1238,-0.07665077596248963,0.022752498107500123,88.3589945216074,0.0
1239,-0.08410601069261649,0.015259619111145829,88.37512966846114,0.0
1240,-0.09209900706328628,0.007266604166264182,88.3909478768712,0.0
1241,-0.10037267094761262,-0.000956454449357963,88.40647163347698,0.0
1242,-0.10863962202025183,-0.009117451654885516,88.42172346307085,0.0
1243,-0.11659957949835681,-0.016924263030253517,88.43672592716419,0.0
1244,-0.1239615724327101,-0.024108887386954034,88.45150162266698,0.0
1245,-0.13046998632165613,-0.030451000281892807,88.46607318068081,0.0
1246,-0.13593151015908844,-0.03579771970595051,88.48046326540673,0.0
1247,-0.14023821411727358,-0.04007641689704066,88.49469457316752,0.0
1248,-0.14338130019487513,-0.04329804944808668,88.50878983154541,0.0
1249,-0.1454511324677671,-0.04554974809753837,88.52277179863547,0.0
1250,-0.14662176798408427,-0.04697709897371952,88.53666326241544,0.0
1251,-0.14712150874462135,-0.04775843512998508,88.55048704023172,0.0
1252,-0.14719397452296198,-0.04807510175723882,88.56426597840291,0.0
1253,-0.14705620070463798,-0.04808269895482032,88.57802295194035,0.0
1254,-0.1468611357765504,-0.04788843204496816,88.59178086438666,0.0
1255,-0.146671754933758,-0.04753878011297012,88.60556264777256,0.0
1256,-0.14645280971141666,-0.047019820338155646,88.61939126269206,0.0
1257,-0.1460837131012992,-0.046270042404172256,88.63328969849692,0.0
1258,-0.14539195814315775,-0.045202864007955666,88.64728097361017,0.0
1259,-0.1442011653194279,-0.04373391217963737,88.66138813595965,0.0
1260,-0.14238275186994248,-0.04180700918878375,88.67563426353172,0.0
1261,-0.1398974288348669,-0.039413035593288986,88.69004246504527,0.0
1262,-0.13681408884863105,-0.03659745481377247,88.7046358807471,0.0
1263,-0.13329953439301925,-0.03345493178984141,88.71943768332878,0.0
1264,-0.1295812719878268,-0.030112526500137272,88.73447107896494,0.0
1265,-0.12589409035917853,-0.026705623099779814,88.74975930847465,0.0
1266,-0.12242607016129485,-0.02335238195089268,88.76532564860531,0.0
1267,-0.11927922157409308,-0.020132671724899426,88.78119341344015,0.0
1268,-0.11645456307326725,-0.0170761464992943,88.79738595592977,0.0
1269,-0.11386349580239141,-0.014161764034161426,88.81392666954822,0.0
1270,-0.11135983238573435,-0.011328249479267544,88.83083899007461,0.0
1271,-0.10878215221761492,-0.008492518662938903,88.84814639750034,0.0
1272,-0.10599510506753203,-0.005571481229049232,88.86587241806332,0.0
1273,-0.10292026062819756,-0.002502262054488641,88.88404062640946,0.0
1274,-0.09955081400060585,0.0007433100403477482,88.90267464788236,0.0
1275,-0.09594872245876668,0.004152410865386152,88.9217981609423,0.0
1276,-0.09222686763237788,0.00767353105547304,88.94143489971502,0.0
1277,-0.08852201485299516,0.011225898609971259,88.96160865667173,0.0
1278,-0.08496609592092512,0.014713234631671214,88.98234328544085,0.0
1279,-0.08166318111223747,0.018038608641389627,89.00366270375314,0.0
1280,-0.07867729423832746,0.021117527150770754,89.02559089652088,0.0
1281,-0.07603243990323326,0.02388734875643926,89.04815191905277,0.0
1282,-0.07372205210196175,0.026312312941348254,89.0713699004053,0.0
1283,-0.07172218362164738,0.028384529780768806,89.09526904687262,0.0
1284,-0.07000244858770105,0.030121936635525648,89.11987364561581,0.0
1285,-0.06853106994088717,0.031564388623034643,89.14520806843345,0.0
1286,-0.06727397207320136,0.03276879187832243,89.17129677567483,0.0
1287,-0.06619072880929106,0.033803716113178346,89.19816432029785,0.0
1288,-0.06523111019120648,0.03474347674960088,89.2258353520731,0.0
1289,-0.06433510686547239,0.03566144901668604,89.25433462193624,0.0
1290,-0.06343765112893801,0.03662245345713171,89.2836869864904,0.0
1291,-0.06247773104320592,0.03767440110032127,89.31391741266143,0.0
1292,-0.061410553675069056,0.038839877733652405,89.34505098250717,0.0
1293,-0.060220744262208865,0.04010880177264995,89.37711289818404,0.0
1294,-0.05893410046440622,0.04143353615462317,89.4101284870728,0.0
1295,-0.057625172767183534,0.04272775271469724,89.44412320706648,0.0
1296,-0.056418113378433894,0.04386990721360482,89.47912265202287,0.0
1297,-0.05547906812635809,0.044711455229314155,89.51515255738468,0.0
1298,-0.054999979228740135,0.04508908290571632,89.55223880597015,1.0
1299,-0.05517580197829393,0.04483945285653142,89.60077695946924,0.0
1300,-0.05617921215357606,0.04381448034282151,89.67066540937766,0.0
1301,-0.058138080662859914,0.04189509777192344,89.76120369592222,0.0
1302,-0.06112067227175078,0.039001861257230416,89.87171439030101,0.0
1303,-0.06513156297268737,0.03510149383491043,90.00153986998161,0.0
1304,-0.07011817656655793,0.030209330643746007,90.15003925765957,0.0
1305,-0.07598460084876116,0.024388372429890604,90.31658550559635,0.0
1306,-0.08260711150876773,0.017746046135787976,90.50056260923196,0.0
1307,-0.0898455712347975,0.010429714156800874,90.70136293594932,0.0
1308,-0.09754695275668838,0.002621525370598121,90.91838465667936,0.0
1309,-0.10554108770075041,-0.0054674357064305075,91.15102926971547,0.0
1310,-0.11363285502825156,-0.013604292019950125,91.39869920766613,0.0
1311,-0.12159749246451,-0.021543605025950457,91.6607955199462,0.0
1312,-0.12918518641299792,-0.029039225524367905,91.93671562460166,0.0
1313,-0.13613755629145757,-0.03585861184586132,92.2258511245993,0.0
1314,-0.1422135922860373,-0.041798569501795425,92.52758568500424,0.0
1315,-0.14721839058488512,-0.046700561363716066,92.84129296872686,0.0
1316,-0.15102666512641436,-0.050463297562565484,93.1663346297549,0.0
1317,-0.1535950200977076,-0.053050400934424514,93.50205836400796,0.0
1318,-0.15496108988710866,-0.054491557261492386,93.8477960191622,0.0
1319,-0.15523169485501173,-0.0548765545558378,94.20286176600194,0.0
1320,-0.15456433514856446,-0.05434276310423487,94.56655033506263,0.0
1321,-0.1531461986339266,-0.05305767015982218,94.9381353235374,0.0
1322,-0.15117326573492204,-0.051198871133112195,95.31686757863038,0.0
1323,-0.14883052584929207,-0.048934317539223116,95.70197366474486,0.0
1324,-0.14627392339294076,-0.046405585687543494,96.0926544230973,0.0
1325,-0.14361556565778857,-0.04371647039043325,96.48808363353503,0.0
1326,-0.14091499194733265,-0.04092838399117279,96.88740678950248,0.0
1327,-0.13817951465620154,-0.03806296112190702,97.28973999823496,0.0
1328,-0.1353749745686351,-0.035111093017761,97.69416901934666,0.0
1329,-0.13244515157231396,-0.03204653969771484,98.09974845600594,0.0
1330,-0.1293350455290614,-0.02884149623256135,98.50550111383743,0.0
1331,-0.12601189713896394,-0.025481178728069896,98.91041754353469,0.0
1332,-0.12247884370601647,-0.021974715355186386,99.31345578388925,0.0
1333,-0.11877888816361122,-0.018360336377282186,99.7135413225124,0.0
1334,-0.11498995033282534,-0.014703915823192698,100.10956729192158,0.0
1335,-0.11121378794446794,-0.011091129637745733,100.5003949188515,0.0
1336,-0.1075619389892559,-0.007614654510159768,100.88485424460309,0.0
1337,-0.10414091702629331,-0.004358759093576659,101.2617451339279,0.0
1338,-0.10103765877012137,-0.0013841994892825234,101.62983858933387,0.0
1339,-0.09830567896057583,0.0012835681387285153,101.98787838675506,0.0
1340,-0.09595302699054549,0.003660253105961353,102.33458304722959,0.0
1341,-0.09393463909621745,0.005800984843253089,102.66864815754694,0.0
1342,-0.09215295045145731,0.007790613172302957,102.9887490507357,0.0
1343,-0.09047033328972219,0.009727306415130565,103.29354385475195,0.0
1344,-0.08873430392488457,0.011702256951133647,103.58167691477965,0.0
1345,-0.08681201216774596,0.013779462054791497,103.85178259117158,0.0
1346,-0.08462606640858265,0.015979955860138707,104.10248943124014,0.0
1347,-0.08218141004629835,0.018274296567720706,104.33242470887538,0.0
1348,-0.0795740910243261,0.020585555662710663,104.54021932134373,0.0
1349,-0.07697720758811992,0.022802780301716903,104.72451302764868,0.0
1350,-0.07460563052553087,0.024802414184868792,104.88396000756511,0.0
1351,-0.07266730601490509,0.02647309857478598,105.01723471495883,0.0
1352,-0.07131322293724246,0.027738219134089925,105.12303799335253,0.0
1353,-0.0705992818175193,0.02857087811524835,105.20010341599145,0.0
1354,-0.0704709038598963,0.028997667627526338,105.24720380700124,0.0
1355,-0.07077567343767671,0.029090327298115053,105.26315789473685,1.0
1356,-0.07130186300863019,0.02894741076005851,105.24727814840496,0.0
1357,-0.07183328994491696,0.028670647628668392,105.2002606556527,0.0
1358,-0.07220578739062285,0.028342048686728884,105.12307704006754,0.0
1359,-0.07234938631880547,0.028007543788992673,105.0167464976411,0.0
1360,-0.07230381419795179,0.027671089185949887,104.88233024637155,0.0
1361,-0.0722024605423409,0.02730021680015313,104.72092600448458,0.0
1362,-0.07222949567576424,0.026840744090940224,104.53366254028383,0.0
1363,-0.07256332406140466,0.026235751578679037,104.32169433314255,0.0
1364,-0.0733239753670007,0.02544273703998815,104.08619638137833,0.0
1365,-0.07454068257697026,0.02444344850192541,103.82835918879645,0.0
1366,-0.076149286172142,0.02324314608718343,103.54938395762457,0.0
1367,-0.07801973001878343,0.021859325847699333,103.2504780114723,0.0
1368,-0.08000498799790028,0.02030332734666703,102.9328504678954,0.0
1369,-0.08199683241952388,0.018560764086808013,102.59770817619469,0.0
1370,-0.08397213500306297,0.016577612087730766,102.24625193227962,0.0
1371,-0.08601584823774747,0.014257752424942954,101.87967297882749,0.0
1372,-0.08831262574837073,0.011474997196740003,101.49914979560015,0.0
1373,-0.09110691547619616,0.008098815858957654,101.10584518167457,0.0
1374,-0.09463962656527207,0.004029098007978121,100.70090362851651,0.0
1375,-0.09907615539644839,-0.0007676372718614655,100.28544898029372,0.0
1376,-0.10444377076001143,-0.006229342875688311,99.86058237558964,0.0
1377,-0.11059497140765667,-0.012184649534190455,99.42738046274138,0.0
1378,-0.11720760858058878,-0.01835903501472678,98.98689387938148,0.0
1379,-0.12382380855701287,-0.024401570476074205,98.54014598540145,0.0
1380,-0.1299203693371701,-0.02992830020870528,98.0881318374627,0.0
1381,-0.13499577824450038,-0.03457452816598683,97.63181739234155,0.0
1382,-0.13865515994464866,-0.038046181907803206,97.17213892579237,0.0
1383,-0.14067512871385449,-0.040160501713223114,96.71000265322368,0.0
1384,-0.14103531074506892,-0.040868534072515006,96.24628453828998,0.0
1385,-0.13991088486425715,-0.04025575511276218,95.78183027548361,0.0
1386,-0.1376290405337072,-0.03852169535973628,95.31745543294532,0.0
1387,-0.1345999546734463,-0.03594361917316054,94.85394574198166,0.0
1388,-0.1312382315558178,-0.03283217998409385,94.39205752016005,0.0
1389,-0.1278926019008375,-0.02948791991853084,93.93251821533048,0.0
1390,-0.12479935027903938,-0.026166391240833673,93.47602705848088,0.0
1391,-0.12206849583329574,-0.0230569367559805,93.02325581395348,0.0
1392,-0.11970250205368012,-0.020276561770012684,92.57484961621847,0.0
1393,-0.11763793979489393,-0.017876823632743587,92.13142788310589,0.0
1394,-0.11579436601300579,-0.015859129886486086,91.69358529612703,0.0
1395,-0.11411403147212387,-0.014192820524085303,91.26189283925889,0.0
1396,-0.11258097293052774,-0.012830999715627924,90.8368988883159,0.0
1397,-0.11121638141025585,-0.011720907776495898,90.41913034378106,0.0
1398,-0.11005557111512716,-0.0108080032774906,90.00909380070951,0.0
1399,-0.10911752086371528,-0.010035094040611743,89.6072767500461,0.0
1400,-0.10837933783579395,-0.009339205982122305,89.21414880641227,0.0
1401,-0.10776519411695178,-0.00864912689364493,88.83016295811144,0.0
1402,-0.10715360718758102,-0.007885801524983221,88.45575683577665,0.0
1403,-0.10640035799321067,-0.0069663822027092705,88.09135399673735,0.0
1404,-0.10536903403455217,-0.005811294477669794,87.73736522281413,0.0
1405,-0.10395894615947249,-0.004352647518866532,87.3941898298608,0.0
1406,-0.10212176035459604,-0.0025419845570414865,87.06221698796472,0.0
1407,-0.09986288335492964,-0.00035573313447179265,86.74182705178927,0.0
1408,-0.09722942385241261,0.002202461705259064,86.43339290109998,0.0
1409,-0.09429104538425695,0.005102423164933534,86.13728129205923,0.0
1410,-0.09112163886952315,0.008290387451536459,85.85385422040947,0.0
1411,-0.08778824452255377,0.011693235142460564,85.58347029819207,0.0
1412,-0.08434997724052445,0.015223263031908137,85.32648614617345,0.0
1413,-0.08086535252195978,0.018783223735067116,85.08325780467835,0.0
1414,-0.07740291568586556,0.02227180154730748,84.85414216606219,0.0
1415,-0.07404867282916854,0.02558985651595285,84.63949843260188,0.0
1416,-0.07090505033588072,0.028647544884576447,84.43968960414598,0.0
1417,-0.06807953490449038,0.031371884856878515,84.25508400045508,0.0
1418,-0.06566543964712808,0.03371370769114403,84.08605682378058,0.0
1419,-0.06372074741229418,0.03565250627936757,83.932991767889,0.0
1420,-0.06225241817533074,0.037197706504438904,83.79628268044473,0.0
1421,-0.06121241230603027,0.03838543032430532,83.6763352864268,0.0
1422,-0.06050828342478833,0.03927078733612062,83.57356898108664,0.0
1423,-0.060026517010153185,0.03991684782009631,83.4884187018639,0.0
1424,-0.059662322963160964,0.04038236068883225,83.42133688968275,0.0
1425,-0.05934699145541941,0.0407106753152677,83.37279555116358,0.0
1426,-0.05906441371387999,0.04092205539607899,83.34328843452444,0.0
1427,-0.058852056104020084,0.04101070088661074,83.33333333333334,1.0
1428,-0.05878724264629577,0.04094658415713442,83.33333333333334,0.0
1429,-0.05896475722766794,0.04068103090003475,83.33333333333334,0.0
1430,-0.059474329807364265,0.04015418693018953,83.33333333333334,0.0
1431,-0.06038553762053124,0.03930232251589573,83.33333333333334,0.0
1432,-0.061743726068946764,0.038063347794769026,83.33333333333334,0.0
1433,-0.06357568198776127,0.036379767073018016,83.33333333333334,0.0
1434,-0.06590017639287715,0.03419929286074029,83.33333333333334,0.0
1435,-0.06873755867515716,0.03147416996688713,83.33333333333334,0.0
1436,-0.07211434673391325,0.02816070661326902,83.33333333333334,0.0
1437,-0.07606187652717195,0.02422048491232032,83.33333333333334,0.0
1438,-0.08061064024917476,0.019624266246802656,83.33333333333334,0.0
1439,-0.08578265095298129,0.014358846507120314,83.33333333333334,0.0
1440,-0.09158312021541055,0.008436223410276,83.33333333333334,0.0
1441,-0.09799123369137216,0.001903594542665664,83.33333333333334,0.0
1442,-0.1049493594973866,-0.005147915640419443,83.33333333333334,0.0
1443,-0.1123512688357112,-0.01257814382360424,83.33333333333334,0.0
1444,-0.12003228565733427,-0.020198484337138778,83.33333333333334,0.0
1445,-0.12776625370938452,-0.027779507255492726,83.33333333333334,0.0
1446,-0.13527430673043817,-0.03506568089591268,83.33333333333334,0.0
1447,-0.14224791605088133,-0.041795818018547704,83.33333333333334,0.0
1448,-0.14838412316427435,-0.047726497367331075,83.33333333333334,0.0
1449,-0.1534260091576932,-0.05265480673766982,83.33333333333334,0.0
1450,-0.157198510589584,-0.056436605202045506,83.33333333333334,0.0
1451,-0.1596301495620287,-0.058997227596734474,83.33333333333334,0.0
1452,-0.1607550533076707,-0.06033303294981527,83.33333333333334,0.0
1453,-0.16069527736133773,-0.06050408482547904,83.33333333333334,0.0
1454,-0.15962881392089626,-0.059620065004529904,83.33333333333334,0.0
1455,-0.15775210402529818,-0.05782278490002048,83.33333333333334,0.0
1456,-0.1552466739689744,-0.05526903932988064,83.33333333333334,0.0
1457,-0.1522578059893531,-0.05211695883859684,83.33333333333334,0.0
1458,-0.14888950459930744,-0.04851764860596331,83.33333333333334,0.0
1459,-0.14521525477287248,-0.0446121649754429,83.33333333333334,0.0
1460,-0.1412992873903015,-0.040532288364197186,83.33333333333334,0.0
1461,-0.13721964003292214,-0.03640256839903227,83.33333333333334,0.0
1462,-0.13308353491356498,-0.03234101929522139,83.33333333333334,0.0
1463,-0.12902811300880465,-0.028456632494547066,83.33333333333334,0.0
1464,-0.12520476562386207,-0.02484327566486519,83.33333333333334,0.0
1465,-0.12175139095015106,-0.021571099060791677,83.33333333333334,0.0
1466,-0.11876156967057133,-0.01867776714208661,83.33333333333334,0.0
1467,-0.11626109339929425,-0.016162290884701072,83.33333333333334,0.0
1468,-0.1141999434557458,-0.013983811822517234,83.33333333333334,0.0
1469,-0.11246262835547673,-0.012066521228807869,83.33333333333334,0.0
1470,-0.11089376773854698,-0.010310352648422335,83.33333333333334,0.0
1471,-0.10933122891621358,-0.00860562937838756,83.33333333333334,0.0
1472,-0.10763751426039485,-0.006848895030669535,83.33333333333334,0.0
1473,-0.10572166390485692,-0.004956943346059941,83.33333333333334,0.0
1474,-0.10354767053717721,-0.0028765974831052865,83.33333333333334,0.0
1475,-0.10112974797696583,-0.0005888618615310006,83.33333333333334,0.0
1476,-0.09851833590284599,0.0018926518618495487,83.33333333333334,0.0
1477,-0.09578253261943194,0.00452798419094984,83.33333333333334,0.0
1478,-0.09299438196223776,0.00725998857182646,83.33333333333334,0.0
1479,-0.0902183961400274,0.010024369845103638,83.33333333333334,0.0
1480,-0.08750683127267969,0.012758798958032076,83.33333333333334,0.0
1481,-0.08489889652562918,0.015409839079839942,83.33333333333334,0.0
1482,-0.08242135472937594,0.017937081892545805,83.33333333333334,0.0
1483,-0.080088986048252,0.020314517570968634,83.33333333333334,0.0
1484,-0.07790515241366754,0.022529637409681304,83.33333333333334,0.0
1485,-0.07586376624463738,0.0245810433188745,83.33333333333334,0.0
1486,-0.07395345149015925,0.02647540718797856,83.33333333333334,0.0
1487,-0.07216296574329262,0.028224507253399013,83.33333333333334,0.0
1488,-0.07048543844326854,0.029842811525031078,83.33333333333334,0.0
1489,-0.06891906513964208,0.0313457464935793,83.33333333333334,0.0
1490,-0.0674638455588072,0.03274847010934714,83.33333333333334,0.0
1491,-0.06611659923627833,0.03406475311621975,83.33333333333334,0.0
1492,-0.06486802132659934,0.035305528284085126,83.33333333333334,0.0
1493,-0.06370476312260241,0.036476803953714276,83.33333333333334,0.0
1494,-0.06261673685866535,0.037576903054339854,83.33333333333334,0.0
1495,-0.06160672853728472,0.038593283507032165,83.33333333333334,0.0
1496,-0.06069796498774121,0.03949942100820345,83.33333333333334,0.0
1497,-0.05993649579561673,0.04025233159985195,83.33333333333334,0.0
1498,-0.059388291841836756,0.04079127968832796,83.33333333333334,0.0
1499,-0.05913372657577001,0.04103810281920789,83.33333333333334,1.0
1500,-0.05926273795096444,0.040899441342185684,83.35869390800791,0.0
1501,-0.059872204772586285,0.04027101656136986,83.43354810942188,0.0
1502,-0.06106434183846819,0.03904394567920435,83.55617674394283,0.0
1503,-0.0629432113237828,0.037112888102664096,83.72500698661112,0.0
1504,-0.06560689392188632,0.0343855725501844,83.9385933981615,0.0
1505,-0.06913507961534267,0.03079298396893231,84.1956005211926,0.0
1506,-0.07357437233850325,0.02629925742558949,84.49478677998232,0.0
1507,-0.07892500495231292,0.02091020794133959,84.83498944550276,0.0
1508,-0.08513235576243292,0.0146794706791877,85.21511045819607,0.0
1509,-0.09208507954042942,0.007711434493034999,85.63410292722855,0.0
1510,-0.0996197430544679,0.000160471736386893,86.09095814723533,0.0
1511,-0.10753037512282712,-0.007773681662306589,86.5846929928273,0.0
1512,-0.1155806553969786,-0.015854232468547908,87.11433756805808,0.0
1513,-0.12351657605171884,-0.023818926995713897,87.6789230032459,0.0
1514,-0.1310781685821019,-0.03139437301939713,88.27746930554824,0.0
1515,-0.13801006870109536,-0.038312361978635405,88.90897318297091,0.0
1516,-0.14407191895137111,-0.044327260050754595,89.57239577449596,0.0
1517,-0.14905030680065487,-0.04923325821235056,90.26665023213772,0.0
1518,-0.1527735199497851,-0.0528799599249949,90.99058911436552,0.0
1519,-0.15512869524837317,-0.0551845474326583,91.7429915648228,0.0
1520,-0.15607852359751914,-0.0561387505305735,92.52255026597076,0.0
1521,-0.15567275506022699,-0.05580917613489349,93.32785817450652,0.0
1522,-0.15404950087502262,-0.05433029457144663,94.15739506445107,0.0
1523,-0.15142317115954726,-0.051890445290764704,95.00951392492648,0.0
1524,-0.14805924332447,-0.04871241642523619,95.88242728306754,0.0
1525,-0.14423974662953443,-0.04503117940482129,96.77419354838707,0.0
1526,-0.1402262080935957,-0.041071930490331664,97.68270350331657,0.0
1527,-0.1362280282591397,-0.037031509770617685,98.60566709553872,0.0
1528,-0.13238339095839316,-0.033065510716479424,99.54060072095577,0.0
1529,-0.12875677620987716,-0.029282133693071147,100.48481522136846,0.0
1530,-0.12535248648176853,-0.025742409159414153,101.43540485765703,0.0
1531,-0.12213869420726021,-0.022465219352135204,102.38923755670167,0.0
1532,-0.11907324569283932,-0.019434917483782028,103.34294676744604,0.0
1533,-0.1161222946677542,-0.016609439216791654,104.2929252970869,0.0
1534,-0.11326603681282191,-0.013927540736012978,105.23532153075001,0.0
1535,-0.1104911942175083,-0.01131487875452541,106.16603846525564,0.0
1536,-0.10777537817171683,-0.008689646675986729,107.0807360074409,0.0
1537,-0.10507195068010403,-0.0059690014242692515,107.97483699747715,0.0
1538,-0.10230419531083935,-0.0030773329962803,108.84353741496598,0.0
1539,-0.0993743760945747,4.3419346580992474e-05,109.68182120748185,0.0
1540,-0.09618766755283939,0.003422418312255548,110.48448014483172,0.0
1541,-0.09268485274041251,0.007049691166442591,111.24613904501493,0.0
1542,-0.08887325076874232,0.010869729219452721,111.96128663749857,0.0
1543,-0.08484434946419381,0.014781388699756402,112.6243122244626,0.0
1544,-0.0807698977128524,0.018645440147886362,113.22954817055299,0.0
1545,-0.07687504428920494,0.022299424620412713,113.77131809707934,0.0
1546,-0.07339516902396587,0.025577707447166503,114.24399047966747,0.0
1547,-0.07052910429524109,0.02833330616202327,114.64203715299517,0.0
1548,-0.06840276469646202,0.030457595074651046,114.96009601810478,0.0
1549,-0.06705303496572323,0.031894465424418296,115.19303703444778,0.0
1550,-0.06643391929712378,0.032646756856927556,115.33603036954646,0.0
1551,-0.0664389955757367,0.03277436967278363,115.38461538461539,1.0
1552,-0.06692962950303828,0.03238496242236741,115.35445695529535,0.0
1553,-0.06775882479526316,0.03161919295822618,115.26502807589877,0.0
1554,-0.06878517139756087,0.030632942719371396,115.11802835332279,0.0
1555,-0.06987747614742906,0.02957895644484588,114.91531741421059,0.0
1556,-0.07091534179889288,0.028590039470110875,114.65889775295321,0.0
1557,-0.07179220065087559,0.027765585222325362,114.35089716770386,0.0
1558,-0.07242478946073568,0.027162852262081427,113.9935510230927,0.0
1559,-0.07276812364740659,0.026794030763878558,113.5891845648305,0.0
1560,-0.07283012065387726,0.026629604606466822,113.14019549434427,0.0
1561,-0.07267766268874175,0.026607720485592495,112.64903699174565,0.0
1562,-0.07242759573131723,0.02664823981815837,112.11820135354867,0.0
1563,-0.07222162265214813,0.02666906765617723,111.55020438837097,0.0
1564,-0.07219105046936182,0.026601554511625932,110.94757069006512,0.0
1565,-0.07242266302900918,0.02640159616306915,110.31281988397596,0.0
1566,-0.07293790660030758,0.026053723450915438,109.6484539188591,0.0
1567,-0.07369337167512266,0.025566941616949612,108.95694545490676,0.0
1568,-0.07460296490445183,0.024963037619397263,108.24072737768797,0.0
1569,-0.07557450998198954,0.024260022542927653,107.50218344892038,0.0
1570,-0.07654894657246042,0.023454776694191444,106.7436400880531,0.0
1571,-0.0775302485376349,0.022509414406473888,105.96735926378604,0.0
1572,-0.0785979438941507,0.021345240554945032,105.17553246192608,0.0
1573,-0.07989961670360854,0.019846583400253387,104.37027568538394,0.0
1574,-0.08162590498061806,0.01787465010778647,103.55362543357415,0.0
1575,-0.08397409016754424,0.015289372793048376,102.72753560189706,0.0
1576,-0.08710817358164742,0.011975484008209504,101.89387523720967,0.0
1577,-0.09112351190918339,0.007868132228533619,101.05442708207634,0.0
1578,-0.09602272744778272,0.0029733644193052806,100.21088683894844,0.0
1579,-0.10170685003997876,-0.0026203064902131194,99.36486308507493,0.0
1580,-0.10798206231141526,-0.008741507130171532,98.51787776970657,0.0
1581,-0.11457911679448785,-0.015147214034194754,97.6713672268462,0.0
1582,-0.12118063840877247,-0.02154420852859979,96.82668363924539,0.0
1583,-0.12745163630195222,-0.02761792899727121,95.98509689239343,0.0
1584,-0.13307010524580606,-0.033064865226115354,95.14779676074268,0.0
1585,-0.1377562833805376,-0.03762419009459594,94.31589537223338,0.0
1586,-0.14129963440177695,-0.04110444586473205,93.49042990120677,0.0
1587,-0.1435815205843622,-0.04340176705891182,92.67236544392546,0.0
1588,-0.14458970299034238,-0.04450726616357289,91.86259803507406,0.0
1589,-0.1444199437310481,-0.0445027196451825,91.06195776771412,0.0
1590,-0.14326149664999385,-0.043545387801865044,90.27121198316622,0.0
1591,-0.14136721767748853,-0.041844429112271854,89.4910685011354,0.0
1592,-0.13901385885947873,-0.03963263731466093,88.72217886405706,0.0
1593,-0.13646146737420026,-0.03713787806766233,87.96514157308864,0.0
1594,-0.13392092700644087,-0.034558481618274246,87.2205052963955,0.0
1595,-0.13153550997263058,-0.032045971524797434,86.4887720333653,0.0
1596,-0.1293775465425355,-0.029697057880756352,85.77040022113272,0.0
1597,-0.1274572764219085,-0.02755509717347775,85.06580777230569,0.0
1598,-0.1257391095982429,-0.025619560523154304,84.37537503506051,0.0
1599,-0.12416086919637562,-0.023860758508343006,83.69944766882699,0.0
1600,-0.122652968744591,-0.022236350998116917,83.03833943062394,0.0
1601,-0.12115561151835681,-0.02070611691430803,82.39233486874468,0.0
1602,-0.11963236775499646,-0.01924205485375116,81.76169192194483,0.0
1603,-0.11807811309737547,-0.01783201971928063,81.1466444235634,0.0
1604,-0.11651907166912379,-0.016476580933009993,80.54740451113119,0.0
1605,-0.11500341789860391,-0.01518035511529238,79.96416494299828,0.0
1606,-0.1135829394928727,-0.013940416782858732,79.3971013243624,0.0
1607,-0.1122892985519707,-0.012735220702097915,78.84637424581591,0.0
1608,-0.11111136077437186,-0.011517540871187879,78.31213133816331,0.0
1609,-0.10998145997324422,-0.01021414668131703,77.79450924780842,0.0
1610,-0.10877721739565575,-0.008733398910462226,77.29363553748135,0.0
1611,-0.10734149684602379,-0.006979970031649864,76.80963051748398,0.0
1612,-0.1055173223822256,-0.004873945597204694,76.342609012988,0.0
1613,-0.10318910773979595,-0.0023701601102694356,75.89268207323298,0.0
1614,-0.10031848290327447,0.0005268268841884423,75.45995862875385,0.0
1615,-0.09696372308346705,0.0037560227028423897,75.04454710302693,0.0
1616,-0.09327625802998735,0.007203773554144919,74.64655698516843,0.0
1617,-0.08947448267532361,0.010717926318027874,74.26610037056159,0.0
1618,-0.085801735196985,0.014129954777099645,73.90329347653186,0.0
1619,-0.08247954908407182,0.01728083925711139,73.55825814044724,0.0
1620,-0.079667805960971,0.020045678342615208,73.231123307896,0.0
1621,-0.07744038883877985,0.022352336821110107,72.92202651889968,0.0
1622,-0.0757798510043807,0.02419076318166604,72.63111540045946,0.0
1623,-0.07458952123329728,0.025611577092431437,72.35854917412183,0.0
1624,-0.07371800673039035,0.02671464951495077,72.1045001876899,0.0
1625,-0.07298981021675395,0.027630207826830625,71.86915548071381,0.0
1626,-0.07223624043025896,0.028496150865941053,71.6527183939757,0.0
1627,-0.07132198791788961,0.029435592179164877,71.45541023385363,0.0
1628,-0.07016400284332974,0.030538192041246644,71.27747200322068,0.0
1629,-0.06874064220434617,0.03184777424554919,71.11916621142166,0.0
1630,-0.0670907160381855,0.0333573340587429,70.98077877689066,0.0
1631,-0.0653039686269695,0.035011140754037426,70.86262103714529,0.0
1632,-0.06350608708072629,0.03671249894372199,70.76503188224191,0.0
1633,-0.061841912246083014,0.038335049061025896,70.6883800293255,0.0
1634,-0.06046003219424087,0.03973533504812379,70.63306645768851,0.0
1635,-0.059500817689472366,0.040764703728793365,70.59952702579974,0.0
1636,-0.05908877346464348,0.04127928422081856,70.58823529411765,1.0
1637,-0.05932909321912057,0.04114762581488646,70.59990963725721,0.0
1638,-0.060307486849151784,0.04025633411478223,70.6344713795895,0.0
1639,-0.0620916570665559,0.03851455445280181,70.69125991753008,0.0
1640,-0.06473239236521251,0.03585829342344599,70.76965299355311,0.0
1641,-0.06826235015272612,0.03225532004188849,70.86906265960593,0.0
1642,-0.07269130787840923,0.02771082110772938,70.98893149972008,0.0
1643,-0.07799781649229476,0.022273257976909995,71.1287290782144,0.0
1644,-0.08411855796494412,0.016039191893549184,71.28794858355356,0.0
1645,-0.0909380340696622,0.009155423255526252,71.46610364113889,0.0
1646,-0.09828215793000439,0.0018167876216048946,71.66272527114083,0.0
1647,-0.10591941739456676,-0.005741567887189238,71.87735896999123,0.0
1648,-0.11357215330288545,-0.013257699511822582,72.10956189639286,0.0
1649,-0.1209382060179314,-0.020461296687181336,72.35890014471781,0.0
1650,-0.12772034480332292,-0.02709502247242883,72.6249460904948,0.0
1651,-0.13365841600416792,-0.03293593518117287,72.90727579436408,0.0
1652,-0.1385578402002933,-0.03781386513897437,73.20546645243711,0.0
1653,-0.14230844500717746,-0.041623956291601864,73.51909388246628,0.0
1654,-0.1448897245294308,-0.044331500322051264,73.84773003663143,0.0
1655,-0.14636202989359995,-0.045968497015957906,74.19094053310766,0.0
1656,-0.1468468590127876,-0.04662278338758599,74.54828219991518,0.0
1657,-0.14650190487442358,-0.04642178592327352,74.91930062588477,0.0
1658,-0.14549677847830755,-0.04551372823762448,75.30352771492012,0.0
1659,-0.1439934110092345,-0.04404934736059596,75.7004792411162,0.0
1660,-0.14213236760187895,-0.04216683846979305,76.10965240371857,0.0
1661,-0.14002440015977968,-0.03998196500389481,76.53052338239137,0.0
1662,-0.13774644761282456,-0.03758420468320793,76.96254489481785,0.0
1663,-0.13534240643621023,-0.035038641643754004,77.40514376029515,0.0
1664,-0.13282978888801986,-0.03239225139836355,77.85771847471166,0.0
1665,-0.1302125443066072,-0.02968243847774569,78.31963680412153,0.0
1666,-0.1274978180313166,-0.026945329699794365,78.79023340605481,0.0
1667,-0.12471166126647185,-0.02422149639460233,79.2688074897297,0.0
1668,-0.12190761835658813,-0.02155747869515775,79.75462052845937,0.0
1669,-0.1191638677719966,-0.01900259176542731,80.24689403976575,0.0
1670,-0.11656870716295507,-0.016601764901907682,80.7448074510147,0.0
1671,-0.11419874482018147,-0.014386286766300202,81.2474960707572,0.0
1672,-0.11209700232748317,-0.01236500559417546,81.75404918837617,0.0
1673,-0.11025806486161391,-0.010518570479471556,82.26350832707402,0.0
1674,-0.10862479143103251,-0.008798675576054911,82.774865677655,0.0
1675,-0.10709733718494807,-0.007133137443258521,83.28706274292061,0.0
1676,-0.1055518794268986,-0.005436282159486352,83.79898922475445,0.0
1677,-0.10386442006102477,-0.003622877346176289,84.3094821880709,0.0
1678,-0.1019345353376248,-0.0016230079764733302,84.81732553767183,0.0
1679,-0.09970457896488694,0.0006049544870885982,85.32124984562951,0.0
1680,-0.09717104783407665,0.0030657673095053836,85.81993256800686,0.0
1681,-0.09438620349572374,0.0057247073631855674,86.3119986904567,0.0
1682,-0.09144957607289085,0.008511346669053583,86.79602184241446,0.0
1683,-0.08849079254721068,0.011328914937978427,87.2705259191211,0.0
1684,-0.0856471535130842,0.014067481763013739,87.73398724948693,0.0
1685,-0.08304095778528818,0.01661864856751076,88.18483734573674,0.0
1686,-0.08076192991580504,0.018889399636582826,88.62146626777371,0.0
1687,-0.0788586892328765,0.020813166582663134,89.04222663117767,0.0
1688,-0.07734018281433007,0.022356847303799676,89.44543828264757,0.0
1689,-0.07618445329937179,0.023523273938741922,89.8293936604517,0.0
1690,-0.07534965805154914,0.024349254155188224,90.19236385003573,0.0
1691,-0.07478227234832492,0.024899716296926604,90.53260533635522,0.0
1692,-0.07442007502334633,0.02525868940146605,90.84836744477492,0.0
1693,-0.07419146796278016,0.025517954426828162,91.1379004515827,0.0
1694,-0.07401568194636798,0.025764346527487852,91.39946433340793,0.0
1695,-0.07380868393454368,0.026066942962458556,91.63133811226932,0.0
1696,-0.07349687278806004,0.02646569427513748,91.83182973980284,0.0
1697,-0.07303632855437514,0.026963290518351796,91.9992864506868,0.0
1698,-0.07243166624258002,0.027521990949424473,92.13210550167474,0.0
1699,-0.07174724402903127,0.028066623934515082,92.2287451993056,0.0
1700,-0.07110514943155968,0.028493962759976805,92.28773610664211,0.0
1701,-0.07066825876244578,0.02868736559775371,92.3076923076923,1.0
1702,-0.07061120579315168,0.028534255417531726,92.30338661035772,0.0
1703,-0.07108581449320937,0.027943098605790095,92.29063747807089,0.0
1704,-0.07218949052771023,0.026856354719359952,92.26970011899114,0.0
1705,-0.07394484830772845,0.02525657624686429,92.24083373522487,0.0
1706,-0.07629650627731445,0.02316435207564546,92.20430107526882,0.0
1707,-0.07912687478499769,0.02062877764176135,92.16036799661809,0.0
1708,-0.08228766784994643,0.017713088111998874,92.109303039607,0.0
1709,-0.08563905849195179,0.014479455364063708,92.05137701345613,0.0
1710,-0.0890854061400767,0.010977289544457092,91.9868625954062,0.0
1711,-0.09259656277929354,0.0072385250011125024,91.91603394372487,0.0
1712,-0.09620725114738622,0.003281467857492077,91.83916632528202,0.0
1713,-0.09999310371639179,-0.0008776835788957913,91.75653575829777,0.0
1714,-0.10402901790698715,-0.005208883999932551,91.66841867078121,0.0
1715,-0.10834156714350716,-0.009652630752900397,91.57509157509158,0.0
1716,-0.11287043297877447,-0.014109712517690179,91.47683075897322,0.0
1717,-0.11745271717305938,-0.01844012983375399,91.37391199333653,0.0
1718,-0.12183803906562034,-0.02247265604195625,91.26661025698336,0.0
1719,-0.1257326898907085,-0.02602367445784626,91.15519947840446,0.0
1720,-0.12886088535073703,-0.028921428851915953,91.03995229471109,0.0
1721,-0.1310244134184416,-0.031030391905573267,90.92113982770046,0.0
1722,-0.1321419028098616,-0.03227049200579848,90.79903147699758,0.0
1723,-0.13225604910409205,-0.032627379663575054,90.67389473016364,0.0
1724,-0.13150876085745106,-0.03215226026429742,90.54599498961228,0.0
1725,-0.13009558944662014,-0.030952313711270277,90.41559541613141,0.0
1726,-0.12821728694694554,-0.029174623262229978,90.28295678876947,0.0
1727,-0.126045316824196,-0.02698737515329272,90.1483373808097,0.0
1728,-0.12371030495376903,-0.024561807125789398,90.01199285152569,0.0
1729,-0.1213114331475652,-0.02205730152216208,89.87417615338526,0.0
1730,-0.11893568259299424,-0.019610672785022244,89.73513745434758,0.0
1731,-0.11667273949452375,-0.017329598941078064,89.59512407488027,0.0
1732,-0.11461550444104553,-0.015289575372452336,89.4543804393088,0.0
1733,-0.11284518263397114,-0.013533708276597046,89.31314804109967,0.0
1734,-0.11140909764117751,-0.012074863620904094,89.17166542167192,0.0
1735,-0.11030386950314593,-0.010899831684287042,89.03016816232736,0.0
1736,-0.10947416963556088,-0.009975062099157788,88.88888888888889,0.0
1737,-0.10882938738675456,-0.009253193058230903,88.74805728863903,0.0
1738,-0.10827152213747222,-0.008679258323036915,88.60790013915488,0.0
1739,-0.10772213381944461,-0.008195387045317888,88.46864134864383,0.0
1740,-0.10713680723237362,-0.0077431918602113275,88.33050200739436,0.0
1741,-0.106501636521576,-0.007263831510204181,88.19370044996786,0.0
1742,-0.10581452510326363,-0.006696674854909002,88.05845232777256,0.0
1743,-0.10506077850875413,-0.005978206108828283,87.92497069167644,0.0
1744,-0.10419481092367772,-0.005042967171739363,87.79346608433463,0.0
1745,-0.10313705766265807,-0.003827799235944751,87.66414664192648,0.0
1746,-0.10178868198725112,-0.002279552703398812,87.53721820501914,0.0
1747,-0.1000591811500298,-0.0003651319998846129,87.41288443829788,0.0
1748,-0.09789677861946444,0.001918331171413404,87.29134695892726,0.0
1749,-0.0953107571269691,0.004535861512281086,87.17280547333394,0.0
1750,-0.09237862989720008,0.007411986791015254,87.05745792222868,0.0
1751,-0.08923704503824995,0.010434496274507581,86.94550063371356,0.0
1752,-0.08606054906749158,0.013464702233798153,86.83712848435034,0.0
1753,-0.08303476740132208,0.016352905055850016,86.73253506809642,0.0
1754,-0.08033005695672456,0.0189566752080835,86.63191287304764,0.0
