,PPG_Raw,PPG_Clean,PPG_Rate,PPG_Peaks
0,-0.43817831472941177,-0.043502454242225326,88.67667121418825,0.0
1,-0.44595129192390476,-0.051183113381888634,88.67667121418825,0.0
2,-0.45406529210716323,-0.05895994788145596,88.67667121418825,0.0
3,-0.46274892348936586,-0.06688134804200857,88.67667121418825,0.0
4,-0.47201414871409136,-0.0749259720181348,88.67667121418825,0.0
5,-0.48163868373839464,-0.08299224327360873,88.67667121418825,0.0
6,-0.49122215544200065,-0.0909102564522771,88.67667121418825,0.0
7,-0.5002975156040401,-0.09847224144785609,88.67667121418825,0.0
8,-0.5084600261545145,-0.10547278727305476,88.67667121418825,0.0
9,-0.5154704802038499,-0.11174796105074239,88.67667121418825,0.0
10,-0.5213004555742345,-0.11720372680634178,88.67667121418825,0.0
11,-0.5261106943549897,-0.12182802587373671,88.67667121418825,0.0
12,-0.5301786711540217,-0.125686054165991,88.67667121418825,0.0
13,-0.5338073526758976,-0.12890291485790117,88.67667121418825,0.0
14,-0.5372485939972276,-0.13164052339125132,88.67667121418825,0.0
15,-0.5406632413677827,-0.13407575371768293,88.67667121418825,0.0
16,-0.5441226273993374,-0.13638460704085964,88.67667121418825,0.0
17,-0.5476406861502774,-0.1387336475896652,88.67667121418825,0.0
18,-0.5512177721790975,-0.14127640105480443,88.67667121418825,0.0
19,-0.5548774859495517,-0.14415004672876774,88.67667121418825,0.0
20,-0.5586836827628419,-0.1474672841460784,88.67667121418825,0.0
21,-0.5627322935289915,-0.15129982215927174,88.67667121418825,0.0
22,-0.5671187421760301,-0.15565303101834227,88.67667121418825,0.0
23,-0.5718861305319165,-0.16043500601093413,88.67667121418825,0.0
24,-0.5769631752265355,-0.16542653970617693,88.67667121418825,0.0
25,-0.582105115207297,-0.17026031899765892,88.67667121418825,0.0
26,-0.5868545849360707,-0.1744174274752186,88.67667121418825,0.0
27,-0.5905398851142583,-0.177246830467976,88.67667121418825,0.0
28,-0.5923221812035028,-0.17800940638721446,88.67667121418825,0.0
29,-0.5912906080682787,-0.17594320308825587,88.67667121418825,0.0
30,-0.5865888732613801,-0.17034212948044003,88.67667121418825,0.0
31,-0.5775452552583071,-0.16063734480538783,88.67667121418825,0.0
32,-0.5637755906027786,-0.14646987249021456,88.67667121418825,0.0
33,-0.5452375125117569,-0.1277445130066253,88.67667121418825,0.0
34,-0.5222302251964239,-0.10465840896167347,88.67667121418825,0.0
35,-0.4953504210800096,-0.07770166402070305,88.67667121418825,0.0
36,-0.46542472929243983,-0.04763120945541713,88.67667121418825,0.0
37,-0.43343918028651457,-0.015421900131442276,88.67667121418825,0.0
38,-0.40047828761138954,0.017799659871630014,88.67667121418825,0.0
39,-0.3676752327655319,0.05083259896810775,88.67667121418825,0.0
40,-0.3361654743768468,0.08248469395308256,88.67667121418825,0.0
41,-0.3070330260077006,0.11165498071178653,88.67667121418825,0.0
42,-0.28124331344832487,0.13741023045871517,88.67667121418825,0.0
43,-0.2595665647759431,0.15904923144983213,88.67667121418825,0.0
44,-0.24250555046967576,0.17614881370238678,88.67667121418825,0.0
45,-0.2302456991998095,0.1885862406061327,88.67667121418825,0.0
46,-0.22264188780634014,0.19653428872457815,88.67667121418825,0.0
47,-0.21924669268757943,0.20042806761654794,88.67667121418825,0.0
48,-0.21937469675256843,0.20090608059744652,88.67667121418825,1.0
49,-0.22219108467408807,0.19873162833134006,88.69608462683112,0.0
50,-0.22681134862149321,0.19470374291789058,88.71549788579136,0.0
51,-0.2324004445564703,0.18956879741978766,88.73490232584692,0.0
52,-0.23826156909475468,0.1839443202954611,88.75428926662352,0.0
53,-0.24390572550883577,0.1782651498959369,88.77365001261221,0.0
54,-0.24909378190041337,0.17275896031023003,88.79297585320376,0.0
55,-0.25384366640673894,0.16745373829466748,88.81225806274047,0.0
56,-0.25839766468492203,0.1622146392255956,88.83148790058489,0.0
57,-0.26314977531851425,0.15680267782926183,88.85065661120605,0.0
58,-0.2685417723337361,0.15094390497722204,88.86975542428299,0.0
59,-0.27494786506724417,0.1443959787010669,88.88877555482568,0.0
60,-0.28257685078775635,0.13699990392404243,88.90770820331353,0.0
61,-0.29142072478311243,0.12870816991410813,88.92654455585141,0.0
62,-0.30126614725723416,0.11958586984400404,88.94527578434347,0.0
63,-0.3117635843696898,0.10978739969165242,88.96389304668448,0.0
64,-0.3225284572986671,0.09951652469650707,88.98238748696917,0.0
65,-0.33323949508666023,0.0889806917263003,89.00075023571935,0.0
66,-0.3437051212069252,0.0783507680107452,89.01897241012892,0.0
67,-0.35388409479717936,0.06773499979365907,89.03704511432707,0.0
68,-0.363863003775221,0.057171722873579224,89.05495943965924,0.0
69,-0.37380423911269695,0.04664045778627576,89.07270646498652,0.0
70,-0.38388234836273516,0.036086755085079816,89.090277257003,0.0
71,-0.39422585027993234,0.02545347458438298,89.10766287057145,0.0
72,-0.4048776509467581,0.014710516717984748,89.12485434907731,0.0
73,-0.4157812361219056,0.0038762479203719724,89.141842724801,0.0
74,-0.42679263931069705,-0.006973587755603056,89.15861901930852,0.0
75,-0.4377112594361883,-0.017710585286398843,89.17517424386067,0.0
76,-0.448318126600134,-0.02817026651355993,89.19149939984052,0.0
77,-0.45841009255254106,-0.03817668484650832,89.20758547919964,0.0
78,-0.46782284597916285,-0.047570114847197774,89.22342346492249,0.0
79,-0.4764424940370491,-0.056232794323362104,89.23900433150983,0.0
80,-0.4842110408189711,-0.06410834350489421,89.25431904548037,0.0
81,-0.49113208683579945,-0.07121164248389601,89.26935856589124,0.0
82,-0.49727857792797614,-0.07762740901657164,89.28411384487688,0.0
83,-0.5027971542181411,-0.08349736603153009,89.29857582820688,0.0
84,-0.5078988527615993,-0.08899761640029116,89.3127354558621,0.0
85,-0.5128281603422505,-0.09430947031954902,89.32658366262974,0.0
86,-0.5178120001398432,-0.09958820389482892,89.34011137871698,0.0
87,-0.5230021325154375,-0.10493472254010039,89.35330953038306,0.0
88,-0.5284309913033319,-0.1103746138825206,89.36616904059035,0.0
89,-0.5339969914650415,-0.11584760797501256,89.37868082967367,0.0
90,-0.5394822602081628,-0.12120833940056144,89.39083581602851,0.0
91,-0.5445913566828373,-0.126237084224228,89.40262491681753,0.0
92,-0.5489928260269895,-0.13065742401330588,89.41403904869577,0.0
93,-0.5523498598868155,-0.13415699492520006,89.42506912855428,0.0
94,-0.554337306620516,-0.13640773341282098,89.43570607428218,0.0
95,-0.5546511491271012,-0.13708315144281674,89.44594080554708,0.0
96,-0.5530177410467391,-0.13587178913132553,89.45576424459381,0.0
97,-0.5492047732606242,-0.13248766606795728,89.46516731706151,0.0
98,-0.5430300340360675,-0.12667988043101713,89.47414095281876,0.0
99,-0.5343629861645106,-0.11824415448629327,89.48267608681678,0.0
100,-0.5231192171164446,-0.10703885761927673,89.49076365996089,0.0
101,-0.5092553966646247,-0.09300675875945688,89.49839461999949,0.0
102,-0.4927767262615005,-0.07620159826248726,89.50555992243126,0.0
103,-0.47376579450945233,-0.05681594435465099,89.5122505314297,0.0
104,-0.4524315296586564,-0.03520440203785308,89.5184574207855,0.0
105,-0.42916432978396774,-0.011894889508029593,89.52417157486617,0.0
106,-0.40457496963804174,0.012418921955587019,89.52938398959326,0.0
107,-0.37949516373288683,0.03690850532380956,89.53408567343635,0.0
108,-0.35492717118561384,0.06066507779707295,89.53826764842455,0.0
109,-0.3319449876549797,0.08277326557165664,89.54192095117445,0.0
110,-0.31156491219593235,0.10239455205970972,89.54503663393493,0.0
111,-0.29461342830763604,0.1188481852190541,89.54760576564868,0.0
112,-0.2816221813600251,0.1316766563994036,89.5496194330297,0.0
113,-0.2727728056481887,0.14068502841533276,89.55106874165733,0.0
114,-0.26790080895868235,0.14594782805734077,89.55194481708585,0.0
115,-0.26655249430624317,0.14778290578820644,89.55223880597015,1.0
116,-0.2680774947425768,0.14669731348311385,89.55223880597015,0.0
117,-0.2717353341982414,0.14331465553056766,89.55223880597015,0.0
118,-0.2767969900906509,0.138295704175875,89.55223880597015,0.0
119,-0.28262811058640297,0.1322640478589452,89.55223880597015,0.0
120,-0.2887457001460202,0.1257464107735358,89.55223880597015,0.0
121,-0.29484377516337645,0.11913370776709607,89.55223880597015,0.0
122,-0.3007873532431115,0.11266476903548882,89.55223880597015,0.0
123,-0.3065798072692102,0.10643088312265653,89.55223880597015,0.0
124,-0.31231514612428113,0.10039657938253899,89.55223880597015,0.0
125,-0.31813065613180336,0.09443078325013296,89.55223880597015,0.0
126,-0.3241731765199648,0.08834260565331939,89.55223880597015,0.0
127,-0.3305840249782,0.0819171801543771,89.55223880597015,0.0
128,-0.3374972987012616,0.07494852714888027,89.55223880597015,0.0
129,-0.3450397468356707,0.06726779382892893,89.55223880597015,0.0
130,-0.3533213460348326,0.05876599570020638,89.55223880597015,0.0
131,-0.36241330136201966,0.049410508548279684,89.55223880597015,0.0
132,-0.37231969055179664,0.03925428120246944,89.55223880597015,0.0
133,-0.38295469668600357,0.028436480989573215,89.55223880597015,0.0
134,-0.39413617860170524,0.01717344003257708,89.55223880597015,0.0
135,-0.40559937158499043,0.005739549659801536,89.55223880597015,0.0
136,-0.4170263911603107,-0.005560889357014341,89.55223880597015,0.0
137,-0.4280829178494142,-0.016428166184272584,89.55223880597015,0.0
138,-0.43845496422600705,-0.026603677884004265,89.55223880597015,0.0
139,-0.4478835191388588,-0.03590295443429741,89.55223880597015,0.0
140,-0.45619804385472723,-0.04423932319306635,89.55223880597015,0.0
141,-0.4633476615439708,-0.05163309295745805,89.55223880597015,0.0
142,-0.4694226322163828,-0.05820311377171805,89.55223880597015,0.0
143,-0.4746538079806913,-0.0641406513283838,89.55223880597015,0.0
144,-0.4793796515676593,-0.06966925631936277,89.55223880597015,0.0
145,-0.48398001869134843,-0.07499793157208853,89.55223880597015,0.0
146,-0.48878897666576065,-0.08027742365427039,89.55223880597015,0.0
147,-0.49400919493437634,-0.08556996879409219,89.55223880597015,0.0
148,-0.49965352570458454,-0.09084076038838453,89.55223880597015,0.0
149,-0.5055342973836711,-0.09597487341589116,89.55223880597015,0.0
150,-0.5113090937950718,-0.10081721616436726,89.55223880597015,0.0
151,-0.5165762408690908,-0.10522673030211739,89.55223880597015,0.0
152,-0.5209976372264117,-0.10913124460018604,89.55223880597015,0.0
153,-0.5244153869083303,-0.11256762021181942,89.55223880597015,0.0
154,-0.5269260565946472,-0.11569394684919647,89.55223880597015,0.0
155,-0.5288845007985292,-0.11876640364075498,89.55223880597015,0.0
156,-0.5308270592854107,-0.12208177593423153,89.55223880597015,0.0
157,-0.5333270712620198,-0.1258955075093599,89.55223880597015,0.0
158,-0.536817220066539,-0.13033226474850995,89.55223880597015,0.0
159,-0.5414260319420365,-0.13530934057907645,89.55223880597015,0.0
160,-0.5468749261990076,-0.14049179509575843,89.55223880597015,0.0
161,-0.552466939899804,-0.14529222277958814,89.55223880597015,0.0
162,-0.5571730857270629,-0.14891886740311655,89.55223880597015,0.0
163,-0.5597954882160783,-0.15046570717928137,89.55223880597015,0.0
164,-0.5591670052453329,-0.14902952844197775,89.55223880597015,0.0
165,-0.5543410816513464,-0.14383384865247376,89.55223880597015,0.0
166,-0.5447335948500853,-0.13433882556102814,89.55223880597015,0.0
167,-0.530195425952702,-0.1203198347021582,89.55223880597015,0.0
168,-0.5110130363377944,-0.1019040488637496,89.55223880597015,0.0
169,-0.4878487577311227,-0.07956235479618673,89.55223880597015,0.0
170,-0.4616408837852913,-0.05406145583802745,89.55223880597015,0.0
171,-0.4334867340258433,-0.026386572003883516,89.55223880597015,0.0
172,-0.4045306211318251,0.002352030653399499,89.55223880597015,0.0
173,-0.37587324915775816,0.031015412261407332,89.55223880597015,0.0
174,-0.3485100412383707,0.058524117895318126,89.55223880597015,0.0
175,-0.3232956942004183,0.08393039461340117,89.55223880597015,0.0
176,-0.3009249207318243,0.10647035415245826,89.55223880597015,0.0
177,-0.2819182084770623,0.12559504681429884,89.55223880597015,0.0
178,-0.2666067880116799,0.14098158199018518,89.55223880597015,0.0
179,-0.25511949427047353,0.15252671309109017,89.55223880597015,0.0
180,-0.24738052134490984,0.1603259674047763,89.55223880597015,0.0
181,-0.24312712535563172,0.16464175527412048,89.55223880597015,0.0
182,-0.24194993070425166,0.165864124317294,89.55223880597015,1.0
183,-0.24334948754970856,0.16446793694173742,89.55186644193986,0.0
184,-0.2467963634956773,0.16097012485752937,89.55075434189679,0.0
185,-0.25178158841868115,0.15589020006508053,89.54891002085341,0.0
186,-0.25784932896278895,0.14971638508740412,89.546341028758,0.0
187,-0.2646111226683068,0.14287872908652183,89.54305494926993,0.0
188,-0.27174719539211467,0.1357296612488585,89.5390593985441,0.0
189,-0.2790030017061692,0.12853183727970954,89.53436202402376,0.0
190,-0.28618788340094675,0.12145295983198393,89.5289705032432,0.0
191,-0.2931789737743301,0.11456740495970864,89.52289254263953,0.0
192,-0.2999290892892122,0.10786470459931989,89.51613587637463,0.0
193,-0.3064738324638163,0.1012649003769436,89.5087082651671,0.0
194,-0.31293124334873457,0.09464025931996642,89.50061749513462,0.0
195,-0.3194874615040222,0.08784179585817084,89.49187137664684,0.0
196,-0.3263644132264639,0.08072770916215996,89.48247774318929,0.0
197,-0.3337708968225522,0.07318967733853055,89.47244445023837,0.0
198,-0.3418461006481769,0.06517249300464643,89.46177937414761,0.0
199,-0.35061205244538923,0.05668320040128644,89.45049041104556,0.0
200,-0.3599542957324345,0.047787796884125794,89.43858547574553,0.0
201,-0.36964413655539563,0.038596337747964185,89.42607250066715,0.0
202,-0.37940101285051964,0.029240173271620182,89.41295943477027,0.0
203,-0.3889755942542257,0.019847111240860124,89.39925424250129,0.0
204,-0.3982223051985653,0.010520766602141289,89.38496490275176,0.0
205,-0.4071314891986591,0.0013289654848128163,89.3700994078302,0.0
206,-0.41580732837961976,-0.007696786634068607,89.35466576244629,0.0
207,-0.424401249081519,-0.01655212475979466,89.33867198270869,0.0
208,-0.4330306917345906,-0.025244991698555076,89.32212609513564,0.0
209,-0.4417196162086379,-0.033780370435937825,89.30503613567926,0.0
210,-0.4503861949599313,-0.04214914062605625,89.2874101487631,0.0
211,-0.4588799879337793,-0.0503235935466039,89.26925618633364,0.0
212,-0.46704730008978884,-0.05825968847944478,89.25058230692528,0.0
213,-0.4747914495144663,-0.06590424350967065,89.23139657473955,0.0
214,-0.48209988800825,-0.073204520974757,89.21170705873799,0.0
215,-0.48902881229376916,-0.08011806398546553,89.19152183174943,0.0
216,-0.4956577677911086,-0.08662159460262078,89.1708489695914,0.0
217,-0.502040755457464,-0.09271852469843198,89.14969655020579,0.0
218,-0.5081802532828159,-0.09844460996350535,89.12807265280897,0.0
219,-0.5140373577021157,-0.10387046998627941,89.10598535705651,0.0
220,-0.5195720295483165,-0.10909862533648489,89.08344274222215,0.0
221,-0.5247915361216856,-0.11425218595574901,89.06045288639177,0.0
222,-0.5297797102332759,-0.11945307334521385,89.0370238656717,0.0
223,-0.5346865278302506,-0.12478989615885333,89.01316375341206,0.0
224,-0.5396733231296231,-0.13027889029221507,88.98888061944474,0.0
225,-0.5448270278995965,-0.13582469183779047,88.96418252933611,0.0
226,-0.550070105046349,-0.14118993218866188,88.93907754365495,0.0
227,-0.5550965453445716,-0.14598275328321703,88.9135737172549,0.0
228,-0.5593574310252589,-0.14966895800529456,88.88767909857208,0.0
229,-0.5621051605432532,-0.1516110177347019,88.86140172893761,0.0
230,-0.562489049321133,-0.15113060545871887,88.83474964190503,0.0
231,-0.559682173895235,-0.147586115994978,88.80773086259292,0.0
232,-0.5530130095873453,-0.14045312431435344,88.78035340704217,0.0
233,-0.5420755460236426,-0.12939482392778814,88.75262528158854,0.0
234,-0.5267966320573579,-0.11431139432232754,88.72455448225008,0.0
235,-0.5074482973849248,-0.09536144712299408,88.69614899412969,0.0
236,-0.4846051086509208,-0.07295409253903856,88.66741679083223,0.0
237,-0.4590600410062343,-0.0477153809153308,88.63836583389721,0.0
238,-0.43172230089718,-0.020436655674309485,88.60900407224578,0.0
239,-0.4035224899605169,0.00798608477240726,88.5793394416432,0.0
240,-0.3753436124030002,0.03661349218615943,88.54937986417569,0.0
241,-0.347984518874562,0.06451906273059983,88.51913324774256,0.0
242,-0.3221510905934667,0.09083772219587767,88.48860748556278,0.0
243,-0.29846345641820504,0.11480714298558897,88.45781045569662,0.0
244,-0.2774651729743166,0.13580358739780915,88.4267500205818,0.0
245,-0.25962137317260126,0.15337371558352156,88.39543402658451,0.0
246,-0.2452968357213794,0.16726185644486993,88.36387030356485,0.0
247,-0.23471209179943983,0.17742953515577412,88.33206666445705,0.0
248,-0.22788570206642975,0.18406175987600176,88.30003090486406,0.0
249,-0.22458119515358133,0.18755386690534329,88.26777080266669,0.0
250,-0.22428347848540295,0.18847437868566982,88.23529411764706,1.0
251,-0.22622748354434916,0.187503388114069,88.19878867393135,0.0
252,-0.2294896313922425,0.18535163910601543,88.15459963072962,0.0
253,-0.23313299155273157,0.18267121289000282,88.10297305915712,0.0
254,-0.2363764155788244,0.1799727386356334,88.0441577994623,0.0
255,-0.23874457548168387,0.1775647828053835,87.97840506031712,0.0
256,-0.24015576559278473,0.1755278129025524,87.90596802930796,0.0
257,-0.24091890057696697,0.17372831442543452,87.8271014954284,0.0
258,-0.24163641369873273,0.17186983877239081,87.7420614842902,0.0
259,-0.24303775314906306,0.16956928509944913,87.65110490668437,0.0
260,-0.24578955997405616,0.1664409440703058,87.55448922104192,0.0
261,-0.25033591361687,0.16216945669583402,87.45247211026368,0.0
262,-0.2568123970386313,0.15655634078781414,87.3453111733098,0.0
263,-0.2650542612287534,0.14953217549683823,87.23326363186533,0.0
264,-0.27468975643051013,0.14113582494981247,87.11658605232604,0.0
265,-0.2852846282743617,0.1314706096661758,86.99553408327944,0.0
266,-0.2964905858283106,0.12065273849335124,86.87036220859181,0.0
267,-0.3081523187119661,0.108768185226569,86.74132351615054,0.0
268,-0.3203426536169677,0.0958504690827976,86.60866948225325,0.0
269,-0.33331857534308573,0.0818847358866107,86.47264977158233,0.0
270,-0.3474152492109495,0.06683530214787174,86.33351205265438,0.0
271,-0.36291378523422607,0.05068681755341014,86.1915018285882,0.0
272,-0.37992558059960635,0.033485347538574566,86.04686228299404,0.0
273,-0.39832929999067757,0.015365891335693743,85.8998341407501,0.0
274,-0.41777829414425705,-0.00344316556710296,85.75065554339848,0.0
275,-0.437773211385027,-0.022641748141471484,85.59956193886367,0.0
276,-0.4577750470330268,-0.041902069849924506,85.4467859851716,0.0
277,-0.4773242685646093,-0.06092540078133271,85.29255746782464,0.0
278,-0.49613391159185233,-0.07949913582866484,85.1371032304704,0.0
279,-0.5141361230016006,-0.0975417368142876,84.98064711848708,0.0
280,-0.5314773579971336,-0.11512583826104009,84.82340993509584,0.0
281,-0.548471822684826,-0.1324741804992884,84.66560940960356,0.0
282,-0.565531538905339,-0.1499278883255364,84.50746017737193,0.0
283,-0.5830923991280186,-0.1678909616733088,84.34917377110781,0.0
284,-0.601549260618096,-0.18675811447159876,84.19095862306796,0.0
285,-0.6212029138436517,-0.2068351478138371,84.03302007777438,0.0
286,-0.6422130603155967,-0.2282620040584041,83.87556041484108,0.0
287,-0.6645492549983053,-0.2509486883803921,83.71877888151872,0.0
288,-0.6879378585825542,-0.274533392781636,83.56287173457319,0.0
289,-0.7118144284916748,-0.2983702769923065,83.40803229112394,0.0
290,-0.7353011549393005,-0.32155128738098243,83.25445098807994,0.0
291,-0.7572313600260269,-0.3429621736690407,83.10231544982493,0.0
292,-0.7762347032186271,-0.3613679419873005,82.95181056381841,0.0
293,-0.7908795816026817,-0.37551824054774674,82.80311856379508,0.0
294,-0.7998492163342545,-0.38425972412280335,82.6564191202627,0.0
295,-0.8021126652468346,-0.3866412620461413,82.51188943801735,0.0
296,-0.797048478549772,-0.38199937952012974,82.36970436041378,0.0
297,-0.7844907901615241,-0.3700152023357325,82.23003648014944,0.0
298,-0.7646931264841953,-0.3507393103606975,82.09305625634204,0.0
299,-0.7382345396079035,-0.32458580411778387,81.95893213770185,0.0
300,-0.7059120103523423,-0.29230022766649444,81.82783069162342,0.0
301,-0.6686617647806665,-0.2549071424453468,81.69991673904403,0.0
302,-0.6275298219764123,-0.21364243373737707,81.57535349494101,0.0
303,-0.5836800328879151,-0.16987396537530675,81.45430271436373,0.0
304,-0.5384031680751363,-0.1250133485491917,81.3369248439222,0.0
305,-0.49308646012511687,-0.0804223154672806,81.22337917867972,0.0
306,-0.4491213095023757,-0.037319537382004594,81.11382402442354,0.0
307,-0.40775776851149975,0.003303248801506453,81.00841686531479,0.0
308,-0.36994263186751936,0.04074481165774292,80.9073145369469,0.0
309,-0.33619109647027784,0.07462698384821381,80.81067340487024,0.0
310,-0.3065356024137043,0.10488897015105034,80.71864954867013,0.0
311,-0.28057324475546885,0.13174245289153394,80.63139895171619,0.0
312,-0.25760360442679475,0.15559415344250807,80.5490776967317,0.0
313,-0.2368219230833601,0.17694930882688673,80.4718421673643,0.0
314,-0.2175166629463371,0.19631345448658905,80.39984925597295,0.0
315,-0.19922034903668628,0.21410970011915198,80.3332565778813,0.0
316,-0.18177787300338322,0.2306243180406028,80.27222269238283,0.0
317,-0.16532204368632417,0.24598617901457176,80.21690733082237,0.0
318,-0.15017403736572704,0.26017749295943743,80.16747163211764,0.0
319,-0.1367080407129047,0.27306675508382233,80.12407838612609,0.0
320,-0.12522808246705058,0.2844515167511651,80.08689228530626,0.0
321,-0.11589759648641178,0.29409923547687455,80.05608018517,0.0
322,-0.10874044360867789,0.30177836317092094,80.0318113740693,0.0
323,-0.10370344066858296,0.3072773409418748,80.01425785291524,0.0
324,-0.10074624826810341,0.31041421586300333,80.00359462548101,0.0
325,-0.09991504246289547,0.3110424543607721,80.0,1.0
326,-0.10136553082593121,0.3090584096552233,80.01318735865726,0.0
327,-0.10532377879810141,0.30441318759840336,80.05218216318785,0.0
328,-0.11199946383421791,0.297127688237127,80.11616844424415,0.0
329,-0.12148491951218794,0.2873061285873354,80.20437262357414,0.0
330,-0.13367844174630134,0.27514185406409086,80.31605856379271,0.0
331,-0.14826133068183614,0.26091038600292205,80.45052292839904,0.0
332,-0.16473907457294096,0.2449480630300296,80.6070908117246,0.0
333,-0.18253461963751874,0.22761908535346403,80.78511160313566,0.0
334,-0.20110346906577545,0.2092776491606254,80.98395505390495,0.0
335,-0.2200330382543358,0.19023376125176011,81.203007518797,0.0
336,-0.23909523095296192,0.17073055926151523,81.4416683476579,0.0
337,-0.2582390835747002,0.15093776948207857,81.69934640522877,0.0
338,-0.2775322850854286,0.13096136301285968,81.9754567000704,0.0
339,-0.29707762662426085,0.11086498295187036,82.26941710594473,0.0
340,-0.31693655313566593,0.09069566495306298,82.58064516129032,0.0
341,-0.33708551864664676,0.07050557172670957,82.90855493459436,0.0
342,-0.3574155376989702,0.050362973108573905,83.2525539455351,0.0
343,-0.3777681252444836,0.030348922252507765,83.61204013377926,0.0
344,-0.3979886474545484,0.010540024487201108,83.98639886929422,0.0
345,-0.4179750873533802,-0.009018623075925755,84.37500000000001,0.0
346,-0.4377064883081668,-0.028343544610897428,84.7771949345626,0.0
347,-0.45724732319004846,-0.047537901153414525,85.19231376013632,0.0
348,-0.4767357850383117,-0.06680325456258816,85.61966239691452,0.0
349,-0.4963692621414302,-0.08643121692808968,86.05851979345957,0.0
350,-0.5163955307330167,-0.10677066077693145,86.5081351689612,0.0
351,-0.5371054702122093,-0.12816993547329292,86.9677253108291,0.0
352,-0.5588101427458938,-0.15089839760354434,87.43647193835729,0.0
353,-0.5817816440222984,-0.17505701985717143,87.91351914561083,0.0
354,-0.606148760643667,-0.20049288492770706,88.39797093916705,0.0
355,-0.6317619601317525,-0.22673556179107385,88.8888888888889,0.0
356,-0.6580664482138334,-0.2529732109622412,89.3852899124976,0.0
357,-0.6840338931347165,-0.2780817958150198,89.88614421732471,0.0
358,-0.7081952833889109,-0.30071206462851,90.39037342523022,0.0
359,-0.7287909029770665,-0.31942740352285,90.8968489092378,0.0
360,-0.7440181148861768,-0.3328737714116561,91.40439037291722,0.0
361,-0.7523260748608415,-0.33995376583310927,91.91176470588236,0.0
362,-0.7526890810732281,-0.3399731382519693,92.41768515091678,0.0
363,-0.7447921488128023,-0.3327312935851816,92.9208108201122,0.0
364,-0.7290826715210142,-0.31853725596072924,93.41974659893734,0.0
365,-0.7066747453784469,-0.2981472641626059,93.91304347826086,0.0
366,-0.6791288732086654,-0.27263625872752173,94.3991993549388,0.0
367,-0.6481595676211945,-0.24322924434838405,94.87666034155599,0.0
368,-0.6153389338856624,-0.2111265692689256,95.3438226251774,0.0
369,-0.5818620135888904,-0.17735762632192023,95.79903491342606,0.0
370,-0.5484213845451941,-0.1426902568899098,96.24060150375938,0.0
371,-0.5152105175121113,-0.1076099813873207,96.6667860083778,0.0
372,-0.4820454465615479,-0.07236722315617011,97.07581576268558,0.0
373,-0.4485688977155313,-0.03707566953885742,97.46588693957115,0.0
374,-0.41448439816545896,-0.0018342507485811788,97.83517038493157,0.0
375,-0.37976265966200545,0.03315876665812917,98.18181818181817,0.0
376,-0.34477000251018775,0.06752768332209899,98.50397094132856,0.0
377,-0.31028794846765334,0.10069566078483133,98.79976580796253,0.0
378,-0.2774203368812261,0.13192025226901594,99.06734515567561,0.0
379,-0.24741247879455663,0.16037895780286351,99.30486593843098,0.0
380,-0.221428278992566,0.18528432659404984,99.51050964583933,0.0
381,-0.20034027017836237,0.2060021617679554,99.68249280070884,0.0
382,-0.18458224625501898,0.22214682508030056,99.8190779212677,0.0
383,-0.17409666471448956,0.23363400476362642,99.91858485678335,0.0
384,-0.16838409815150182,0.24068171042247885,99.97940239163688,0.0
385,-0.16663628804018168,0.24376195628584257,100.0,1.0
386,-0.16791469070643816,0.2435157414680316,99.99143502363,0.0
387,-0.17132827245110446,0.24065030782907776,99.96608790016278,0.0
388,-0.17616963285717,0.23583916752044445,99.92449222930972,0.0
389,-0.18198465609056594,0.22964227465625278,99.86719607550852,0.0
390,-0.1885717583556831,0.22245732062439852,99.79476025035017,0.0
391,-0.19592573155095305,0.21450544663636575,99.7077566262126,0.0
392,-0.20415323654155515,0.20584769740175193,99.60676648856412,0.0
393,-0.2133897821108076,0.19642376348570695,99.49237893372576,0.0
394,-0.22374154811229244,0.1861025933677169,99.36518931819158,0.0
395,-0.23526207033628818,0.17473502419535608,99.22579776491182,0.0
396,-0.24795835083830103,0.16220076689038398,99.07480773124976,0.0
397,-0.26180939390096486,0.14844475667560492,98.91282464264144,0.0
398,-0.2767773531048916,0.13350014141289657,98.74045459531838,0.0
399,-0.2927986474219657,0.11749664721202979,98.55830313080926,0.0
400,-0.3097561847656857,0.10065392349959357,98.3669740843167,0.0
401,-0.3274474677557885,0.08326028315218865,98.16706850847864,0.0
402,-0.345569870408075,0.06563857802078985,97.95918367346938,0.0
403,-0.36374018466208335,0.04810299947072731,97.74391214388031,0.0
404,-0.38155242731580385,0.030913043985039433,97.52184093234294,0.0
405,-0.3986619087067383,0.014232935769106211,97.29355072942109,0.0
406,-0.41487153929811543,-0.0018945336599588553,97.05961520890386,0.0
407,-0.43019266953294916,-0.01755226943918626,96.82060040727846,0.0
408,-0.44485817528905125,-0.03292757143361099,96.57706417584903,0.0
409,-0.4592779076624138,-0.048267153355839226,96.32955570369789,0.0
410,-0.473942375751626,-0.06381640088435155,96.07861510945247,0.0
411,-0.48929552393997217,-0.07975564936776881,95.82477309962812,0.0
412,-0.5056079762419977,-0.09614841096823307,95.5685506911602,0.0
413,-0.5228853328308548,-0.11291495454111469,95.31045899561568,0.0
414,-0.5408403024829548,-0.12983941361958395,95.05099906248464,0.0
415,-0.5589424546989799,-0.14661068834758506,94.79066177889254,0.0
416,-0.5765376997295054,-0.16288869003698095,94.5299278230426,0.0
417,-0.5930073843358393,-0.17838021966486634,94.26926766869204,0.0
418,-0.6079224176045696,-0.19290502081271063,94.00914163798443,0.0
419,-0.6211474559006702,-0.20643353799064867,93.75,0.0
420,-0.6328643244399742,-0.21908368046683951,93.49228311244495,0.0
421,-0.6435067413224214,-0.231073225458065,93.23642160397767,0.0
422,-0.6536216338825027,-0.24263522209853677,92.98283659476147,0.0
423,-0.6636894029472299,-0.25391330442449134,92.73193995293882,0.0
424,-0.6739438596961995,-0.2648598567271686,92.48413458484026,0.0
425,-0.6842325788035877,-0.2751609792620455,92.23981475686838,0.0
426,-0.6939511611091499,-0.28420782619741375,91.99936644713384,0.0
427,-0.7020712198116265,-0.29112502376345006,91.76316772506537,0.0
428,-0.7072630774159291,-0.29485544926245605,91.53158915736631,0.0
429,-0.7080930870542012,-0.29428917004442307,91.30499423884626,0.0
430,-0.7032570050692588,-0.28841531533369075,91.08373984681876,0.0
431,-0.6918006023191438,-0.2764710040346685,90.86817671791964,0.0
432,-0.6732809759480394,-0.25806206262851644,90.65864994637151,0.0
433,-0.6478372843758561,-0.233235800620943,90.4554995028906,0.0
434,-0.6161633930564442,-0.2024951395074861,90.25906077360753,0.0
435,-0.5793990557073603,-0.1667538155817667,90.06966511855292,0.0
436,-0.5389725687276685,-0.1272419971102201,89.88764044943821,0.0
437,-0.49643189512545854,-0.0853787183829475,89.713311826648,0.0
438,-0.4532940545339944,-0.042631085749068355,89.5470020755475,0.0
439,-0.4109292245730523,-0.0003801841694550112,89.38903242240093,0.0
440,-0.3704826988731791,0.04018936376728881,89.23972315039413,0.0
441,-0.3328292074106734,0.07816416837181683,89.09939427645658,0.0
442,-0.2985519292686248,0.11293503140904906,88.96836624978778,0.0
443,-0.2679418777649598,0.14418795562505185,88.84696067320907,0.0
444,-0.2410191342904379,0.17185863448461092,88.73550104868818,0.0
445,-0.21758140151425567,0.196060564258342,88.63431354861989,0.0
446,-0.19728376366851977,0.2170003670415842,88.54372781469436,0.0
447,-0.17974510924182832,0.2348955976948897,88.46407778644739,0.0
448,-0.16466387457794673,0.24990971322072997,88.39570256186506,0.0
449,-0.1519143503000373,0.2621156839836716,88.33894729271304,0.0
450,-0.14159155365615617,0.27149406740115567,88.29416411757877,0.0
451,-0.13398229147813034,0.2779640645409531,88.2617131359586,0.0
452,-0.12946202300400908,0.2814386138144167,88.24196342709178,0.0
453,-0.12834442170766322,0.28188877465468853,88.23529411764706,1.0
454,-0.13073153257818174,0.2794001755179391,88.23529411764706,0.0
455,-0.13641648178937094,0.2742060509297769,88.23529411764706,0.0
456,-0.14487425028197687,0.26668713078284917,88.23529411764706,0.0
457,-0.15534519162133303,0.2573369560702681,88.23529411764706,0.0
458,-0.16698373361810265,0.24669987349143532,88.23529411764706,0.0
459,-0.17902438254984485,0.23529568472539858,88.23529411764706,0.0
460,-0.1909160462886294,0.22354796903759214,88.23529411764706,0.0
461,-0.2023920840625536,0.21173182508943794,88.23529411764706,0.0
462,-0.21346833684781347,0.19995175636697918,88.23529411764706,0.0
463,-0.22438349159754345,0.18815315091633894,88.23529411764706,0.0
464,-0.23550761915278573,0.17616319067596595,88.23529411764706,0.0
465,-0.2472441056227635,0.16375084494649406,88.23529411764706,0.0
466,-0.2599419656311029,0.15069209516821483,88.23529411764706,0.0
467,-0.27382693743480396,0.13682622819178267,88.23529411764706,0.0
468,-0.2889561933575672,0.1220917555186192,88.23529411764706,0.0
469,-0.3052029176551654,0.10653554613085583,88.23529411764706,0.0
470,-0.32227825936743665,0.09029499773533274,88.23529411764706,0.0
471,-0.3397935054668328,0.07355920434731171,88.23529411764706,0.0
472,-0.357353668432739,0.05651978341883336,88.23529411764706,0.0
473,-0.3746601765054537,0.039324208871197565,88.23529411764706,0.0
474,-0.39159276397470294,0.022043561775527992,88.23529411764706,0.0
475,-0.408243892400382,0.004662680495222504,88.23529411764706,0.0
476,-0.42489226033309757,-0.012905326055087901,88.23529411764706,0.0
477,-0.44192005712732907,-0.030784810629996925,88.23529411764706,0.0
478,-0.45969568134674116,-0.04909351409691927,88.23529411764706,0.0
479,-0.47845515048808973,-0.06790120443527342,88.23529411764706,0.0
480,-0.4982182055208663,-0.0872025306575208,88.23529411764706,0.0
481,-0.5187671484833667,-0.10691119678599476,88.23529411764706,0.0
482,-0.5396981507987356,-0.12687600938518254,88.23529411764706,0.0
483,-0.5605306210446522,-0.146912576486538,88.23529411764706,0.0
484,-0.5808385510529221,-0.16683950204157463,88.23529411764706,0.0
485,-0.6003577286711043,-0.18650638090883656,88.23529411764706,0.0
486,-0.6190298005152556,-0.2058032796380932,88.23529411764706,0.0
487,-0.6369666797297034,-0.22464699303838404,88.23529411764706,0.0
488,-0.6543477314506753,-0.2429464938182434,88.23529411764706,0.0
489,-0.67128539275086,-0.26055648516375796,88.23529411764706,0.0
490,-0.6877033486900606,-0.27723190648561546,88.23529411764706,0.0
491,-0.7032635189418542,-0.2925965451526777,88.23529411764706,0.0
492,-0.7173595913887841,-0.3061356092496068,88.23529411764706,0.0
493,-0.7291744813699523,-0.31721629454178946,88.23529411764706,0.0
494,-0.7377839731769604,-0.3251337536856002,88.23529411764706,0.0
495,-0.7422815534516255,-0.3291742671773985,88.23529411764706,0.0
496,-0.7418987474290024,-0.3286842263015606,88.23529411764706,0.0
497,-0.7360985239976174,-0.32313340453993133,88.23529411764706,0.0
498,-0.7246253411205764,-0.3121636698583341,88.23529411764706,0.0
499,-0.707504724943775,-0.29561876958533617,88.23529411764706,0.0
500,-0.6849980779112501,-0.2735556485197949,88.23529411764706,0.0
501,-0.6575319722089866,-0.24624146759568888,88.23529411764706,0.0
502,-0.625629865426312,-0.21414202572709418,88.23529411764706,0.0
503,-0.5898725348490502,-0.17790635481770922,88.23529411764706,0.0
504,-0.5509004323935757,-0.13834941991369148,88.23529411764706,0.0
505,-0.509451507333982,-0.09643135968285833,88.23529411764706,0.0
506,-0.46641039973509046,-0.053229055780145786,88.23529411764706,0.0
507,-0.4228368430434867,-0.00989525874604652,88.23529411764706,0.0
508,-0.37994572063358567,0.032397476910998216,88.23529411764706,0.0
509,-0.3390266839910056,0.07252663584191871,88.23529411764706,0.0
510,-0.3013123799806356,0.10949693982682965,88.23529411764706,0.0
511,-0.26782430388038525,0.14251431296199996,88.23529411764706,0.0
512,-0.23923710566434367,0.1710442385780038,88.23529411764706,0.0
513,-0.21580069818830294,0.1948435447467201,88.23529411764706,0.0
514,-0.19734382839287834,0.2139590819648042,88.23529411764706,0.0
515,-0.18335760318025496,0.2286930478307777,88.23529411764706,0.0
516,-0.17313225316611305,0.23954113833088625,88.23529411764706,0.0
517,-0.16590562455537247,0.24711453293120061,88.23529411764706,0.0
518,-0.16098377637696726,0.2520587825000673,88.23529411764706,0.0
519,-0.15781084272763055,0.25498169370647794,88.23529411764706,0.0
520,-0.15598768337468877,0.25639891323661756,88.23529411764706,0.0
521,-0.1552554773497574,0.2567013164124511,88.23529411764706,1.0
522,-0.15546505175666536,0.2561438252183418,88.23571900171122,0.0
523,-0.1565472735481592,0.25485194662736554,88.23698544633326,0.0
524,-0.1584911160688148,0.25284062018535575,88.23908117521721,0.0
525,-0.16132975023191706,0.25003982816850545,88.24199395695622,0.0
526,-0.16513240678021254,0.24632239217496735,88.24571160274473,0.0
527,-0.16999899364655696,0.24153083455321822,88.2502219641305,0.0
528,-0.17605403396429956,0.23550155439533405,88.25551293080548,0.0
529,-0.18343660209390564,0.2280854920733629,88.26157242843534,0.0
530,-0.1922843206223491,0.2191648333231575,88.2683884165268,0.0
531,-0.20271205127612554,0.20866527306989113,88.27594888633249,0.0
532,-0.21478868059562814,0.19656320907828728,88.28424185879236,0.0
533,-0.2285173013657044,0.18288727695088092,88.29325538251176,0.0
534,-0.2438245297803588,0.16771407808099462,88.30297753177504,0.0
535,-0.26056346921818024,0.15115880592278544,88.31339640459493,0.0
536,-0.27853189879017615,0.13336254346920734,88.32450012079653,0.0
537,-0.29750295135050864,0.11447892455181372,88.33627682013625,0.0
538,-0.3172609358272815,0.09466321892905742,88.34871466045463,0.0
539,-0.3376318514779706,0.07406642041976746,88.36180181586327,0.0
540,-0.358498311380191,0.05283553846933659,88.375526474965,0.0
541,-0.3797928070848491,0.031119282046045305,88.38987683910753,0.0
542,-0.4014706011822702,0.009076228542920492,88.40484112066967,0.0
543,-0.4234714633862077,-0.013118921527931787,88.42040754138048,0.0
544,-0.445684676089226,-0.035275674515295355,88.43656433067049,0.0
545,-0.467931822925232,-0.05719805559942244,88.45329972405514,0.0
546,-0.48997660638708146,-0.07870560063647604,88.4706019615502,0.0
547,-0.5115622852664466,-0.09966218199217422,88.48845928611871,0.0
548,-0.5324683466138905,-0.1200063586933845,88.50685994214953,0.0
549,-0.5525715136470599,-0.13977458975617987,88.52579217396716,0.0
550,-0.5718936471742954,-0.15910826827495209,88.54524422437288,0.0
551,-0.5906205064182478,-0.1782375521575342,88.56520433321661,0.0
552,-0.6090798253379193,-0.19743922688866655,88.58566073600011,0.0
553,-0.6276741504535431,-0.21697156832933448,88.60660166251071,0.0
554,-0.6467734569046825,-0.23699513109278178,88.62801533548593,0.0
555,-0.6665842642414269,-0.257493108333321,88.64988996930863,0.0
556,-0.687023153466771,-0.27820707290152286,88.67221376873295,0.0
557,-0.7076283999841493,-0.298602711466876,88.6949749276407,0.0
558,-0.7275393678744095,-0.31787558694285223,88.7181616278283,0.0
559,-0.7455583689792065,-0.3349998706576796,88.74176203782424,0.0
560,-0.7602877834757219,-0.3488149424966299,88.76576431173721,0.0
561,-0.770313841829167,-0.35813764130222564,88.79015658813448,0.0
562,-0.7743955217999845,-0.36188342204051555,88.81492698895114,0.0
563,-0.7716174949380914,-0.3591787132543608,88.84006361842988,0.0
564,-0.7614795655003379,-0.34944938339242637,88.8655545620912,0.0
565,-0.7439157449207456,-0.3324755113480582,88.89138788573462,0.0
566,-0.7192555462229521,-0.3084091083115393,88.91755163447058,0.0
567,-0.6881514556288363,-0.2777574335447552,88.94403383178314,0.0
568,-0.6514975719245205,-0.2413388252993876,88.97082247862376,0.0
569,-0.6103572783276128,-0.20021993795717125,88.99790555253614,0.0
570,-0.5659070133915747,-0.15564307422822016,89.02527100681215,0.0
571,-0.5193933180128196,-0.10895061864339399,89.05290676967925,0.0
572,-0.4720946513923718,-0.06151134791103558,89.08080074351923,0.0
573,-0.4252792099484941,-0.014651456470006152,89.10894080411872,0.0
574,-0.3801540730210656,0.030407997296695535,89.13731479995114,0.0
575,-0.3378068470716565,0.07260575620876503,89.16591055149097,0.0
576,-0.29914600791942014,0.11108528398921458,89.19471585055989,0.0
577,-0.26484887682884134,0.14522753618011522,89.22371845970515,0.0
578,-0.23532622471228973,0.17466895141696237,89.25290611161064,0.0
579,-0.2107101102983729,0.19930245017631987,89.28226650854022,0.0
580,-0.19086750027597996,0.21926038239630796,89.31178732181442,0.0
581,-0.17543784495439552,0.23488010832105338,89.34145619131974,0.0
582,-0.16388944080044193,0.2466549058350863,89.37126072505144,0.0
583,-0.15558761150829464,0.2551747730736246,89.40118849868992,0.0
584,-0.14986707602949262,0.2610630619070407,89.43122705521061,0.0
585,-0.14610077839342608,0.26491546416525025,89.46136390452786,0.0
586,-0.14375784305365227,0.2672475571235366,89.49158652317325,0.0
587,-0.14244453021105424,0.26845594145172585,89.52188235400797,0.0
588,-0.14192441895092617,0.26879616561545294,89.55223880597015,1.0
589,-0.14211742885780276,0.26837842455641475,89.58459728788173,0.0
590,-0.14308090403848905,0.267179793772232,89.62082065027366,0.0
591,-0.1449784660176253,0.26506984134932754,89.66077885786879,0.0
592,-0.1480425711798339,0.26184510564489616,89.70434234416936,0.0
593,-0.1525349567000989,0.2572672854123049,89.7513819027913,0.0
594,-0.15870736166271077,0.2511001016533251,89.80176858274012,0.0
595,-0.16676511940795385,0.24314059678769476,89.85537358753936,0.0
596,-0.17683834230246093,0.23324199163167164,89.91206817813408,0.0
597,-0.18896680389346096,0.22132690013110978,89.9717235795058,0.0
598,-0.20310240547117664,0.20739141259549848,90.03421089094579,0.0
599,-0.21912718131458211,0.1915019714603905,90.09940099994506,0.0
600,-0.23687836226816297,0.17378778481287682,90.16716449967063,0.0
601,-0.2561693053625618,0.15443158375876848,90.237371610007,0.0
602,-0.27679819783564125,0.13366086097938865,90.30989210215299,0.0
603,-0.29854376737433747,0.11174056851857922,90.38459522677182,0.0
604,-0.3211545545948464,0.0889669782744228,90.46134964570334,0.0
605,-0.344341549586003,0.06566140310069302,90.54002336725401,0.0
606,-0.3677817585340851,0.042162006994923354,90.62048368508991,0.0
607,-0.3911344578431887,0.01881208105220311,90.70259712076543,0.0
608,-0.414066213108925,-0.004056163585347883,90.7862293699275,0.0
609,-0.4362781463917825,-0.026142223016523608,90.87124525224274,0.0
610,-0.4575298582901908,-0.04720113613604225,90.95750866510122,0.0
611,-0.4776570348498878,-0.06706818470174204,91.04488254115715,0.0
612,-0.4965820677918593,-0.08568111147754456,91.13322880977215,0.0
613,-0.5143185002220786,-0.10309574842173719,91.22240836243263,0.0
614,-0.5309713701471592,-0.1194905907564984,91.31228102221738,0.0
615,-0.5467361984581391,-0.1351561400572717,91.40270551739634,0.0
616,-0.5618973994684259,-0.15046604227213933,91.4935394592451,0.0
617,-0.5768208833274505,-0.16582936050537914,91.58463932416342,0.0
618,-0.5919282552550593,-0.1816267065157474,91.67586044018913,0.0
619,-0.6076381400802403,-0.19813698214203354,91.76705697800082,0.0
620,-0.6242696665705698,-0.2154652917355257,91.85808194650511,0.0
621,-0.6419225962633818,-0.2334850214975514,91.94878719310509,0.0
622,-0.6603680320932721,-0.25180702066263705,92.03902340874744,0.0
623,-0.6789908226166531,-0.2697856184106184,92.12864013784589,0.0
624,-0.6968137215990997,-0.28656506828948153,92.2174857931773,0.0
625,-0.7126083879237433,-0.30116208288096014,92.3054076758468,0.0
626,-0.7250707136567877,-0.3125722806759305,92.3922520004143,0.0
627,-0.7330188573349131,-0.31988268765617706,92.47786392527405,0.0
628,-0.7355672718065409,-0.3223705562070487,92.56208758837361,0.0
629,-0.7322382964676867,-0.3195713687226446,92.64476614835559,0.0
630,-0.7229903413336556,-0.3113054830557872,92.72574183119926,0.0
631,-0.7081630746205511,-0.29766188918953174,92.80485598243412,0.0
632,-0.6883598989801772,-0.27894677900307874,92.8819491249902,0.0
633,-0.664301362002006,-0.25561183170636687,92.95686102274195,0.0
634,-0.6366869421983241,-0.22818056897521435,93.02943074979494,0.0
635,-0.60609706135045,-0.19719007716928388,93.09949676555414,0.0
636,-0.5729550117896636,-0.16316019271378263,93.16689699560301,0.0
637,-0.5375532042888853,-0.1265942657432223,93.23146891841083,0.0
638,-0.5001325755388052,-0.08800686486165864,93.29304965787449,0.0
639,-0.46099081838895195,-0.04796641657965801,93.35147608168658,0.0
640,-0.42058747504366595,-0.007136570230005204,93.40658490550963,0.0
641,-0.3796145342267953,0.03369996071087439,93.45821280291996,0.0
642,-0.339010137007539,0.07364722113183311,93.5061965210702,0.0
643,-0.2999072506524941,0.11173638970204763,93.55037300200259,0.0
644,-0.2635242538571191,0.14699695109206176,93.59057950952882,0.0
645,-0.2310170417783171,0.178546942001209,93.62665376157315,0.0
646,-0.20332126808265083,0.2056851696030564,93.6584340678584,0.0
647,-0.18101797975886613,0.22796681342952962,93.68575947279429,0.0
648,-0.16425437441205515,0.24524660949645422,93.70846990340856,0.0
649,-0.15274152889599507,0.25768024307539994,93.7264063221403,0.0
650,-0.14583291349461774,0.26568312866030297,93.7394108842953,0.0
651,-0.14266592648919255,0.2698544049530018,93.74732709994123,0.0
652,-0.14233130075331712,0.27088069485437455,93.75,1.0
653,-0.1440289389524904,0.2694374807733353,93.74942036444175,0.0
654,-0.14717582507825916,0.26610523936951697,93.74769605821362,0.0
655,-0.15144872077569954,0.2613132073985087,93.74484904246968,0.0
656,-0.1567641350606075,0.2553170939100329,93.74090135477839,0.0
657,-0.1632132057109422,0.2482099277098385,93.73587510390844,0.0
658,-0.17097571828500377,0.23995918509356556,93.7297924647062,0.0
659,-0.1802361100188008,0.2304595536391362,93.72267567306616,0.0
660,-0.19111823436565545,0.21958961543050914,93.71454702099632,0.0
661,-0.20364800102146058,0.20726212453003662,93.70542885177994,0.0
662,-0.217745353662661,0.1934606247731282,93.69534355523543,0.0
663,-0.23324015422142577,0.1782588822056949,93.68431356307532,0.0
664,-0.24990146391037324,0.16182303804703996,93.67236134436624,0.0
665,-0.2674679729216366,0.14439888037266999,93.65950940109033,0.0
666,-0.285669920757037,0.12628797342495923,93.6457802638102,0.0
667,-0.30423902262761077,0.10781676351117513,93.6311964874374,0.0
668,-0.32291008334106575,0.08930263811975343,93.61578064710645,0.0
669,-0.34142297138949584,0.07102070758591846,93.59955533415437,0.0
670,-0.35953425894884106,0.05317506541788783,93.58254315220711,0.0
671,-0.37704360261831926,0.035878401457111866,93.56476671337334,0.0
672,-0.39383196879497,0.019143730452856167,93.54624863454634,0.0
673,-0.40989976316997,0.002891169622654996,93.52701153381444,0.0
674,-0.4253867606651702,-0.013029201677953683,93.50707802698074,0.0
675,-0.44055650921919504,-0.028800311831371703,93.48647072419213,0.0
676,-0.455737577360253,-0.04459226718089419,93.46521222667835,0.0
677,-0.47123048894271763,-0.06051611555005766,93.4433251236013,0.0
678,-0.4872059504934454,-0.07658709503784558,93.42083198901452,0.0
679,-0.503628750190685,-0.09270641821790308,93.39775537893345,0.0
680,-0.5202368694928243,-0.10866727440032545,93.37411782851618,0.0
681,-0.5365875595247187,-0.12418545456238655,93.349941849355,0.0
682,-0.5521585341062215,-0.13894910792673074,93.32524992687847,0.0
683,-0.5664730701910331,-0.1526772131557668,93.30006451786434,0.0
684,-0.5792105606676798,-0.1651737652543099,93.27440804806271,0.0
685,-0.5902710311908513,-0.17636516576691347,93.24830290992968,0.0
686,-0.5997792228447408,-0.186311725728592,93.2217714604709,0.0
687,-0.6080333256352941,-0.19518964395248312,93.19483601919524,0.0
688,-0.615417833270039,-0.2032459552846157,93.16751886617774,0.0
689,-0.6223052290899483,-0.21073437316459084,93.13984224023187,0.0
690,-0.6289677426853589,-0.2178436263682056,93.1118283371906,0.0
691,-0.6355118870081443,-0.22463127832712287,93.08349930829588,0.0
692,-0.6418394515628533,-0.230975102961756,93.05487725869602,0.0
693,-0.6476327575019076,-0.23655123681039453,93.02598424605056,0.0
694,-0.6523611815965764,-0.24084409923076547,92.99684227924217,0.0
695,-0.6553097069059781,-0.24318810983707273,92.96747331719506,0.0
696,-0.6556350530618182,-0.2428362025299528,92.93789926779893,0.0
697,-0.6524552244313415,-0.23904574448648436,92.90814198693862,0.0
698,-0.6449699699689404,-0.23116945302013675,92.87822327762832,0.0
699,-0.6325942111985159,-0.21873793238805456,92.84816488924986,0.0
700,-0.6150721201607158,-0.20152192422459841,92.81798851689436,0.0
701,-0.5925365616375955,-0.17956616921584206,92.78771580080699,0.0
702,-0.5654923849122047,-0.15319216278349274,92.7573683259336,0.0
703,-0.5347283487059813,-0.12297275866993762,92.72696762156902,0.0
704,-0.5011891772109628,-0.08968604921953977,92.69653516110618,0.0
705,-0.4658530301512344,-0.054258069642700406,92.66609236188535,0.0
706,-0.4296533062545528,-0.017703245901753567,92.63566058514286,0.0
707,-0.3934600017533375,0.01893131395272893,92.60526113605864,0.0
708,-0.35810632488363714,0.05461530526183028,92.57491526390196,0.0
709,-0.3244253645231223,0.08837921502645354,92.54464416227445,0.0
710,-0.2932593371314408,0.11935489880595032,92.5144689694501,0.0
711,-0.26542071039954074,0.14681412976711472,92.48441076881114,0.0
712,-0.24161105285961046,0.17020431096750363,92.45449058937969,0.0
713,-0.22232592827898903,0.18917801851188948,92.42472940644384,0.0
714,-0.2077816059671535,0.20361141316347334,92.39514814227826,0.0
715,-0.19788950322368776,0.2136066120407979,92.36576766695818,0.0
716,-0.19228413095505292,0.21947494118649527,92.33660879926634,0.0
717,-0.19039139599703336,0.22170103336964908,92.3076923076923,1.0
718,-0.19151523075897067,0.2208910731030189,92.27788723925813,0.0
719,-0.1949229737727416,0.2177112135298205,92.2461013310281,0.0
720,-0.19991829133969086,0.21282368603874938,92.21241338413708,0.0
721,-0.20589779892312582,0.2068281937766375,92.17690222005508,0.0
722,-0.2123906201258703,0.20021499099821097,92.13964664936256,0.0
723,-0.2190802556529651,0.19333399779055963,92.10072544187406,0.0
724,-0.22580838095550265,0.18638186226909936,92.06021729811852,0.0
725,-0.23256201290950942,0.17940650466132205,92.01820082218167,0.0
726,-0.23944799025829788,0.17232670038757336,91.97475449591505,0.0
727,-0.24666014881694795,0.16496288614612792,91.9299566545128,0.0
728,-0.25444400636947523,0.15707466990820063,91.88388546345726,0.0
729,-0.2630616943077771,0.1484004457974669,91.83661889683167,0.0
730,-0.272757850737003,0.13869494235372934,91.78823471699674,0.0
731,-0.28372690137345624,0.12776132903146878,91.73881045562673,0.0
732,-0.2960840716542662,0.1154755384622197,91.68842339609934,0.0
733,-0.30984505060855283,0.10180160628039628,91.63715055723182,0.0
734,-0.32491972759353915,0.08679795141733691,91.58506867835533,0.0
735,-0.34112220486279327,0.0706154604611273,91.5322542057179,0.0
736,-0.3581935845898808,0.053488838783589246,91.47878328020572,0.0
737,-0.37582934661747636,0.03572283897300089,91.42473172637122,0.0
738,-0.39370261424558517,0.01767468375993446,91.37017504275613,0.0
739,-0.41147861530935426,-0.0002665660090618305,91.31518839349665,0.0
740,-0.4288215944757958,-0.01770348947798866,91.25984660119722,0.0
741,-0.44539982353792723,-0.0342566058526515,91.20422414105919,0.0
742,-0.4608952571150565,-0.04959306659916382,91.14839513624995,0.0
743,-0.4750223090316038,-0.06345629268365566,91.09243335449814,0.0
744,-0.48755692451153987,-0.0756937207140667,91.03641220589964,0.0
745,-0.4983736413188455,-0.08627852107873316,90.98040474191978,0.0
746,-0.5074844289275782,-0.09532049617647989,90.9244836555765,0.0
747,-0.515068624994306,-0.10306183607863226,90.86872128278908,0.0
748,-0.5214799635842885,-0.10985521789066881,90.81318960487813,0.0
749,-0.5272179044213798,-0.11612470185762072,90.75796025220137,0.0
750,-0.532858708423356,-0.12231339742720584,90.70310450891081,0.0
751,-0.5389556024673698,-0.12882504105414633,90.64869331881732,0.0
752,-0.5459312509040536,-0.13596849841234127,90.5947972923483,0.0
753,-0.5539923980861213,-0.14391411264341017,90.54148671458523,0.0
754,-0.5630915195737908,-0.15266865033500093,90.48883155436828,0.0
755,-0.5729447904528591,-0.16207186740497506,90.43690147445542,0.0
756,-0.5830961223326648,-0.17181343927798895,90.38576584272458,0.0
757,-0.5930020687949359,-0.18146534078152587,90.33549374440786,0.0
758,-0.6021085836195641,-0.1905226451716218,90.28615399534749,0.0
759,-0.6098990706304058,-0.19844551977404865,90.23781515626455,0.0
760,-0.6159090428834267,-0.2046966839714723,90.19054554803157,0.0
761,-0.6197178689427829,-0.20877105199635326,90.14441326794218,0.0
762,-0.6209355885910344,-0.21021684206933203,90.09948620697074,0.0
763,-0.6192004319314436,-0.2086493988374842,90.05583206801704,0.0
764,-0.6141934466690108,-0.2037600227313287,90.01351838513182,0.0
765,-0.6056661589127038,-0.19532228643433738,89.97261254371985,0.0
766,-0.5934704341888198,-0.18319794018864766,89.93318180171921,0.0
767,-0.5775789918779248,-0.16734388354914145,89.89529331175605,0.0
768,-0.5580898765925156,-0.14782098954210726,89.85901414427572,0.0
769,-0.5352161184605538,-0.12480480016405611,89.82441131165324,0.0
770,-0.5092692754655476,-0.09859716150984266,89.79155179328592,0.0
771,-0.4806489687232473,-0.06963668413990952,89.76050256167476,0.0
772,-0.44984761270203916,-0.03850465414640433,89.73133060950073,0.0
773,-0.4174706718413714,-0.0059220793506646885,89.70410297770518,0.0
774,-0.384261496050652,0.027266534315701002,89.67888678458468,0.0
775,-0.3511117172178365,0.06012587375882529,89.65574925591261,0.0
776,-0.31903822147444993,0.09167956187629175,89.63475775610178,0.0
777,-0.28911700320018785,0.12097390641312541,89.61597982042407,0.0
778,-0.2623791864135204,0.14714881529359872,89.59948318830551,0.0
779,-0.23968895943580237,0.1695061890617713,89.58533583771688,0.0
780,-0.22163177271458182,0.18756518602174424,89.57360602068267,0.0
781,-0.20844146909333336,0.20109529281194174,89.56436229993285,0.0
782,-0.19998712418509185,0.21012193154254905,89.55767358672514,0.0
783,-0.1958257421522927,0.21490449019980815,89.553609179867,0.0
784,-0.19530851998668047,0.21589180152361437,89.55223880597015,1.0
785,-0.1977113862150838,0.21366379905501498,89.5541175083721,0.0
786,-0.202351884909857,0.20886936040453352,89.5596762035198,0.0
787,-0.2086597795702837,0.20216900419319447,89.56879941062617,0.0
788,-0.21618799890267282,0.19418780766073904,89.58137242413798,0.0
789,-0.22457622210726513,0.18547996199476013,89.59728122344943,0.0
790,-0.23349923564159578,0.17650323521006034,89.6164123859318,0.0
791,-0.2426358951537708,0.16760031343708948,89.63865300318454,0.0
792,-0.2516802713456569,0.15898478462375099,89.66389060042184,0.0
793,-0.2603924221866778,0.15073179038293305,89.69201305891761,0.0
794,-0.26866517891069774,0.1427758969652323,89.72290854144119,0.0
795,-0.2765753384042956,0.13492024406012237,89.75646542062377,0.0
796,-0.2843945838430156,0.12686066838371157,89.79257221020293,0.0
797,-0.2925515905875865,0.11822614835731213,89.83111749910168,0.0
798,-0.3015535008276527,0.10863319675911909,89.87198988830347,0.0
799,-0.31188580558837925,0.09774784719757937,89.9150779304935,0.0
800,-0.3239127832604917,0.08534584762761233,89.96027007244156,0.0
801,-0.3377979115088172,0.07136053488899313,90.0074546001088,0.0
802,-0.35345815171274003,0.05590905350856023,90.05651958646637,0.0
803,-0.3705597090886425,0.03929094444846323,90.10735284201954,0.0
804,-0.38855631094702775,0.021957988822087986,90.15984186803641,0.0
805,-0.40676420285227616,0.004459527026790637,90.2138738124851,0.0
806,-0.4244614252946888,-0.01262784647265313,90.26933542868854,0.0
807,-0.44099374823130855,-0.028774286776981142,90.32611303670991,0.0
808,-0.45586748164803187,-0.04356175622051331,90.38409248748705,0.0
809,-0.46881143151299165,-0.05672924768823391,90.44315912973673,0.0
810,-0.47979662232186243,-0.06819115800279914,90.50319777965488,0.0
811,-0.4890117178208405,-0.07802697888025051,90.56409269344124,0.0
812,-0.49680187005462095,-0.08644588862443416,90.6257275426807,0.0
813,-0.5035862534014045,-0.09373436675926046,90.6879853926161,0.0
814,-0.509772755605232,-0.10019771834999232,90.75074868334997,0.0
815,-0.5156866892341389,-0.10610688495298991,90.81389921401542,0.0
816,-0.5215251753887508,-0.11166012081979299,90.87731812995742,0.0
817,-0.527342326617805,-0.11696547445732206,90.9408859129684,0.0
818,-0.5330645494982176,-0.12204533126587375,91.00448237462298,0.0
819,-0.5385308272100251,-0.12685951090405967,91.06798665275753,0.0
820,-0.5435490235698368,-0.13133952695845383,91.13127721114122,0.0
821,-0.5479555418807154,-0.13542437236295046,91.19423184238582,0.0
822,-0.5516633087586251,-0.13908803304097073,91.25672767414056,0.0
823,-0.5546846335779086,-0.14235088837425003,91.31864117861927,0.0
824,-0.5571222635854476,-0.1452708466993594,91.37984818550483,0.0
825,-0.5591314527289512,-0.14791475785454195,91.4402238982764,0.0
826,-0.560863113300463,-0.15031541121605424,91.49964291400167,0.0
827,-0.5623999258016742,-0.15242331169798978,91.55797924663577,0.0
828,-0.5636952701525149,-0.15406462001436483,91.61510635386554,0.0
829,-0.5645237100986413,-0.1549166195103402,91.67089716753479,0.0
830,-0.5644542076091099,-0.15450967545180863,91.72522412768352,0.0
831,-0.5628606161930109,-0.15226016202327755,91.77795922023017,0.0
832,-0.5589821013857581,-0.14753297465903992,91.82897401832166,0.0
833,-0.5520347133040514,-0.13972613091028668,91.87813972737159,0.0
834,-0.5413567176933239,-0.12836489588461397,91.9253272338022,0.0
835,-0.5265533153716515,-0.11319003903477495,91.97040715749961,0.0
836,-0.5076012475221476,-0.09422496976139069,92.01324990798673,0.0
837,-0.48488513374263403,-0.07180963549799046,92.05372574431115,0.0
838,-0.4591605115949537,-0.04659448829204803,92.09170483863873,0.0
839,-0.4314617998139446,-0.019494313906448686,92.12705734353706,0.0
840,-0.4029853786952407,0.008392072019933236,92.1596534629238,0.0
841,-0.3749743950530931,0.035885404953377595,92.18936352664835,0.0
842,-0.3486177544276315,0.061839081757389294,92.21605806866582,0.0
843,-0.32496172409056406,0.08524724419827986,92.23960790875356,0.0
844,-0.30482809016493073,0.10533437490692696,92.25988423771162,0.0
845,-0.28874008817486785,0.12161565328228469,92.27675870597827,0.0
846,-0.2768698720510827,0.13392132884470415,92.29010351558223,0.0
847,-0.2690283872360917,0.1423833014658207,92.2997915153427,0.0
848,-0.26471275718146153,0.1473873914040114,92.30569629921803,0.0
849,-0.2632088132371875,0.14949965031342585,92.3076923076923,1.0
850,-0.2637261429072758,0.1493786051242361,92.30495541640984,0.0
851,-0.2655309209324169,0.1476867788249149,92.29685408561834,0.0
852,-0.2680440302060963,0.14501386351643006,92.2835536470257,0.0
853,-0.27088679650874276,0.14182079681643292,92.26522103839847,0.0
854,-0.2738760677127603,0.13840952599301398,92.24202461981662,0.0
855,-0.27698532926176106,0.13491853848293078,92.21413399485091,0.0
856,-0.2802937887262656,0.13134032962876066,92.18171983693941,0.0
857,-0.2839410076518926,0.12755453408913847,92.14495372121446,0.0
858,-0.288094819806631,0.12336962288402663,92.10400796200685,0.0
859,-0.2929304942326163,0.11856657175586258,92.0590554562276,0.0
860,-0.29861391844883695,0.11293920237825028,92.0102695328057,0.0
861,-0.3052825993131689,0.10632744598020145,91.95782380833542,0.0
862,-0.3130235374968264,0.09864121090348361,91.90189204906429,0.0
863,-0.3218524342100266,0.08987371172398456,91.84264803933176,0.0
864,-0.3317008300733021,0.0801040739408165,91.78026545654623,0.0
865,-0.34241593384282415,0.06948986913773626,91.71491775276984,0.0
866,-0.3537738134689992,0.05825103461431563,91.64677804295943,0.0
867,-0.3655027784644781,0.04664738268948114,91.57601899989592,0.0
868,-0.3773118890149722,0.03495252793392201,91.50281275581585,0.0
869,-0.38891994827590587,0.023427439901990862,91.42733081074375,0.0
870,-0.40008212972273205,0.012296858045386543,91.34974394750907,0.0
871,-0.4106127807551288,0.0017314200943580813,91.27022215341744,0.0
872,-0.4204024934936951,-0.008162446662018076,91.18893454853358,0.0
873,-0.42942563723837324,-0.017343965905915915,91.10604932052158,0.0
874,-0.43773367198414614,-0.02583120718924066,91.02173366597785,0.0
875,-0.4454323790422961,-0.033687735172033356,90.93615373818297,0.0
876,-0.4526477891157543,-0.041005373303856146,90.84947460118953,0.0
877,-0.45949250559597166,-0.04788616511813478,90.76186019015715,0.0
878,-0.46604594651344533,-0.054426419505504184,90.67347327783833,0.0
879,-0.47235566410725294,-0.060705013022676266,90.5844754471145,0.0
880,-0.47845485718051617,-0.06677714629836551,90.49502706947693,0.0
881,-0.4843810393448238,-0.07267379710882109,90.40528728934414,0.0
882,-0.49018022675792106,-0.07840635008406516,90.31541401410489,0.0
883,-0.49589165984082,-0.08397529252947067,90.22556390977444,0.0
884,-0.5015234894706553,-0.08938129269386015,90.1358924021513,0.0
885,-0.5070392973128972,-0.09463629931029918,90.04655368336164,0.0
886,-0.5123712962180668,-0.09977160889601482,89.95770072367952,0.0
887,-0.5174598781223969,-0.10483949793649733,89.86948528851342,0.0
888,-0.5223004298769914,-0.10990550098615842,89.78205796045098,0.0
889,-0.5269687921851586,-0.1150300715665897,89.69556816625843,0.0
890,-0.5316029656719612,-0.12024109367852862,89.61016420873356,0.0
891,-0.5363381424105773,-0.12550187371530724,89.52599330331721,0.0
892,-0.5412149386878885,-0.13068180020918785,89.4432016193716,0.0
893,-0.5460953321613008,-0.1355377673235556,89.3619343260416,0.0
894,-0.5506203898438563,-0.13971310773485066,89.28233564261926,0.0
895,-0.554229215798377,-0.1427573011601855,89.20454889334067,0.0
896,-0.5562367831260332,-0.14416500468677063,89.12871656655037,0.0
897,-0.5559486160935988,-0.14342835550312305,89.05498037817704,0.0
898,-0.5527795946594644,-0.14009339657814812,88.98348133947262,0.0
899,-0.5463451084304164,-0.13381077355301907,88.91435982897605,0.0
900,-0.5365038839952884,-0.12437268092729932,88.84775566867191,0.0
901,-0.5233485232165944,-0.1117317416777508,88.78380820432503,0.0
902,-0.5071560714449797,-0.09600188940886713,88.72265638998178,0.0
903,-0.4883212142241321,-0.07744506432679565,88.66443887664038,0.0
904,-0.4672960114164704,-0.05644961904702137,88.60929410510384,0.0
905,-0.44455310053454244,-0.03350634796495322,88.55736040304143,0.0
906,-0.42057761747670414,-0.009186276538253574,88.50877608629665,0.0
907,-0.39588128506272763,0.015878422736114825,88.46367956449387,0.0
908,-0.371024104450085,0.041011753253796995,88.4222094510085,0.0
909,-0.34662715791401616,0.06551260375090857,88.38450467738066,0.0
910,-0.3233644803035498,0.08867829219912395,88.35070461226726,0.0
911,-0.3019307724527362,0.10983517552588992,88.32094918504315,0.0
912,-0.28299097322527317,0.12837623323763608,88.29537901417832,0.0
913,-0.26712312542016386,0.14380278798184934,88.27413554053608,0.0
914,-0.2547654348362897,0.1557651079234312,88.25736116575435,0.0
915,-0.24617357338961965,0.16409517945524707,88.24519939589247,0.0
916,-0.24138975285171632,0.16882485961432625,88.23779499054524,0.0
917,-0.240225146401448,0.17018406779239947,88.23529411764706,1.0
918,-0.24226190032198333,0.16857652764063474,88.23615266908325,0.0
919,-0.24688522120615317,0.16453440007332978,88.23869390667375,0.0
920,-0.2533533598693561,0.15865724780147925,88.24286634084312,0.0
921,-0.2609014414534776,0.15154422387313474,88.24861864727879,0.0
922,-0.2688588320677194,0.14373024684443952,88.25589964820944,0.0
923,-0.2767485445877215,0.13563654304726205,88.26465829431824,0.0
924,-0.284338883945368,0.12754317199516219,88.27484364728159,0.0
925,-0.29163280290152904,0.11958655348607014,88.28640486292495,0.0
926,-0.2988021833453169,0.1117797182788074,88.29929117498843,0.0
927,-0.30609211936640834,0.10404840293647355,88.31345187949523,0.0
928,-0.31372688634735374,0.09627341773050166,88.32883631971747,0.0
929,-0.32184379566781246,0.08832957905868219,88.3453938717334,0.0
930,-0.3304682118506729,0.0801137987424917,88.36307393057268,0.0
931,-0.3395288720433424,0.07155885217175015,88.38182589694493,0.0
932,-0.34890167480084383,0.06263368546295796,88.40159916454914,0.0
933,-0.35846403647698377,0.05333462629917945,88.42234310796125,0.0
934,-0.3681410035846348,0.04367363241737025,88.44400707109781,0.0
935,-0.37792830002817884,0.03366941860765125,88.46654035625497,0.0
936,-0.3878854202132179,0.023345244672847112,88.48989221372133,0.0
937,-0.398101625864279,0.012734112159500245,88.51401183196514,0.0
938,-0.40864633486078805,0.0018891231059617042,88.53884832839549,0.0
939,-0.41952026618320304,-0.00910527174772708,88.56435074069871,0.0
940,-0.4306234399942139,-0.02012589560537098,88.59046801875061,0.0
941,-0.44175092558565887,-0.031010990436684274,88.61714901710667,0.0
942,-0.4526187065921045,-0.04156927143224632,88.64434248807159,0.0
943,-0.46291278158330834,-0.05159663959228093,88.67199707535097,0.0
944,-0.47234747362178947,-0.06089714317266261,88.70006130828729,0.0
945,-0.4807161414120228,-0.06930375827481706,88.72848359668335,0.0
946,-0.487920086656016,-0.0766949276644456,88.75721222621648,0.0
947,-0.4939688171449629,-0.08300433558786886,88.78619535444652,0.0
948,-0.4989546083918418,-0.08822350538964485,88.81538100742162,0.0
949,-0.5030129835253091,-0.09239872418717578,88.84471707688553,0.0
950,-0.5062849265930899,-0.09562486995417384,88.87415131809026,0.0
951,-0.508894663525311,-0.09803862062482847,88.90363134821837,0.0
952,-0.5109494663378791,-0.09981238059312349,88.93310464541915,0.0
953,-0.512558093540162,-0.10114857023169084,88.96251854846264,0.0
954,-0.5138561418980142,-0.10227238591076332,88.9918202570162,0.0
955,-0.5150232255445795,-0.10342038851264417,89.0209568325478,0.0
956,-0.5162799291786443,-0.1048226713739382,89.04987519986008,0.0
957,-0.5178604166136769,-0.10667785156910468,89.07852214926002,0.0
958,-0.5199657676885674,-0.10912231381563585,89.10684433936758,0.0
959,-0.5227098105546181,-0.11219739218924361,89.13478830056819,0.0
960,-0.5260713805244716,-0.11581987022833042,89.16230043911213,0.0
961,-0.5298646206262668,-0.11976185534822309,89.18932704186543,0.0
962,-0.5337335214811947,-0.12364555011810303,89.2158142817147,0.0
963,-0.5371704373983169,-0.12695678440668384,89.24170822363021,0.0
964,-0.539553319434991,-0.12907867191428518,89.2669548313892,0.0
965,-0.5401951233435083,-0.12934379779758953,89.29149997496285,0.0
966,-0.5384016112854111,-0.1271003451009255,89.3152894385684,0.0
967,-0.533537777459821,-0.12178494146722679,89.33826892938914,0.0
968,-0.5251038083980447,-0.11299317208367293,89.36038408696278,0.0
969,-0.5128161436287146,-0.1005380675308538,89.38158049324018,0.0
970,-0.49667988275258595,-0.08448776056736598,89.401803683314,0.0
971,-0.47703150654333104,-0.06517602050980191,89.42099915681797,0.0
972,-0.4545317789945279,-0.043183264781688865,89.43911238999577,0.0
973,-0.4301000959512582,-0.01929024485011495,89.45608884843834,0.0
974,-0.4048002031417945,0.005589074088484615,89.47187400048816,0.0
975,-0.37970527766039514,0.030485898213291007,89.48641333130747,0.0
976,-0.35577876058163876,0.05445570820118181,89.4996523576076,0.0
977,-0.3338005327954042,0.07664867402830977,89.51153664303538,0.0
978,-0.31434809277280823,0.09636473457369772,89.52201181421202,0.0
979,-0.29781898348882496,0.11309009097006556,89.53102357741874,0.0
980,-0.284466041219834,0.12651485138008653,89.53851773592304,0.0
981,-0.2744184974605529,0.13653345738690714,89.54444020793855,0.0
982,-0.26767757656699753,0.14323022483938982,89.54873704520996,0.0
983,-0.26409522357426746,0.1468523022084737,89.55135445221454,0.0
984,-0.2633577983821881,0.14777229552773696,89.55223880597015,1.0
985,-0.26499684949600044,0.14644328836200113,89.55223880597015,0.0
986,-0.2684376928181241,0.1433500996606908,89.55223880597015,0.0
987,-0.2730799679451654,0.1389619505668953,89.55223880597015,0.0
988,-0.27839025347357965,0.13369250336828875,89.55223880597015,0.0
989,-0.283980569958341,0.12787277311392736,89.55223880597015,0.0
990,-0.28964979262184315,0.12174037100263774,89.55223880597015,0.0
991,-0.29537577006927473,0.11544520108362949,89.55223880597015,0.0
992,-0.30126049295502233,0.10906795899532122,89.55223880597015,0.0
993,-0.3074449362164734,0.10264474871200621,89.55223880597015,0.0
994,-0.3140206698527143,0.09618992037051059,89.55223880597015,0.0
995,-0.3209687047311458,0.08971040928350778,89.55223880597015,0.0
996,-0.32814949668783705,0.08320821502036643,89.55223880597015,0.0
997,-0.3353511314945546,0.07667220301697741,89.55223880597015,0.0
998,-0.34237979339319013,0.07006463526843573,89.55223880597015,0.0
999,-0.3491568394432532,0.06331023266452535,89.55223880597015,0.0
1000,-0.3557802729709972,0.05629518377473982,89.55223880597015,0.0
1001,-0.3625202817073503,0.04888033771888747,89.55223880597015,0.0
1002,-0.36974499027512353,0.04092785786562442,89.55223880597015,0.0
1003,-0.3778019300702697,0.03233555934535362,89.55223880597015,0.0
1004,-0.386899113846127,0.023069779360597897,89.55223880597015,0.0
1005,-0.3970285760150263,0.013187143654981172,89.55223880597015,0.0
1006,-0.40795636567722965,0.0028382094394757973,89.55223880597015,0.0
1007,-0.4192765898624601,-0.007749147264625826,89.55223880597015,0.0
1008,-0.43050596507244293,-0.018303124862085275,89.55223880597015,0.0
1009,-0.4411873341960671,-0.028550088244335997,89.55223880597015,0.0
1010,-0.4509752356939763,-0.038255006263830806,89.55223880597015,0.0
1011,-0.4596873084485014,-0.04725052654687423,89.55223880597015,0.0
1012,-0.46731536869684176,-0.055448271470365615,89.55223880597015,0.0
1013,-0.47399706744957787,-0.06283089980742868,89.55223880597015,0.0
1014,-0.47995491688062025,-0.0694287258010579,89.55223880597015,0.0
1015,-0.48541625526641347,-0.07528880053455593,89.55223880597015,0.0
1016,-0.4905345209575947,-0.08044623254182945,89.55223880597015,0.0
1017,-0.49533524822135677,-0.08490664021823086,89.55223880597015,0.0
1018,-0.49970570045210855,-0.08864520971698188,89.55223880597015,0.0
1019,-0.503434455593464,-0.0916228037054888,89.55223880597015,0.0
1020,-0.5062904412140358,-0.09381432641875936,89.55223880597015,0.0
1021,-0.5081165544161267,-0.0952405856618188,89.55223880597015,0.0
1022,-0.508907039705099,-0.09599334598313197,89.55223880597015,0.0
1023,-0.5088425053990406,-0.09624459471416281,89.55223880597015,0.0
1024,-0.5082698149919624,-0.09623487423473531,89.55223880597015,0.0
1025,-0.5076312265965691,-0.09624079381189538,89.55223880597015,0.0
1026,-0.5073623888649836,-0.09652707728868228,89.55223880597015,0.0
1027,-0.5077873278365577,-0.09729235385317338,89.55223880597015,0.0
1028,-0.5090378105390847,-0.09861945022761298,89.55223880597015,0.0
1029,-0.5110151704998357,-0.10043997975023826,89.55223880597015,0.0
1030,-0.513398841291788,-0.10252002093240838,89.55223880597015,0.0
1031,-0.5156930358450764,-0.10446958014752557,89.55223880597015,0.0
1032,-0.5172955663058255,-0.1057744198975427,89.55223880597015,0.0
1033,-0.5175719220190471,-0.10584558922044335,89.55223880597015,0.0
1034,-0.5159217575020061,-0.10408008643115665,89.55223880597015,0.0
1035,-0.5118311534027588,-0.09992552434363897,89.55223880597015,0.0
1036,-0.5049101104606389,-0.09294210906161976,89.55223880597015,0.0
1037,-0.4949192008504273,-0.08285619311948444,89.55223880597015,0.0
1038,-0.48179102923505834,-0.06960070240252297,89.55223880597015,0.0
1039,-0.4656504391907209,-0.05333867083033099,89.55223880597015,0.0
1040,-0.44683254560848845,-0.03446702050127433,89.55223880597015,0.0
1041,-0.42589159848229463,-0.013598854128748988,89.55223880597015,0.0
1042,-0.4035896220193844,0.008475849076334523,89.55223880597015,0.0
1043,-0.3808547964597157,0.030849024869384567,89.55223880597015,0.0
1044,-0.35870657021986013,0.05256807389158197,89.55223880597015,0.0
1045,-0.3381551569309286,0.07271689921274001,89.55223880597015,0.0
1046,-0.3200927022244729,0.09049532990327439,89.55223880597015,0.0
1047,-0.3051975727508198,0.10528728359812552,89.55223880597015,0.0
1048,-0.2938702250850487,0.1167090680118135,89.55223880597015,0.0
1049,-0.28621067850326615,0.12463178184143342,89.55223880597015,0.0
1050,-0.2820375591962252,0.12917539723547597,89.55223880597015,0.0
1051,-0.2809406170011035,0.13067609563921379,89.55223880597015,1.0
1052,-0.2823542519891085,0.12963204630173308,89.55223880597015,0.0
1053,-0.2856386771273262,0.12663546052978056,89.55223880597015,0.0
1054,-0.2901568656987682,0.12230008175228155,89.55223880597015,0.0
1055,-0.29533858059851215,0.11719322755408287,89.55223880597015,0.0
1056,-0.3007268341804441,0.11178027070406985,89.55223880597015,0.0
1057,-0.3060059318435386,0.10638735937813038,89.55223880597015,0.0
1058,-0.31101252816902597,0.10118559603434478,89.55223880597015,0.0
1059,-0.31573144847576895,0.09619714275628094,89.55223880597015,0.0
1060,-0.32027725573446253,0.09132105292237644,89.55223880597015,0.0
1061,-0.32486205618328684,0.08637425029011472,89.55223880597015,0.0
1062,-0.3297507228803318,0.08114118612871848,89.55223880597015,0.0
1063,-0.33520669901619754,0.07542452733080737,89.55223880597015,0.0
1064,-0.3414344892974872,0.06908900455036145,89.55223880597015,0.0
1065,-0.34852813012860856,0.06209147707442793,89.55223880597015,0.0
1066,-0.3564370259434616,0.0544924074072568,89.55223880597015,0.0
1067,-0.36495987809193436,0.046447101784793964,89.55223880597015,0.0
1068,-0.3737728762698919,0.03817879217677342,89.55223880597015,0.0
1069,-0.3824901596198471,0.029939189759114866,89.55223880597015,0.0
1070,-0.39074477028852983,0.021964702575987077,89.55223880597015,0.0
1071,-0.398270148667496,0.014437373595351587,89.55223880597015,0.0
1072,-0.4049591467383736,0.007458411714328282,89.55223880597015,0.0
1073,-0.4108819275449026,0.0010391376178985542,89.55223880597015,0.0
1074,-0.41625577134857533,-0.004890025353835717,89.55223880597015,0.0
1075,-0.42137527516207307,-0.010456113312575569,89.55223880597015,0.0
1076,-0.42652497564806724,-0.015812434665695756,89.55223880597015,0.0
1077,-0.4319025154112579,-0.02110745046769402,89.55223880597015,0.0
1078,-0.43757645641403947,-0.026460431135220557,89.55223880597015,0.0
1079,-0.44349017208019903,-0.0319477237025514,89.55223880597015,0.0
1080,-0.44950668826108175,-0.03759984491289074,89.55223880597015,0.0
1081,-0.45547490881002434,-0.043406489539461406,89.55223880597015,0.0
1082,-0.46129046364627113,-0.04932492974805399,89.55223880597015,0.0
1083,-0.46692712954987087,-0.05528762013152663,89.55223880597015,0.0
1084,-0.4724267940923499,-0.06120681955992095,89.55223880597015,0.0
1085,-0.4778531922852892,-0.0669767789670558,89.55223880597015,0.0
1086,-0.48323045821897764,-0.07247633249079295,89.55223880597015,0.0
1087,-0.48849496768525347,-0.07757555672587008,89.55223880597015,0.0
1088,-0.49348418349524825,-0.08214908955112624,89.55223880597015,0.0
1089,-0.4979709517156737,-0.08609603478331132,89.55223880597015,0.0
1090,-0.50173263867427,-0.08936307077714194,89.55223880597015,0.0
1091,-0.5046299410258549,-0.09196466888041353,89.55223880597015,0.0
1092,-0.5066659168438409,-0.09399328585164492,89.55223880597015,0.0
1093,-0.508002718479597,-0.09561355045277022,89.55223880597015,0.0
1094,-0.5089281707832699,-0.09703762709669651,89.55223880597015,0.0
1095,-0.509780940345178,-0.0984832868196065,89.55223880597015,0.0
1096,-0.5108557801282092,-0.10012059140823644,89.55223880597015,0.0
1097,-0.5123150795765669,-0.10201638689152595,89.55223880597015,0.0
1098,-0.5141284634229547,-0.10408725486765602,89.55223880597015,0.0
1099,-0.5160508476320248,-0.10607094480712377,89.55223880597015,0.0
1100,-0.5176366434049172,-0.1075238437657601,89.55223880597015,0.0
1101,-0.5182797825545491,-0.10784826958429353,89.55223880597015,0.0
1102,-0.5172691363914371,-0.10634893250258007,89.55223880597015,0.0
1103,-0.5138548913352371,-0.1023133873588504,89.55223880597015,0.0
1104,-0.5073276952874718,-0.09510721228129868,89.55223880597015,0.0
1105,-0.49711291914323297,-0.08427149837449532,89.55223880597015,0.0
1106,-0.48287513823805955,-0.06960854170058207,89.55223880597015,0.0
1107,-0.464616313014571,-0.05124189847651017,89.55223880597015,0.0
1108,-0.4427420560715804,-0.029639528186586293,89.55223880597015,0.0
1109,-0.4180703627278443,-0.00559355820092193,89.55223880597015,0.0
1110,-0.39176869878563,0.019843319538735568,89.55223880597015,0.0
1111,-0.36522493896178737,0.04545775296666649,89.55223880597015,0.0
1112,-0.33987724334873015,0.06999861819795776,89.55223880597015,0.0
1113,-0.317038932707624,0.09230545554300824,89.55223880597015,0.0
1114,-0.29775251512953677,0.11142393107200477,89.55223880597015,0.0
1115,-0.2826946908515974,0.12669198652608446,89.55223880597015,0.0
1116,-0.27213869213403635,0.1377853371033407,89.55223880597015,0.0
1117,-0.2659689640153437,0.14471778526172516,89.55223880597015,0.0
1118,-0.2637388618640711,0.14779916074133737,89.55223880597015,1.0
1119,-0.26476221866974453,0.14756028179886918,89.55138014423025,0.0
1120,-0.26822917814832536,0.14465906383136493,89.54883826194205,0.0
1121,-0.2733323816602785,0.1397840171855887,89.54466444720008,0.0
1122,-0.2793829963581943,0.13357054764936882,89.53891015126662,0.0
1123,-0.2858925194970066,0.12654187982054516,89.53162697015736,0.0
1124,-0.29260098093317244,0.11908077604771211,89.52286662678154,0.0
1125,-0.2994461441428697,0.11143168843142337,89.51268095364576,0.0
1126,-0.30648696265754327,0.10372696636505307,89.50112187612909,0.0
1127,-0.3138095598260646,0.09602656559102182,89.48824139633744,0.0
1128,-0.3214479766133139,0.08835924009828725,89.47409157754313,0.0
1129,-0.3293430479723203,0.08075462354756299,89.45872452921589,0.0
1130,-0.33734599190277403,0.07325936354930758,89.44219239264994,0.0
1131,-0.3452570873424272,0.06593545284342035,89.42454732719199,0.0
1132,-0.3528808501670008,0.05884379546421831,89.40584149707318,0.0
1133,-0.36007899909999685,0.05201970845616244,89.38612705884849,0.0
1134,-0.36680827394825394,0.04544878017514983,89.36545614944568,0.0
1135,-0.3731372205315775,0.03905111009472382,89.3438808748255,0.0
1136,-0.37924110405601774,0.032679746997221426,89.32145329925473,0.0
1137,-0.38537664031777147,0.026135751826398,89.29822543519225,0.0
1138,-0.3918399022830468,0.019198510759646268,89.27424923378841,0.0
1139,-0.3989132370259217,0.011666469486001488,89.24957657599779,0.0
1140,-0.4068100169936061,0.0034009737915590074,89.22425926430394,0.0
1141,-0.41562748413222234,-0.0056352021836308455,89.19834901505521,0.0
1142,-0.4253162530971782,-0.015352612655821447,89.17189745141042,0.0
1143,-0.43567096980412023,-0.02552923753320155,89.1449560968916,0.0
1144,-0.44634262020979254,-0.03582688286976325,89.11757636954256,0.0
1145,-0.45687093566111675,-0.0458290403404035,89.08980957668985,0.0
1146,-0.466735052698508,-0.05509542135192569,89.06170691030383,0.0
1147,-0.4754201538339975,-0.06322495477474227,89.03331944295655,0.0
1148,-0.4824951909643376,-0.06991677915766425,89.00469812437348,0.0
1149,-0.4876914553187418,-0.07501824083061336,88.975893778575,0.0
1150,-0.4909657165500835,-0.07855048060580296,88.94695710160494,0.0
1151,-0.49252892378320284,-0.0807058362491524,88.91793865984177,0.0
1152,-0.49282569849904473,-0.08181650631278885,88.88888888888889,0.0
1153,-0.4924614870149431,-0.08229973228582495,88.85985809304033,0.0
1154,-0.4920895445668387,-0.08258985667457326,88.83089644531766,0.0
1155,-0.49228298215086347,-0.08307068622041361,88.80205398807449,0.0
1156,-0.49342309864971906,-0.08402167801585946,88.77338063416441,0.0
1157,-0.49563235730472155,-0.08558831144983166,88.74492616866875,0.0
1158,-0.49876967259217475,-0.08778120485194311,88.7167402511805,0.0
1159,-0.5024898142574634,-0.09050145125363217,88.68887241864033,0.0
1160,-0.5063512751394802,-0.09358310629930479,88.6613720887215,0.0
1161,-0.5099421908830523,-0.09683955572368234,88.63428856376044,0.0
1162,-0.5129864720867885,-0.1000998624913267,88.60767103522905,0.0
1163,-0.5153958615758726,-0.10322443787047646,88.58156858874679,0.0
1164,-0.5172489021146586,-0.10609569561234146,88.55603020962886,0.0
1165,-0.5187012385386143,-0.10858701839253887,88.53110478896836,0.0
1166,-0.5198557906933021,-0.11052023410307782,88.5068411302502,0.0
1167,-0.520637113065904,-0.11162590518605915,88.48328795649451,0.0
1168,-0.5207148752541597,-0.1115209081376188,88.4604939179284,0.0
1169,-0.5195056171088056,-0.1097140000237262,88.43850760018424,0.0
1170,-0.5162554200036459,-0.10564344099612194,88.41737753302377,0.0
1171,-0.5101794096907365,-0.09874311891375318,88.3971521995878,0.0
1172,-0.5006175804215046,-0.0885269949341377,88.37788004617067,0.0
1173,-0.4871658343983916,-0.07467757926108376,88.35960949252068,0.0
1174,-0.4697547544267974,-0.057123217957269164,88.34238894266645,0.0
1175,-0.4486692321842911,-0.03609097815147036,88.32626679627109,0.0
1176,-0.4245205000320716,-0.012125964609008513,88.31129146051562,0.0
1177,-0.39819115403476657,0.013927128636360774,88.29751136251416,0.0
1178,-0.3707709749325696,0.04097946416042253,88.2849749622637,0.0
1179,-0.3434901608755465,0.0677853195100387,88.27373076613183,0.0
1180,-0.31764476696397187,0.09305228157150981,88.26382734088676,0.0
1181,-0.2945047059461039,0.11556256772273851,88.2553133282742,0.0
1182,-0.2752009005184747,0.1342916175023211,88.24823746014638,0.0
1183,-0.26060150980623203,0.1485092812681739,88.24264857414971,0.0
1184,-0.2511996734065648,0.15784983407049336,88.2385956299774,0.0
1185,-0.24704001882087,0.16234006427901226,88.23612772619501,0.0
1186,-0.24770616433667342,0.16237986034105553,88.23529411764706,1.0
1187,-0.25237913200802675,0.1586765244032274,88.23615266908325,0.0
1188,-0.25996124944798016,0.15214140353443403,88.23869390667375,0.0
1189,-0.26924549422161925,0.1437639217203836,88.24286634084312,0.0
1190,-0.2790991931365138,0.1344822875083208,88.24861864727879,0.0
1191,-0.28862618311389177,0.1250709922862897,88.25589964820944,0.0
1192,-0.2972751665703234,0.11606233952888484,88.26465829431824,0.0
1193,-0.3048743267461416,0.10771311515899572,88.27484364728159,0.0
1194,-0.3115903532227936,0.10001932074257518,88.28640486292495,0.0
1195,-0.31782813305506363,0.09277329620578406,88.29929117498843,0.0
1196,-0.3240993791193412,0.08565026363229425,88.31345187949523,0.0
1197,-0.3308908655578395,0.07830669528127254,88.32883631971747,0.0
1198,-0.3385564802809475,0.07047169866418068,88.3453938717334,0.0
1199,-0.34724648681479636,0.06201486128470676,88.36307393057268,0.0
1200,-0.35687786646811964,0.05297911930907636,88.38182589694493,0.0
1201,-0.36714485608749065,0.043574176872384955,88.40159916454914,0.0
1202,-0.37756795512018226,0.03413354563415787,88.42234310796125,0.0
1203,-0.38757838243635007,0.02504509581571899,88.44400707109781,0.0
1204,-0.3966291130280689,0.016669924937544302,88.46654035625497,0.0
1205,-0.40431348960113506,0.009266445689554308,88.48989221372133,0.0
1206,-0.4104634259003096,0.0029353998933346337,88.51401183196514,0.0
1207,-0.4151983682684306,-0.0024028478126697783,88.53884832839549,0.0
1208,-0.4189068215777551,-0.006994093287943794,88.56435074069871,0.0
1209,-0.42216157542334626,-0.011202198992038205,88.59046801875061,0.0
1210,-0.4255902971796124,-0.015437165848081573,88.61714901710667,0.0
1211,-0.4297365947257634,-0.0200741701059234,88.64434248807159,0.0
1212,-0.43494777147009395,-0.02537986496223476,88.67199707535097,0.0
1213,-0.4413144091288323,-0.03146027654572231,88.70006130828729,0.0
1214,-0.4486689200563676,-0.03823979250594333,88.72848359668335,0.0
1215,-0.45663323133246125,-0.045474266363894504,88.75721222621648,0.0
1216,-0.4646963528164292,-0.05279460297037496,88.78619535444652,0.0
1217,-0.4723025873619568,-0.05977167990445449,88.81538100742162,0.0
1218,-0.47893713125108306,-0.06599003056059007,88.84471707688553,0.0
1219,-0.4842018533966308,-0.07111680026160906,88.87415131809026,0.0
1220,-0.4878759295579517,-0.07495404751452282,88.90363134821837,0.0
1221,-0.4899538796836229,-0.07746607748796246,88.93310464541915,0.0
1222,-0.49065122618467827,-0.07877845460992042,88.96251854846264,0.0
1223,-0.49036993898088116,-0.07915072839487293,88.9918202570162,0.0
1224,-0.4896240750328733,-0.07892969295246482,89.0209568325478,0.0
1225,-0.488938552822785,-0.07849320220020202,89.04987519986008,0.0
1226,-0.48874543939629883,-0.07819545956443905,89.07852214926002,0.0
1227,-0.489306278619899,-0.07832306901116243,89.10684433936758,0.0
1228,-0.4906822990221115,-0.07906739434715168,89.13478830056819,0.0
1229,-0.49275832953162224,-0.08051396092942728,89.16230043911213,0.0
1230,-0.49530725328223496,-0.08264515015742749,89.18932704186543,0.0
1231,-0.4980678702422449,-0.08534963861744232,89.2158142817147,0.0
1232,-0.5008057771530275,-0.08843178572822002,89.24170822363021,0.0
1233,-0.5033351512480488,-0.0916165349413419,89.2669548313892,0.0
1234,-0.5054954562246291,-0.09454955523887294,89.29149997496285,0.0
1235,-0.5070949324872991,-0.09679686390538066,89.3152894385684,0.0
1236,-0.507846015340086,-0.09785139966989422,89.33826892938914,0.0
1237,-0.5073220948989782,-0.09715465085729084,89.36038408696278,0.0
1238,-0.5049591839483545,-0.09413894078354634,89.38158049324018,0.0
1239,-0.500112767948575,-0.08829074954142066,89.401803683314,0.0
1240,-0.49216435179732926,-0.07922880453442382,89.42099915681797,0.0
1241,-0.4806585259518039,-0.06678444083353005,89.43911238999577,0.0
1242,-0.46544202622081604,-0.051067804144693266,89.45608884843834,0.0
1243,-0.4467718594183444,-0.0325032599857712,89.47187400048816,0.0
1244,-0.4253609471507938,-0.011821410717139318,89.48641333130747,0.0
1245,-0.4023386590501425,0.009997161869027632,89.4996523576076,0.0
1246,-0.37912101417258603,0.03182152051316901,89.51153664303538,0.0
1247,-0.3572087324742274,0.05249888373596473,89.52201181421202,0.0
1248,-0.3379539766088213,0.0709906054713193,89.53102357741874,0.0
1249,-0.3223498583915423,0.08649177232766418,89.53851773592304,0.0
1250,-0.3108941337266143,0.09851342580771251,89.54444020793855,0.0
1251,-0.3035592167690747,0.10691398128566403,89.54873704520996,0.0
1252,-0.2998705851611017,0.11187686077041026,89.55135445221454,0.0
1253,-0.29906526428034674,0.11384211674142673,89.55223880597015,1.0
1254,-0.30028216168919347,0.11340832211096703,89.55223880597015,0.0
1255,-0.3027331679962717,0.11122536524973449,89.55223880597015,0.0
1256,-0.30581774382446963,0.1078983277519729,89.55223880597015,0.0
1257,-0.30916713200463014,0.10391791442939617,89.55223880597015,0.0
1258,-0.31262716759755776,0.09962550549197077,89.55223880597015,0.0
1259,-0.31620247805897034,0.09521280644243424,89.55223880597015,0.0
1260,-0.31998681082444225,0.09074914387608957,89.55223880597015,0.0
1261,-0.3240975574939895,0.08622499392896113,89.55223880597015,0.0
1262,-0.3286237205155552,0.08159888395463381,89.55223880597015,0.0
1263,-0.3335908166766841,0.07683622106324621,89.55223880597015,0.0
1264,-0.33894465161387416,0.07193219841374612,89.55223880597015,0.0
1265,-0.3445560420790548,0.06691574442154719,89.55223880597015,0.0
1266,-0.35024721973150297,0.061836451975296206,89.55223880597015,0.0
1267,-0.35583652499037205,0.05674056009819594,89.55223880597015,0.0
1268,-0.3611921779039895,0.0516445608423816,89.55223880597015,0.0
1269,-0.3662807868619068,0.04651538705600042,89.55223880597015,0.0
1270,-0.37119438063472454,0.041264336750683576,89.55223880597015,0.0
1271,-0.37614311606615264,0.035758308251880984,89.55223880597015,0.0
1272,-0.3814099286362314,0.029847380130105572,89.55223880597015,0.0
1273,-0.38727610026362436,0.02340335535020628,89.55223880597015,0.0
1274,-0.39393807895836874,0.01636068835063156,89.55223880597015,0.0
1275,-0.40144034474401047,0.008750031555647422,89.55223880597015,0.0
1276,-0.4096440605102306,0.0007157718845657787,89.55223880597015,0.0
1277,-0.41823906482282525,-0.007487908188702857,89.55223880597015,0.0
1278,-0.4267933970607036,-0.015523488500546388,89.55223880597015,0.0
1279,-0.43482562236866384,-0.02301547501263141,89.55223880597015,0.0
1280,-0.4418829733466854,-0.029607161716268947,89.55223880597015,0.0
1281,-0.44761131552904077,-0.035018890660745365,89.55223880597015,0.0
1282,-0.451808021056252,-0.03909739111798931,89.55223880597015,0.0
1283,-0.454453306129674,-0.04184713160358818,89.55223880597015,0.0
1284,-0.4557183272104232,-0.04343754501377094,89.55223880597015,0.0
1285,-0.4559496821311584,-0.044183990627165805,89.55223880597015,0.0
1286,-0.4556309677612165,-0.04450478268160381,89.55223880597015,0.0
1287,-0.4553236178101369,-0.04486086707425591,89.55223880597015,0.0
1288,-0.45559170201110816,-0.045688072247887894,89.55223880597015,0.0
1289,-0.45691851478557094,-0.04733365009532537,89.55223880597015,0.0
1290,-0.45962628631715696,-0.05000855523796574,89.55223880597015,0.0
1291,-0.46381375942588865,-0.05376436352868561,89.55223880597015,0.0
1292,-0.4693284066656457,-0.058499101421077386,89.55223880597015,0.0
1293,-0.4757880318441478,-0.06399025927540122,89.55223880597015,0.0
1294,-0.4826574307730962,-0.06994709680170762,89.55223880597015,0.0
1295,-0.489369306997148,-0.0760695187855029,89.55223880597015,0.0
1296,-0.4954594694012117,-0.08209873859282593,89.55223880597015,0.0
1297,-0.5006735077842148,-0.08784656394985169,89.55223880597015,0.0
1298,-0.5050043864451281,-0.09319541353132757,89.55223880597015,0.0
1299,-0.5086404789087206,-0.09806898899676879,89.55223880597015,0.0
1300,-0.5118354581849183,-0.1023818718055752,89.55223880597015,0.0
1301,-0.514742404407072,-0.10598282574052437,89.55223880597015,0.0
1302,-0.5172708731904441,-0.10860929681850354,89.55223880597015,0.0
1303,-0.5190195309144705,-0.10986860497660667,89.55223880597015,0.0
1304,-0.5193101171227335,-0.10925509865312986,89.55223880597015,0.0
1305,-0.517312159262577,-0.10620381673091767,89.55223880597015,0.0
1306,-0.5122176244882989,-0.10017236095023582,89.55223880597015,0.0
1307,-0.5034128148833938,-0.09073600496842703,89.55223880597015,0.0
1308,-0.4906040512838959,-0.0776780449696143,89.55223880597015,0.0
1309,-0.47387649675624444,-0.061058392972932765,89.55223880597015,0.0
1310,-0.4536891804225894,-0.041247736468813405,89.55223880597015,0.0
1311,-0.4308236743865032,-0.01892088906337313,89.55223880597015,0.0
1312,-0.4063060474141589,0.004990258719083915,89.55223880597015,0.0
1313,-0.381315721358287,0.029377742828555972,89.55223880597015,0.0
1314,-0.35708750174798903,0.05306152222946843,89.55223880597015,0.0
1315,-0.33480941229203826,0.0749028474302105,89.55223880597015,0.0
1316,-0.31552025296799596,0.09391261151606203,89.55223880597015,0.0
1317,-0.3000150379784525,0.10934130473348519,89.55223880597015,0.0
1318,-0.2887704910782904,0.12073979769334597,89.55223880597015,0.0
1319,-0.2819040076403233,0.12798410826852985,89.55223880597015,0.0
1320,-0.27917666723959134,0.1312621563444969,89.55223880597015,1.0
1321,-0.28004400407383184,0.13102569050982865,89.55138014423025,0.0
1322,-0.2837485422474369,0.12791533865535004,89.54883826194205,0.0
1323,-0.289438126358289,0.12267030670448523,89.54466444720008,0.0
1324,-0.2962873146174335,0.11603597887071597,89.53891015126662,0.0
1325,-0.30359856997279133,0.10868222807083154,89.53162697015736,0.0
1326,-0.31086635964860715,0.10114272600810531,89.52286662678154,0.0
1327,-0.31779808806253895,0.09378147570110457,89.51268095364576,0.0
1328,-0.32429666682905106,0.08678800168846065,89.50112187612909,0.0
1329,-0.33041665648723684,0.08019804316956791,89.48824139633744,0.0
1330,-0.33630789978571407,0.07393299502805847,89.47409157754313,0.0
1331,-0.34215852418050174,0.06784923902899673,89.45872452921589,0.0
1332,-0.34814545122895224,0.06178806671278165,89.44219239264994,0.0
1333,-0.3543970525409453,0.055617971791526166,89.42454732719199,0.0
1334,-0.36097004293140655,0.04926332326961471,89.40584149707318,0.0
1335,-0.36784092435360566,0.042716354478801496,89.38612705884849,0.0
1336,-0.37491112874628385,0.036032532629305294,89.36545614944568,0.0
1337,-0.3820245492415163,0.029312257926243892,89.3438808748255,0.0
1338,-0.3889960542421289,0.022674088680551145,89.32145329925473,0.0
1339,-0.395648653922881,0.01622597803383523,89.29822543519225,0.0
1340,-0.40185415888679876,0.0100411128883564,89.27424923378841,0.0
1341,-0.4075680898217645,0.004143784328639391,89.24957657599779,0.0
1342,-0.4128469698544994,-0.0014915811852741698,89.22425926430394,0.0
1343,-0.4178380105176904,-0.006928153044587888,89.19834901505521,0.0
1344,-0.42273866485412603,-0.012244287848628573,89.17189745141042,0.0
1345,-0.42773457975773815,-0.017506612274085922,89.1449560968916,0.0
1346,-0.43293468761001963,-0.022745428015360433,89.11757636954256,0.0
1347,-0.4383263722131807,-0.027938742489237375,89.08980957668985,0.0
1348,-0.4437684182525125,-0.033009057294764804,89.06170691030383,0.0
1349,-0.4490256448661513,-0.037833805526850776,89.03331944295655,0.0
1350,-0.4538325263060321,-0.042266928282228784,89.00469812437348,0.0
1351,-0.4579618958812263,-0.04616646659907089,88.975893778575,0.0
1352,-0.4612747912079566,-0.04942188417481127,88.94695710160494,0.0
1353,-0.4637383082614376,-0.05197530921842173,88.91793865984177,0.0
1354,-0.4654136662055945,-0.053832674425947996,88.88888888888889,0.0
1355,-0.46642807983809376,-0.05506320362252468,88.85985809304033,0.0
1356,-0.4669460006991382,-0.05578814619438821,88.83089644531766,0.0
1357,-0.4671484233624389,-0.05616157095984329,88.80205398807449,0.0
1358,-0.46721908932621625,-0.0563471450744508,88.77338063416441,0.0
1359,-0.4673304300358835,-0.05649511837590432,88.74492616866875,0.0
1360,-0.46762340652186013,-0.056723306875867206,88.7167402511805,0.0
1361,-0.46818234605709524,-0.05710484513921268,88.68887241864033,0.0
1362,-0.4690134495889595,-0.05766399005218194,88.6613720887215,0.0
1363,-0.47003879379310753,-0.058379504206168956,88.63428856376044,0.0
1364,-0.4711137346828327,-0.05919344318597825,88.60767103522905,0.0
1365,-0.4720655490464664,-0.060021946719911304,88.58156858874679,0.0
1366,-0.47273948471813515,-0.06076431691274994,88.55603020962886,0.0
1367,-0.4730317786544688,-0.06130749894417091,88.53110478896836,0.0
1368,-0.4728927410709682,-0.061524947663057786,88.5068411302502,0.0
1369,-0.47229638448334127,-0.061271253348133416,88.48328795649451,0.0
1370,-0.47118982903777873,-0.06037602679125072,88.4604939179284,0.0
1371,-0.4694468311002104,-0.058641628713319544,88.43850760018424,0.0
1372,-0.46684922558903835,-0.055848906676316146,88.41737753302377,0.0
1373,-0.46310823129800605,-0.0517732232738409,88.3971521995878,0.0
1374,-0.45792059828286624,-0.04621027923450726,88.37788004617067,0.0
1375,-0.4510406645866375,-0.03900840691520572,88.35960949252068,0.0
1376,-0.44234454799846396,-0.0301019618859224,88.34238894266645,0.0
1377,-0.43186821314819057,-0.019539690670086263,88.32626679627109,0.0
1378,-0.419813433133552,-0.007502574032280832,88.31129146051562,0.0
1379,-0.40652820817560964,0.005692678535706611,88.29751136251416,0.0
1380,-0.3924748651345948,0.019606087720770056,88.2849749622637,0.0
1381,-0.37819723032542485,0.0337021442911505,88.27373076613183,0.0
1382,-0.3642902958138424,0.047390144154644584,88.26382734088676,0.0
1383,-0.3513676171606841,0.06007282742957655,88.2553133282742,0.0
1384,-0.3400191439427257,0.07119789178376448,88.24823746014638,0.0
1385,-0.33075730511048274,0.08030635835430937,88.24264857414971,0.0
1386,-0.32395873673777514,0.087071865441915,88.2385956299774,0.0
1387,-0.3198166812597634,0.0913258965349317,88.23612772619501,0.0
1388,-0.3183194978674028,0.09306574280297619,88.23529411764706,1.0
1389,-0.3192631312464752,0.09244446295213796,88.23529411764706,0.0
1390,-0.3222938771798952,0.08974481061833478,88.23529411764706,0.0
1391,-0.3269684362278743,0.08534149690661581,88.23529411764706,0.0
1392,-0.3328153182316988,0.07965773006575766,88.23529411764706,0.0
1393,-0.339385394817898,0.07312241413878492,88.23529411764706,0.0
1394,-0.3462864814092382,0.06613366518481172,88.23529411764706,0.0
1395,-0.353202819629336,0.05903265068932101,88.23529411764706,0.0
1396,-0.3599024881357152,0.052089574970822436,88.23529411764706,0.0
1397,-0.3662346300726512,0.045501370984580417,88.23529411764706,0.0
1398,-0.3721169429078133,0.039398725027767326,88.23529411764706,0.0
1399,-0.3775148530072505,0.033858766842607795,88.23529411764706,0.0
1400,-0.3824171785865031,0.0289192888334706,88.23529411764706,0.0
1401,-0.3868161113198443,0.02459075280966164,88.23529411764706,0.0
1402,-0.3906989439303953,0.02086347822431633,88.23529411764706,0.0
1403,-0.3940543859221358,0.017709009351067104,88.23529411764706,0.0
1404,-0.3968897759191372,0.015076359398503127,88.23529411764706,0.0
1405,-0.3992506684824214,0.012885249958776133,88.23529411764706,0.0
1406,-0.4012338057426232,0.011019321130704038,88.23529411764706,0.0
1407,-0.40298839433901334,0.00932245863605457,88.23529411764706,0.0
1408,-0.4047062799219666,0.00760091189682062,88.23529411764706,0.0
1409,-0.40660552525928356,0.005632914893109787,88.23529411764706,0.0
1410,-0.40891206811706793,0.003186256292560386,88.23529411764706,0.0
1411,-0.41184142139384217,4.283997024522729e-05,88.23529411764706,0.0
1412,-0.4155794634916361,-0.003972136938830147,88.23529411764706,0.0
1413,-0.42026039457292746,-0.008960049969087593,88.23529411764706,0.0
1414,-0.42594120641534794,-0.014922402287300462,88.23529411764706,0.0
1415,-0.43257472807988445,-0.02174315331623975,88.23529411764706,0.0
1416,-0.43998673249669323,-0.029184544151326146,88.23529411764706,0.0
1417,-0.4478658638464866,-0.03689979598443277,88.23529411764706,0.0
1418,-0.4557763769737921,-0.04446372428022916,88.23529411764706,0.0
1419,-0.46320043038000525,-0.05141925527462083,88.23529411764706,0.0
1420,-0.4696082784022656,-0.05733458627112726,88.23529411764706,0.0
1421,-0.4745440783331298,-0.061863004091684104,88.23529411764706,0.0
1422,-0.4777075498903346,-0.0647958652183958,88.23529411764706,0.0
1423,-0.47901166041359167,-0.06609942983724781,88.23529411764706,0.0
1424,-0.4786038596286694,-0.06592824520453425,88.23529411764706,0.0
1425,-0.4768488751147634,-0.06461129666250325,88.23529411764706,0.0
1426,-0.4742793165172951,-0.06261155973549093,88.23529411764706,0.0
1427,-0.4715236076128378,-0.06046408806211532,88.23529411764706,0.0
1428,-0.4692203900728118,-0.058701544059252014,88.23529411764706,0.0
1429,-0.4679279655295379,-0.057778435891072226,88.23529411764706,0.0
1430,-0.46803888695176665,-0.058005805659448226,88.23529411764706,0.0
1431,-0.469712785645028,-0.05950655530398606,88.23529411764706,0.0
1432,-0.47284182159583876,-0.062198179882616285,88.23529411764706,0.0
1433,-0.47705961876860464,-0.06580494805796097,88.23529411764706,0.0
1434,-0.4817954979112674,-0.06989638924052816,88.23529411764706,0.0
1435,-0.4863640074796157,-0.07394435702273133,88.23529411764706,0.0
1436,-0.49007003657695525,-0.07738793618731218,88.23529411764706,0.0
1437,-0.49230622143636177,-0.07969474337356773,88.23529411764706,0.0
1438,-0.49262286044135006,-0.08040893035357935,88.23529411764706,0.0
1439,-0.49075893028685824,-0.07918003146989241,88.23529411764706,0.0
1440,-0.48663267646413577,-0.0757717778127123,88.23529411764706,0.0
1441,-0.4802991401578213,-0.07005489478601436,88.23529411764706,0.0
1442,-0.471888823801064,-0.06199146245699476,88.23529411764706,0.0
1443,-0.46154602947822265,-0.051619711704685906,88.23529411764706,0.0
1444,-0.44938638630007954,-0.03904677822148692,88.23529411764706,0.0
1445,-0.43548942119496203,-0.024453260477802313,88.23529411764706,0.0
1446,-0.4199329120378057,-0.008108407232359768,88.23529411764706,0.0
1447,-0.40286217605809516,0.009610178699709877,88.23529411764706,0.0
1448,-0.3845729626180814,0.02820178429601273,88.23529411764706,0.0
1449,-0.3655768377859024,0.04704285104816219,88.23529411764706,0.0
1450,-0.3466182524289484,0.0654097817043891,88.23529411764706,0.0
1451,-0.3286249391464459,0.0825266006989943,88.23529411764706,0.0
1452,-0.3125945767578997,0.09763325606474405,88.23529411764706,0.0
1453,-0.29944285682049543,0.11006432946372173,88.23529411764706,0.0
1454,-0.28985221210629836,0.11932415163532474,88.23529411764706,0.0
1455,-0.28416099559747826,0.1251439419570129,88.23529411764706,0.0
1456,-0.282320378908916,0.12750977564779142,88.23529411764706,1.0
1457,-0.2839264285941342,0.12665608886691188,88.23615266908325,0.0
1458,-0.28831509764220214,0.12302647519149701,88.23869390667375,0.0
1459,-0.2946936973443907,0.11720986699773898,88.24286634084312,0.0
1460,-0.30227619474416884,0.1098642814610153,88.24861864727879,0.0
1461,-0.310391779181329,0.10164130946809635,88.25589964820944,0.0
1462,-0.3185458575398189,0.09312251118768242,88.26465829431824,0.0
1463,-0.3264278347869507,0.0847747483923611,88.27484364728159,0.0
1464,-0.33387645822163686,0.07692661516339808,88.28640486292495,0.0
1465,-0.3408254979519106,0.06976393956309762,88.29929117498843,0.0
1466,-0.34725541239894736,0.06333982113484979,88.31345187949523,0.0
1467,-0.3531692517317347,0.05759415248169086,88.32883631971747,0.0
1468,-0.35859680289758267,0.052378638132825305,88.3453938717334,0.0
1469,-0.36361646082561366,0.04748506740577813,88.36307393057268,0.0
1470,-0.36837594962663794,0.04267601034672476,88.38182589694493,0.0
1471,-0.373093816350635,0.03771746896844583,88.40159916454914,0.0
1472,-0.3780321148521273,0.03241216525674223,88.42234310796125,0.0
1473,-0.383442655721273,0.02663050879496061,88.44400707109781,0.0
1474,-0.3895002424380357,0.020334689434527056,88.46654035625497,0.0
1475,-0.39624322358382785,0.013590684331526943,88.48989221372133,0.0
1476,-0.40354218968098626,0.006563873602719903,88.51401183196514,0.0
1477,-0.41111054249471773,-0.000503482615566403,88.53884832839549,0.0
1478,-0.4185573978898207,-0.007330934711205005,88.56435074069871,0.0
1479,-0.42546896329890854,-0.013648789599540728,88.59046801875061,0.0
1480,-0.431495888696375,-0.019248325858599227,88.61714901710667,0.0
1481,-0.4364248909005383,-0.02402299901549386,88.64434248807159,0.0
1482,-0.4402210489457302,-0.027991330900421642,88.67199707535097,0.0
1483,-0.44303643709653007,-0.031295355888375676,88.70006130828729,0.0
1484,-0.4451862730940219,-0.03417331109569013,88.72848359668335,0.0
1485,-0.4470953377045351,-0.03691075788168037,88.75721222621648,0.0
1486,-0.4492186960235402,-0.03977936017403024,88.78619535444652,0.0
1487,-0.4519452728801987,-0.04297597391774439,88.81538100742162,0.0
1488,-0.4555008156031208,-0.04657559220506315,88.84471707688553,0.0
1489,-0.4598744964694916,-0.05050955980969215,88.87415131809026,0.0
1490,-0.4647951838243828,-0.054575481851126796,88.90363134821837,0.0
1491,-0.4697749538806571,-0.05847830362336563,88.93310464541915,0.0
1492,-0.474218871759657,-0.061894667984394955,88.96251854846264,0.0
1493,-0.4775770421484297,-0.06454670802913626,88.9918202570162,0.0
1494,-0.4794966293564694,-0.06626856064358758,89.0209568325478,0.0
1495,-0.47992674439729177,-0.06705003033248164,89.04987519986008,0.0
1496,-0.4791416390936823,-0.06704685860912862,89.07852214926002,0.0
1497,-0.477673804191708,-0.06655472143756508,89.10684433936758,0.0
1498,-0.47617807782630384,-0.06595237398361141,89.13478830056819,0.0
1499,-0.475268734791513,-0.06562611256220735,89.16230043911213,0.0
1500,-0.47537605871566635,-0.06589125515407938,89.18932704186543,0.0
1501,-0.4766572934078492,-0.06692597233479292,89.2158142817147,0.0
1502,-0.47897612183847454,-0.0687289839021715,89.24170822363021,0.0
1503,-0.48194409928170034,-0.07110673444286095,89.2669548313892,0.0
1504,-0.4850033800134046,-0.07368944862911062,89.29149997496285,0.0
1505,-0.4875247410657665,-0.07597056072494715,89.3152894385684,0.0
1506,-0.4888970351598093,-0.07736140949666778,89.33826892938914,0.0
1507,-0.48859130160245284,-0.0772529439872078,89.36038408696278,0.0
1508,-0.48619253639093357,-0.07507786431978088,89.38158049324018,0.0
1509,-0.4814026471425282,-0.07036899395599766,89.401803683314,0.0
1510,-0.47402739454500004,-0.06281154308677248,89.42099915681797,0.0
1511,-0.46396577602963796,-0.05228743829523126,89.43911238999577,0.0
1512,-0.4512198125653775,-0.03890890257505167,89.45608884843834,0.0
1513,-0.4359342996331815,-0.023036586708885982,89.47187400048816,0.0
1514,-0.4184604424509469,-0.005275984116923017,89.48641333130747,0.0
1515,-0.39941906572159874,0.013554024801615487,89.4996523576076,0.0
1516,-0.37972659799136366,0.0324838846358912,89.51153664303538,0.0
1517,-0.36054884837724904,0.05048522141637174,89.52201181421202,0.0
1518,-0.34316723015492345,0.066582556258259,89.53102357741874,0.0
1519,-0.32877436878705046,0.07996873427240729,89.53851773592304,0.0
1520,-0.3182481790218041,0.09010375123446793,89.54444020793855,0.0
1521,-0.31197080419493084,0.09677706036154032,89.54873704520996,0.0
1522,-0.30975187142143895,0.10011909348866532,89.55135445221454,0.0
1523,-0.31088516896272483,0.10055770253235818,89.55223880597015,1.0
1524,-0.3143254158153465,0.09872713791948225,89.55138014423025,0.0
1525,-0.3189341412698826,0.0953478854097373,89.54883826194205,0.0
1526,-0.3237252228070178,0.09110224248630018,89.54466444720008,0.0
1527,-0.32804650047599215,0.08653111068432023,89.53891015126662,0.0
1528,-0.3316586698519149,0.08197195084261279,89.53162697015736,0.0
1529,-0.3347048211077475,0.07754769824126337,89.52286662678154,0.0
1530,-0.33759234409536176,0.07320433823616386,89.51268095364576,0.0
1531,-0.34082672592043284,0.0687838522236337,89.50112187612909,0.0
1532,-0.3448422975224159,0.06411196193780985,89.48824139633744,0.0
1533,-0.349869894901331,0.05907805639936912,89.47409157754313,0.0
1534,-0.3558687865724779,0.05368804802767908,89.45872452921589,0.0
1535,-0.3625334206074902,0.0480785550554325,89.44219239264994,0.0
1536,-0.3693679358056594,0.04249071588511734,89.42454732719199,0.0
1537,-0.37580654792903284,0.03721170701587087,89.40584149707318,0.0
1538,-0.3813492073292167,0.03249946051479487,89.38612705884849,0.0
1539,-0.38568111728970694,0.028509630872338876,89.36545614944568,0.0
1540,-0.3887509867599412,0.025242962140058167,89.3438808748255,0.0
1541,-0.3907933525372786,0.022526265811127037,89.32145329925473,0.0
1542,-0.39229176725663395,0.02003248043222693,89.29822543519225,0.0
1543,-0.3938901720571259,0.01733650762222713,89.27424923378841,0.0
1544,-0.39626865151867346,0.013995605582810548,89.24957657599779,0.0
1545,-0.40000655396196055,0.009637727826146913,89.22425926430394,0.0
1546,-0.40545974389058603,0.004039420086957797,89.19834901505521,0.0
1547,-0.4126781738907895,-0.0028229378302260903,89.17189745141042,0.0
1548,-0.4213837101498575,-0.010759141554434755,89.1449560968916,0.0
1549,-0.4310159229081809,-0.019391202794357576,89.11757636954256,0.0
1550,-0.44083734777001643,-0.02821390825347682,89.08980957668985,0.0
1551,-0.4500742281872414,-0.03667743724262916,89.06170691030383,0.0
1552,-0.4580596262871794,-0.04427547599546766,89.03331944295655,0.0
1553,-0.4643464419937103,-0.05062182655150398,89.00469812437348,0.0
1554,-0.4687674372179402,-0.05550167930054848,88.975893778575,0.0
1555,-0.4714337092899104,-0.05888961723760624,88.94695710160494,0.0
1556,-0.47267768106771413,-0.060933580113324795,88.91793865984177,0.0
1557,-0.4729585291618041,-0.061910777087974475,88.88888888888889,0.0
1558,-0.47275525081342884,-0.06216645826509859,88.85985809304033,0.0
1559,-0.472473743079327,-0.06204865385460472,88.83089644531766,0.0
1560,-0.47238825643334365,-0.061851298920820356,88.80205398807449,0.0
1561,-0.47262528366569734,-0.061775096318371775,88.77338063416441,0.0
1562,-0.473183406292826,-0.061911005460779316,88.74492616866875,0.0
1563,-0.47397205265512027,-0.062246491939640027,88.7167402511805,0.0
1564,-0.4748505808270741,-0.06269056910246427,88.68887241864033,0.0
1565,-0.4756569133148789,-0.06311077593844734,88.6613720887215,0.0
1566,-0.47622675914953577,-0.06337375015269109,88.63428856376044,0.0
1567,-0.4764122992054633,-0.06338090307749739,88.60767103522905,0.0
1568,-0.4761078627901682,-0.06309174451037478,88.58156858874679,0.0
1569,-0.4752806815469066,-0.06252954035248881,88.55603020962886,0.0
1570,-0.4739937738322788,-0.0617671249345235,88.53110478896836,0.0
1571,-0.4724029974587188,-0.0608946116038271,88.5068411302502,0.0
1572,-0.4707156080800784,-0.05997494047349036,88.48328795649451,0.0
1573,-0.4691121236114914,-0.05899683489940498,88.4604939179284,0.0
1574,-0.4676509397993915,-0.05783679573558558,88.43850760018424,0.0
1575,-0.4661878645816594,-0.05624137462897384,88.41737753302377,0.0
1576,-0.46434390669276043,-0.05383777370890452,88.3971521995878,0.0
1577,-0.46154215476998184,-0.05017521853643904,88.37788004617067,0.0
1578,-0.4571121958007533,-0.04479270740267097,88.35960949252068,0.0
1579,-0.45043691288350385,-0.0373023007038481,88.34238894266645,0.0
1580,-0.4411016554508888,-0.027472734252497903,88.32626679627109,0.0
1581,-0.4290059819285485,-0.01529698081569551,88.31129146051562,0.0
1582,-0.4144124349102479,-0.0010297713465310387,88.29751136251416,0.0
1583,-0.3979274009191353,0.014813548437798633,88.2849749622637,0.0
1584,-0.38042634623224547,0.03149835991693871,88.27373076613183,0.0
1585,-0.36294372356277693,0.04814657627825887,88.26382734088676,0.0
1586,-0.34654730108819315,0.06383517138626604,88.2553133282742,0.0
1587,-0.3322128413255777,0.07770200782053534,88.24823746014638,0.0
1588,-0.320712846756274,0.0890426876433703,88.24264857414971,0.0
1589,-0.31253317709359896,0.09738411125413078,88.2385956299774,0.0
1590,-0.30783048002132146,0.10252471547441991,88.23612772619501,0.0
1591,-0.30643811948021704,0.10453712850491084,88.23529411764706,1.0
1592,-0.3079186093938353,0.10373517423028843,88.23615266908325,0.0
1593,-0.3116502127117661,0.10061269586718231,88.23869390667375,0.0
1594,-0.31692900157821957,0.09576562111077738,88.24286634084312,0.0
1595,-0.32306752591880217,0.08981045481404668,88.24861864727879,0.0
1596,-0.329475948376966,0.08331178266905981,88.25589964820944,0.0
1597,-0.3357176064048112,0.07672865423551567,88.26465829431824,0.0
1598,-0.34153551645522245,0.07038549548963957,88.27484364728159,0.0
1599,-0.3468487945628563,0.06446831765067523,88.28640486292495,0.0
1600,-0.3517201210052959,0.05904236222276753,88.29929117498843,0.0
1601,-0.3562994485576373,0.05408381401576274,88.31345187949523,0.0
1602,-0.3607554120337118,0.0495164846840264,88.32883631971747,0.0
1603,-0.36521169835278294,0.04524474084314799,88.3453938717334,0.0
1604,-0.36970694643124735,0.04117629883161729,88.36307393057268,0.0
1605,-0.3741911021421178,0.03723223051583284,88.38182589694493,0.0
1606,-0.37855964044643453,0.03334563219179369,88.40159916454914,0.0
1607,-0.38271374392080454,0.029453754231894266,88.42234310796125,0.0
1608,-0.3866241750419565,0.025489990941303848,88.44400707109781,0.0
1609,-0.39037292433236026,0.021381496559639335,88.46654035625497,0.0
1610,-0.3941519229695026,0.017055529679295467,88.48989221372133,0.0
1611,-0.3982122914141645,0.012453828697040422,88.51401183196514,0.0
1612,-0.4027774214808648,0.007550713966269565,88.53884832839549,0.0
1613,-0.4079511172569287,0.0023685186128369895,88.56435074069871,0.0
1614,-0.41365870763981627,-0.0030158047188316613,88.59046801875061,0.0
1615,-0.41964883438078565,-0.008476481043032662,88.61714901710667,0.0
1616,-0.4255593400749562,-0.013856683499256495,88.64434248807159,0.0
1617,-0.4310233833147756,-0.018993860158017746,88.67199707535097,0.0
1618,-0.4357749048864168,-0.02374571902584684,88.70006130828729,0.0
1619,-0.43971380025551166,-0.02800991849939532,88.72848359668335,0.0
1620,-0.442909217116104,-0.03173288228438986,88.75721222621648,0.0
1621,-0.4455452672462995,-0.03490704134776528,88.78619535444652,0.0
1622,-0.44783566118455315,-0.03755974147342482,88.81538100742162,0.0
1623,-0.44994359395636624,-0.03973961088069755,88.84471707688553,0.0
1624,-0.4519376874615489,-0.04150648828911219,88.87415131809026,0.0
1625,-0.453797412558853,-0.042929051894400196,88.90363134821837,0.0
1626,-0.45546031374714957,-0.04409085296034402,88.93310464541915,0.0
1627,-0.4568876849291275,-0.045101796475868865,88.96251854846264,0.0
1628,-0.45812103802466814,-0.046109466128459044,88.9918202570162,0.0
1629,-0.4593088572883432,-0.047303875086918475,89.0209568325478,0.0
1630,-0.46069657029493444,-0.04891041276117435,89.04987519986008,0.0
1631,-0.46258548245813935,-0.051168523006349755,89.07852214926002,0.0
1632,-0.4652738618917164,-0.054297182884966384,89.10684433936758,0.0
1633,-0.4689944567713244,-0.05845165505019408,89.13478830056819,0.0
1634,-0.47385939438325,-0.06367851726118387,89.16230043911213,0.0
1635,-0.47981870372024427,-0.06987717198638037,89.18932704186543,0.0
1636,-0.48663538303101317,-0.076775754218472,89.2158142817147,0.0
1637,-0.49387926747432337,-0.08392768404091992,89.24170822363021,0.0
1638,-0.5009429455178631,-0.09073232954478197,89.2669548313892,0.0
1639,-0.5070830101676262,-0.09647975857406937,89.29149997496285,0.0
1640,-0.5114869007807914,-0.10041585822838144,89.3152894385684,0.0
1641,-0.5133598038849239,-0.10182073594763054,89.33826892938914,0.0
1642,-0.5120201631035879,-0.10009082423020904,89.36038408696278,0.0
1643,-0.5069891891636619,-0.09481393682481662,89.38158049324018,0.0
1644,-0.4980604482066436,-0.08582692613078723,89.401803683314,0.0
1645,-0.4853391412225837,-0.0732475779524991,89.42099915681797,0.0
1646,-0.46924536928206223,-0.05747569364690301,89.43911238999577,0.0
1647,-0.45048046186881774,-0.03916246671254688,89.45608884843834,0.0
1648,-0.4299600807381819,-0.019151629486773205,89.47187400048816,0.0
1649,-0.40872225567717285,0.0016002484716767726,89.48641333130747,0.0
1650,-0.38782247728422886,0.02211409188100069,89.4996523576076,0.0
1651,-0.36823069585774587,0.041477732225752545,89.51153664303538,0.0
1652,-0.35074523206264585,0.05892322180617035,89.52201181421202,0.0
1653,-0.3359350606401259,0.07388285669226749,89.53102357741874,0.0
1654,-0.3241152475826553,0.08601798236788376,89.53851773592304,0.0
1655,-0.31535332806697564,0.09521868035623947,89.54444020793855,0.0
1656,-0.30950038584597006,0.10157661078411012,89.54873704520996,0.0
1657,-0.3062404496778625,0.10533702043293335,89.55135445221454,0.0
1658,-0.3051532963480111,0.10683870339751993,89.55223880597015,1.0
1659,-0.3057856143891318,0.10645212435309573,89.55223880597015,0.0
1660,-0.3077225336847695,0.10452573181597521,89.55223880597015,0.0
1661,-0.3106475611581414,0.10134864161415245,89.55223880597015,0.0
1662,-0.31437729641176115,0.09713455310462309,89.55223880597015,0.0
1663,-0.3188604703003035,0.09202746643781683,89.55223880597015,0.0
1664,-0.3241391256520874,0.08612527553963033,89.55223880597015,0.0
1665,-0.33028092875310794,0.0795135619813172,89.55223880597015,0.0
1666,-0.3373017451335476,0.07229980603740199,89.55223880597015,0.0
1667,-0.34510256661111016,0.06463835575729543,89.55223880597015,0.0
1668,-0.35344196932585137,0.056738929214413154,89.55223880597015,0.0
1669,-0.3619547369939095,0.04885564821704032,89.55223880597015,0.0
1670,-0.37021251137379535,0.04125859440036185,89.55223880597015,0.0
1671,-0.3778087596232874,0.03419438733992203,89.55223880597015,0.0
1672,-0.3844430964034445,0.02784517110181788,89.55223880597015,0.0
1673,-0.38998148625564005,0.02229595780319701,89.55223880597015,0.0
1674,-0.3944777190387566,0.017518431565647155,89.55223880597015,0.0
1675,-0.39815363700566186,0.013375595161752222,89.55223880597015,0.0
1676,-0.40134628491867863,0.00964700905163098,89.55223880597015,0.0
1677,-0.40443650063610503,0.006069941803454635,89.55223880597015,0.0
1678,-0.4077748945306209,0.002388495024345943,89.55223880597015,0.0
1679,-0.4116189155445135,-0.0015986955194648884,89.55223880597015,0.0
1680,-0.4160906223102459,-0.0060010752855373245,89.55223880597015,0.0
1681,-0.4211602487673818,-0.010815772650790187,89.55223880597015,0.0
1682,-0.42665618286958534,-0.01592747854731649,89.55223880597015,0.0
1683,-0.4322977317392411,-0.021128083778936345,89.55223880597015,0.0
1684,-0.4377436116583046,-0.026152034793663022,89.55223880597015,0.0
1685,-0.44264736369583224,-0.03072074655929726,89.55223880597015,0.0
1686,-0.4467111013880047,-0.03458808260219567,89.55223880597015,0.0
1687,-0.4497303254668407,-0.037579029621633314,89.55223880597015,0.0
1688,-0.4516239530950614,-0.03961516932865706,89.55223880597015,0.0
1689,-0.45244504833029625,-0.040723087095910236,89.55223880597015,0.0
1690,-0.4523697287488625,-0.04102500104970069,89.55223880597015,0.0
1691,-0.4516649829957783,-0.040714096313565325,89.55223880597015,0.0
1692,-0.45064041591797627,-0.040019739339183166,89.55223880597015,0.0
1693,-0.44959312915286304,-0.0391694329759711,89.55223880597015,0.0
1694,-0.44875750353877847,-0.03835473079020103,89.55223880597015,0.0
1695,-0.4482711710634493,-0.03770728416185549,89.55223880597015,0.0
1696,-0.4481644614582264,-0.037288954183657325,89.55223880597015,0.0
1697,-0.4483741781009541,-0.03709693852324811,89.55223880597015,0.0
1698,-0.44877610708014226,-0.0370817516110231,89.55223880597015,0.0
1699,-0.44922656260115174,-0.03717328354245965,89.55223880597015,0.0
1700,-0.44960251129302536,-0.037308559056676835,89.55223880597015,0.0
1701,-0.4498317884109594,-0.03745451482799493,89.55223880597015,0.0
1702,-0.4499082375128753,-0.03762014472936888,89.55223880597015,0.0
1703,-0.4498900352170677,-0.037854522272986156,89.55223880597015,0.0
1704,-0.44988229166362853,-0.038230108582077045,89.55223880597015,0.0
1705,-0.450007008648239,-0.03881389588058093,89.55223880597015,0.0
1706,-0.45036474576665236,-0.03963178579244936,89.55223880597015,0.0
1707,-0.45099323516949297,-0.04063364828142397,89.55223880597015,0.0
1708,-0.4518290733116996,-0.04166732240183928,89.55223880597015,0.0
1709,-0.45267966147702454,-0.04246911923868659,89.55223880597015,0.0
1710,-0.45321348513937854,-0.04267609746142459,89.55223880597015,0.0
1711,-0.45297674238061775,-0.04186170712169007,89.55223880597015,0.0
1712,-0.4514418920212329,-0.03959185687154389,89.55223880597015,0.0
1713,-0.44808773225084886,-0.035493863412283284,89.55223880597015,0.0
1714,-0.4425014073428551,-0.029327076123427567,89.55223880597015,0.0
1715,-0.43448287007132746,-0.02104219171899645,89.55223880597015,0.0
1716,-0.42412613826421125,-0.010817051121424573,89.55223880597015,0.0
1717,-0.4118530139268985,0.0009398178930933657,89.55223880597015,0.0
1718,-0.39838468199194577,0.013621002156141322,89.55223880597015,0.0
1719,-0.38465196615556746,0.0264837418820556,89.55223880597015,0.0
1720,-0.3716608962736315,0.03873534227691162,89.55223880597015,0.0
1721,-0.3603416942949954,0.049626251137982365,89.55223880597015,0.0
1722,-0.3514133735468182,0.05853522951291264,89.55223880597015,0.0
1723,-0.3452923426940745,0.06503299254752293,89.55223880597015,0.0
1724,-0.342062918113952,0.06891546975624761,89.55223880597015,0.0
1725,-0.3415126971713727,0.07020421965690711,89.55223880597015,1.0
1726,-0.3432194826871902,0.0691179351949949,89.55138014423025,0.0
1727,-0.34666308273448476,0.0660238494106759,89.54883826194205,0.0
1728,-0.3513294092498701,0.06138013912106453,89.54466444720008,0.0
1729,-0.35677896008497195,0.0556798520654141,89.53891015126662,0.0
1730,-0.3626665014623916,0.049404005008306814,89.53162697015736,0.0
1731,-0.3687185527517217,0.04298748481701975,89.52286662678154,0.0
1732,-0.37469190176642786,0.03679759351110595,89.51268095364576,0.0
1733,-0.3803420550157405,0.031122595213036855,89.50112187612909,0.0
1734,-0.38542221928200043,0.02616690506989295,89.48824139633744,0.0
1735,-0.389715226096043,0.02205034948238237,89.47409157754313,0.0
1736,-0.3930823122700618,0.018810446760782636,89.45872452921589,0.0
1737,-0.39550353116028747,0.016407998745573624,89.44219239264994,0.0
1738,-0.397088890433652,0.014736803985552976,89.42454732719199,0.0
1739,-0.3980535765697215,0.013637860785421254,89.40584149707318,0.0
1740,-0.398666582157683,0.012917370902659306,89.38612705884849,0.0
1741,-0.39919198575075093,0.012366786622438394,89.36545614944568,0.0
1742,-0.3998426962534799,0.011782609413691972,89.3438808748255,0.0
1743,-0.4007591587426003,0.010983877858441855,89.32145329925473,0.0
1744,-0.4020146091816023,0.009826111501737657,89.29822543519225,0.0
1745,-0.4036384659347558,0.008211454687242667,89.27424923378841,0.0
1746,-0.4056435390403528,0.006095387312161081,89.24957657599779,0.0
1747,-0.408042489111998,0.003490332861895696,89.22425926430394,0.0
1748,-0.4108444504121544,0.00046584863563556983,89.19834901505521,0.0
1749,-0.41403235275830497,-0.002855767378811708,89.17189745141042,0.0
1750,-0.41753177644352435,-0.006310081143585739,89.1449560968916,0.0
1751,-0.4211885801801242,-0.009708524364091514,89.11757636954256,0.0
1752,-0.4247714608543739,-0.012863448641710837,89.08980957668985,0.0
1753,-0.42800677976733953,-0.015617563822692922,89.06170691030383,0.0
1754,-0.43064011409160174,-0.017872705887388457,89.03331944295655,0.0
1755,-0.4325076493099924,-0.019611366994984027,89.00469812437348,0.0
1756,-0.4335950324550486,-0.020904588435155167,88.975893778575,0.0
1757,-0.43406301004711273,-0.021902018452047825,88.94695710160494,0.0
1758,-0.4342270711783069,-0.022803874766697724,88.91793865984177,0.0
1759,-0.43449042201095833,-0.023819294651447002,88.88888888888889,0.0
1760,-0.4352434931994274,-0.025119767481540402,88.85985809304033,0.0
1761,-0.4367555513886892,-0.02679867382730917,88.83089644531766,0.0
1762,-0.43909062867989057,-0.02884746944038767,88.80205398807449,0.0
1763,-0.44207691886264505,-0.031155586285831052,88.77338063416441,0.0
1764,-0.44534467036535347,-0.033535408499597054,88.74492616866875,0.0
1765,-0.448425787939939,-0.03576719743007158,88.7167402511805,0.0
1766,-0.45088660162948274,-0.03765339761966187,88.68887241864033,0.0
1767,-0.4524525142656952,-0.03906894199750026,88.6613720887215,0.0
1768,-0.45308515789456927,-0.0399948419021947,88.63428856376044,0.0
1769,-0.4529886959146031,-0.04052633022112574,88.60767103522905,0.0
1770,-0.45254551590483444,-0.04085299406040387,88.58156858874679,0.0
1771,-0.45220369096060065,-0.0412149660476046,88.55603020962886,0.0
1772,-0.452351667858792,-0.04184458510217465,88.53110478896836,0.0
1773,-0.4532161389280581,-0.042905736498725394,88.5068411302502,0.0
1774,-0.45480794307424055,-0.04444292288353137,88.48328795649451,0.0
1775,-0.4569228360030302,-0.04634945238821059,88.4604939179284,0.0
1776,-0.4591860305126659,-0.0483600071386675,88.43850760018424,0.0
1777,-0.4611182935584981,-0.050068492329463546,88.41737753302377,0.0
1778,-0.4622007979109519,-0.05096842044176074,88.3971521995878,0.0
1779,-0.4619248031567025,-0.05051059680071526,88.37788004617067,0.0
1780,-0.4598253664953329,-0.04817145367969258,88.35960949252068,0.0
1781,-0.4555088809359439,-0.0435246299260213,88.34238894266645,0.0
1782,-0.4486872285845713,-0.03630791927851064,88.32626679627109,0.0
1783,-0.4392256942700104,-0.026477401327806113,88.31129146051562,0.0
1784,-0.42720072111473256,-0.014240691072478422,88.29751136251416,0.0
1785,-0.4129524529061092,-6.232195888993333e-05,88.2849749622637,0.0
1786,-0.39711051958502297,0.015363185794455114,88.27373076613183,0.0
1787,-0.38057239359000883,0.031170873202585866,88.26382734088676,0.0
