,PPG_Raw,PPG_Clean,PPG_Rate,PPG_Peaks
0,0.008035288172783234,0.0009331692465280317,67.65856850579982,0.0
1,-0.026921429902692445,-0.0352642559391598,67.65856850579982,0.0
2,-0.06309435978548883,-0.0708841294012279,67.65856850579982,0.0
3,-0.1001909819297038,-0.10491748558209246,67.65856850579982,0.0
4,-0.13591573228412526,-0.13579611956186546,67.65856850579982,0.0
5,-0.1666694988966784,-0.1615680586726418,67.65856850579982,0.0
6,-0.1890468688460937,-0.18035479568744597,67.65856850579982,0.0
7,-0.20125488332291294,-0.1908966986998351,67.65856850579982,0.0
8,-0.20361191408599644,-0.19296032668902507,67.65856850579982,0.0
9,-0.19803011434816162,-0.18745366821582365,67.65856850579982,0.0
10,-0.18711914232228333,-0.1762230268498014,67.65856850579982,0.0
11,-0.17351785406061454,-0.1616220098425658,67.65856850579982,0.0
12,-0.15954780105289204,-0.14600381441301513,67.65856850579982,0.0
13,-0.1469613313272317,-0.13128440687571372,67.65856850579982,0.0
14,-0.1366768878758045,-0.11867498105360115,67.65856850579982,0.0
15,-0.1287003304533218,-0.10861495767910898,67.65856850579982,0.0
16,-0.12243436427436671,-0.10087668366718365,67.65856850579982,0.0
17,-0.11718351319482284,-0.09477770275829339,67.65856850579982,0.0
18,-0.11243713981517607,-0.08943304403669536,67.65856850579982,0.0
19,-0.10781389785975909,-0.08400102838252148,67.65856850579982,0.0
20,-0.10294658035292163,-0.07790248727155892,67.65856850579982,0.0
21,-0.0975922113709089,-0.07100586677031395,67.65856850579982,0.0
22,-0.09193795365176699,-0.06376308009424153,67.65856850579982,0.0
23,-0.08682346252248381,-0.057262577823621506,67.65856850579982,0.0
24,-0.08367241312125945,-0.05315373596284263,67.65856850579982,0.0
25,-0.08418702864716812,-0.05340357493763473,67.65856850579982,0.0
26,-0.08998663344088069,-0.059877789242887766,67.65856850579982,0.0
27,-0.10228809077439145,-0.07379044830714174,67.65856850579982,0.0
28,-0.12159810301087287,-0.09513143577056783,67.65856850579982,0.0
29,-0.14733672269105666,-0.12223976663566571,67.65856850579982,0.0
30,-0.17738161546097075,-0.15171586903343465,67.65856850579982,0.0
31,-0.2077230605375322,-0.17882443163509187,67.65856850579982,0.0
32,-0.23262428710526262,-0.1984134733918214,67.65856850579982,0.0
33,-0.2456780338627237,-0.20618355297343371,67.65856850579982,0.0
34,-0.24183107963942063,-0.1999496959490917,67.65856850579982,0.0
35,-0.21984084348954555,-0.18044487220052166,67.65856850579982,0.0
36,-0.18388961716569696,-0.1512990476304943,67.65856850579982,0.0
37,-0.14280770720645683,-0.1180995969849071,67.65856850579982,0.0
38,-0.1065551336344745,-0.08680070026307846,67.65856850579982,0.0
39,-0.08192275660081605,-0.06203260970725401,67.65856850579982,0.0
40,-0.07024266771770252,-0.045916679571288185,67.65856850579982,0.0
41,-0.06806132515212969,-0.03778239996466683,67.65856850579982,0.0
42,-0.06959493464366748,-0.034811703908420366,67.65856850579982,0.0
43,-0.0693563295947015,-0.03328334822400536,67.65856850579982,0.0
44,-0.06395908081940344,-0.029908544669350598,67.65856850579982,0.0
45,-0.052733159270810584,-0.022790484263006963,67.65856850579982,0.0
46,-0.037247309720140565,-0.011751142837140321,67.65856850579982,0.0
47,-0.020171375170811634,0.00196489436294732,67.65856850579982,0.0
48,-0.004072439722117641,0.01638992195575696,67.65856850579982,0.0
49,0.00937789402918017,0.02962760205342141,67.65856850579982,0.0
50,0.01964383556402198,0.040469866007638106,67.65856850579982,0.0
51,0.027168691026223213,0.04867990418116584,67.65856850579982,0.0
52,0.03305352186735673,0.054921389547658364,67.65856850579982,0.0
53,0.03870868576377626,0.060422229792634966,67.65856850579982,0.0
54,0.045506245625126854,0.06651780916919756,67.65856850579982,0.0
55,0.054436416511656815,0.07422387491152369,67.65856850579982,0.0
56,0.06582100815002845,0.08395582112759147,67.65856850579982,0.0
57,0.07920392913458638,0.09545557933940874,67.65856850579982,0.0
58,0.09352779015819378,0.10792551936143804,67.65856850579982,0.0
59,0.10756301221411449,0.12031514086494627,67.65856850579982,0.0
60,0.12038438210599792,0.1316723330527406,67.65856850579982,0.0
61,0.13164106081951882,0.14146157686646701,67.65856850579982,0.0
62,0.14150234363964753,0.14976305777304694,67.65856850579982,0.0
63,0.15040947220055909,0.15729036298986152,67.65856850579982,0.0
64,0.1589115246363816,0.16519429733372248,67.65856850579982,0.0
65,0.16771711976111997,0.174659522176594,67.65856850579982,0.0
66,0.1777354309352947,0.18635746155264504,67.65856850579982,0.0
67,0.18972132807458655,0.19989195882309488,67.65856850579982,0.0
68,0.20346218195056476,0.21343887985510182,67.65856850579982,0.0
69,0.21693202113213597,0.22379198284240198,67.65856850579982,0.0
70,0.22600465028468636,0.22694370394608998,67.65856850579982,1.0
71,0.22515137200587376,0.21914796892493763,68.09743984144066,0.0
72,0.20924671140858941,0.1981881787023076,68.53340394606775,0.0
73,0.1761010163842571,0.16440948743871944,68.96625495984959,0.0
74,0.1285925995827888,0.12107375928871403,69.3957845270155,0.0
75,0.07479798126712657,0.07380016419501188,69.82178197517614,0.0
76,0.025284982521394765,0.02920154615328762,70.24403450496614,0.0
77,-0.011186625548844663,-0.006837937328963373,70.66232738993321,0.0
78,-0.030849452403664185,-0.030642954220647833,71.07644418655988,0.0
79,-0.035258154474258924,-0.041489535783231,71.48616695426381,0.0
80,-0.02931897755105775,-0.04142364126180914,71.89127648518163,0.0
81,-0.01876605898336519,-0.03432363791301078,72.29155254349911,0.0
82,-0.00835773767613425,-0.024613275122719325,72.68677411404643,0.0
83,-0.0010705305867436468,-0.01607615636109254,73.07671965983455,0.0
84,0.0019777196383656825,-0.011096983983127723,73.4611673881629,0.0
85,0.00115873372728377,-0.010447653669323292,73.8398955248843,0.0
86,-0.0022970218686057947,-0.013543801600514105,74.21268259636805,0.0
87,-0.00697274265104153,-0.0189824717387505,74.57930771865705,0.0
88,-0.011738560014549489,-0.02515010482371203,74.93955089327068,0.0
89,-0.01593296286047903,-0.03073920559829442,75.29319330906132,0.0
90,-0.01935583757111762,-0.03508980391538213,75.64001764948986,0.0
91,-0.022239948740447144,-0.038338891666237995,75.97980840464409,0.0
92,-0.02527676644059794,-0.04139664003508178,76.31235218728399,0.0
93,-0.02963090987689515,-0.04577423666404508,76.63743805216049,0.0
94,-0.03679757805952182,-0.05328156143833515,76.9548578178179,0.0
95,-0.04822638690577849,-0.06561281457350845,77.2644063900574,0.0
96,-0.06484576254844501,-0.08385594575132674,77.56588208620876,0.0
97,-0.08673906458626209,-0.10799744949107692,77.85908695932919,0.0
98,-0.11303998802029669,-0.13653780505781238,78.14382712142573,0.0
99,-0.14184046671438838,-0.1663652494470297,78.41991306477523,0.0
100,-0.1699238479088359,-0.19302901474608636,78.68715998040102,0.0
101,-0.19251396044176342,-0.21147977186332131,78.94538807275201,0.0
102,-0.2036347422278131,-0.2171970416692191,79.19442286962173,0.0
103,-0.19764436289892628,-0.20743677600861843,79.43409552634124,0.0
104,-0.17180535756371307,-0.18219159526386167,79.66424312328044,0.0
105,-0.12863528930003718,-0.14446067197378498,79.88470895569768,0.0
106,-0.07612385544227795,-0.09962574800774923,80.09534281498811,0.0
107,-0.02485313757409209,-0.054069291233191985,80.29600126039604,0.0
108,0.01650439280516447,-0.013495779566880299,80.48654788027648,0.0
109,0.044331507124490535,0.018445284119872972,80.66685354201647,0.0
110,0.060183686103154777,0.04076716706854862,80.83679662975557,0.0
111,0.0686398183199249,0.05485085397542053,80.99626326907975,0.0
112,0.0746291783500566,0.06347837202481521,81.14514753790192,0.0
113,0.08151495677876992,0.06965032340289423,81.28335166278532,0.0
114,0.09046969587689271,0.07564785158879711,81.41078620001372,0.0
115,0.10097432126104756,0.08261852551433599,81.52737020076404,0.0
116,0.11177334257458044,0.09070871145791375,81.63303135979206,0.0
117,0.12169103334770683,0.09954852064019955,81.72770614710069,0.0
118,0.13014294670263352,0.10879298670421918,81.81133992212216,0.0
119,0.13736606548594416,0.1184495232671005,81.88388703000935,0.0
120,0.14430587371342002,0.12884567206182873,81.94531087969962,0.0
121,0.15213255574402407,0.14025825245537155,81.99558400348162,0.0
122,0.16154578673706954,0.1523769266063429,82.03468809786749,0.0
123,0.17212643149046442,0.1638625935094002,82.06261404564313,0.0
124,0.18194518800342663,0.17225299227239205,82.07936191904224,0.0
125,0.18756032496220415,0.17435936313460232,82.08494096406127,1.0
126,0.18456119420426018,0.16711496999736603,82.0666892199178,0.0
127,0.16885483969054288,0.14863624091480448,82.0125658065973,0.0
128,0.13860795078045066,0.1191194484369876,81.92358537333622,0.0
129,0.09603345014398196,0.08119474467532961,81.80084500972255,0.0
130,0.047639039301474916,0.039524559063190245,81.64551556008783,0.0
131,0.002152147527289025,-0.000283526678635751,81.4588327873233,0.0
132,-0.03289535105792478,-0.03309896155098334,81.24208848878828,0.0
133,-0.05378493645775198,-0.05553312176244769,80.99662166092813,0.0
134,-0.06110734938650378,-0.06662284343009342,80.72380980189998,0.0
135,-0.058484946478830915,-0.06775024051881698,80.4250604331862,0.0
136,-0.0506562429971196,-0.06191089403129561,80.10180291212882,0.0
137,-0.0418229959421168,-0.05265735799171475,79.75548059780675,0.0
138,-0.034679275299695264,-0.04310406034566829,79.3875434229496,0.0
139,-0.03019692805591067,-0.035287460168429055,78.99944091486131,0.0
140,-0.028009545969329745,-0.02999664679447798,78.59261569882,0.0
141,-0.027090092020867255,-0.027008666402370197,78.16849750829526,0.0
142,-0.0264095906810451,-0.025545612048287654,77.72849771772664,0.0
143,-0.025370683595017103,-0.024744094923501683,77.27400440564965,0.0
144,-0.023925742183552822,-0.023980055029341325,76.80637794872011,0.0
145,-0.022409870625444413,-0.02298545385997837,76.32694714073064,0.0
146,-0.021242400388221658,-0.021784772801278267,75.83700582506448,0.0
147,-0.020674415797035973,-0.02053611214544135,75.33781002419839,0.0
148,-0.020671442022509944,-0.019372090683904622,74.83057554583552,0.0
149,-0.020931183069810264,-0.01830772326255451,74.31647604199338,0.0
150,-0.021009124749882962,-0.017236356837209626,73.79664149484854,0.0
151,-0.020513584709198243,-0.015992947320362508,73.27215710129715,0.0
152,-0.01929220693756279,-0.01444226961922783,72.74406252697018,0.0
153,-0.01751346552371081,-0.012552634699251403,72.2133514997814,0.0
154,-0.015594519716649113,-0.01043643306672923,71.6809717129179,0.0
155,-0.014030513519044153,-0.008363099619064842,71.14782500744387,0.0
156,-0.013286481898004023,-0.006763664225608135,70.61476780531194,0.0
157,-0.013860359474785554,-0.006241964907218718,70.0826117645028,0.0
158,-0.016404822909155153,-0.007589187866381723,69.552124629185,0.0
159,-0.02172256336499742,-0.011776174532534385,69.02403124914782,0.0
160,-0.030625165398465295,-0.019883463909253576,68.49901474426537,0.0
161,-0.043774063556414416,-0.032930898788039224,67.97771779135276,0.0
162,-0.061576835844275014,-0.05159186060599697,67.46074401244033,0.0
163,-0.08411855150709585,-0.07582264515021746,66.94865944518367,0.0
164,-0.11101781221514065,-0.10449774112651662,66.44199407781954,0.0
165,-0.14108066704074596,-0.13519611044315555,65.94124343274548,0.0
166,-0.1718050764346697,-0.16429901946194886,65.44687018442632,0.0
167,-0.19907370274271843,-0.1875044024049023,64.9593057988974,0.0
168,-0.21752328825765263,-0.2007278837701499,64.47895218363102,0.0
169,-0.2219244444473888,-0.20118215753042074,64.00618333795059,0.0
170,-0.20936917850515377,-0.18828329956843068,63.54134699551135,0.0
171,-0.1812716336464999,-0.16401453340104977,63.0847662516117,0.0
172,-0.14369405772322713,-0.13253136794720588,62.636741169256204,0.0
173,-0.10520681361599139,-0.09907569004187428,62.19755035895956,0.0
174,-0.07333890047749488,-0.06855510334162426,61.76745252826071,0.0
175,-0.051825872412777474,-0.04429135220433084,61.34668799781295,0.0
176,-0.04003480211765947,-0.027368392318436935,60.935480181730945,0.0
177,-0.03434120637380235,-0.01675377135974631,60.53403703061485,0.0
178,-0.030347590120852724,-0.010056711700552758,60.142552436339116,0.0
179,-0.024774824868554236,-0.00456754514520849,59.761207598294845,0.0
180,-0.016295315093066046,0.0018218058968015316,59.390172351314796,0.0
181,-0.005293733293402728,0.010098870598008285,59.02960645599564,0.0
182,0.006884420515403514,0.020096010702807462,58.67966085256678,0.0
183,0.018647896617723717,0.030838210976698824,58.34047887984695,0.0
184,0.028688432044578535,0.04106770631378132,58.01219746118185,0.0
185,0.036339421068760425,0.04973362235315783,57.69494825957587,0.0
186,0.041672286281941834,0.056301500633566016,57.388858804521675,0.0
187,0.045285955738759515,0.060833887649772406,57.094053593300934,0.0
188,0.047963872719972454,0.06387769312288459,56.81065516977894,0.0
189,0.05042514058337652,0.06624125252027889,56.53878518395486,0.0
190,0.05323777507414444,0.0687496842912444,56.2785654357586,0.0
191,0.05681967137353404,0.07204422530070048,56.03011890681198,0.0
192,0.06143095158825046,0.07645928317638845,55.79357078410013,0.0
193,0.06712095198262913,0.08198481184712869,55.569049479733536,0.0
194,0.0736678748690475,0.08830610877503846,55.35668765122677,0.0
195,0.08057874352258235,0.09490505596309326,55.15662322698235,0.0
196,0.0872033220616154,0.10120106647210125,54.969000441951124,0.0
197,0.09296598415136831,0.10670461027883944,54.79397088875184,0.0
198,0.09761681522960104,0.11115322654923575,54.631694589875885,0.0
199,0.10133623095984744,0.11460220705691493,54.482341096985685,0.0
200,0.10461931078631839,0.1174494350370353,54.346090623745766,0.0
201,0.10804973642043607,0.12038260815556191,54.22313521910752,0.0
202,0.11215790866611261,0.12424446481594634,54.113679988515905,0.0
203,0.11744066926987842,0.1298201262798817,54.01794437112416,0.0
204,0.12438393537143334,0.13756697672931223,53.936163481804755,0.0
205,0.13325224995429596,0.1473349934016021,53.86858952754209,0.0
206,0.14365679289721622,0.1581562252072598,53.815493308700106,0.0
207,0.1541967677403455,0.16819745106670927,53.77716581669166,0.0
208,0.16244756983269212,0.17495095673467637,53.75391994075606,0.0
209,0.16536255026509888,0.17567920198250303,53.74609229789726,1.0
210,0.1600030837909133,0.16804414731112255,53.74645337226171,0.0
211,0.14439979545069004,0.1507709191762127,53.747533198814395,0.0
212,0.11826937883753977,0.12415160549835298,53.749326725382446,0.0
213,0.08338726469133773,0.09021180457137469,53.75182895556452,0.0
214,0.0435474267279964,0.052444119843852006,53.7550349473991,0.0
215,0.003989819659245074,0.015139709861769213,53.75893981205253,0.0
216,-0.02984596647576837,-0.0175189425850846,53.76353871252657,0.0
217,-0.05397191144785887,-0.042353981571524854,53.768826862384756,0.0
218,-0.06708204073941562,-0.05782531183281142,53.77479952449735,0.0
219,-0.07062053740863086,-0.06424017050976968,53.78145200980385,0.0
220,-0.0677799074550381,-0.06352431133076965,53.78877967609329,0.0
221,-0.06221308008796625,-0.05867567367732263,53.79677792680116,0.0
222,-0.05712327042049107,-0.053089483418892594,53.805442209822964,0.0
223,-0.05486687110218189,-0.049926494705260116,53.81476801634377,0.0
224,-0.05690831915836031,-0.051621137826045646,53.82475087968346,0.0
225,-0.06394318905929458,-0.059545489273003266,53.83538637415692,0.0
226,-0.0760409101443715,-0.07380349157472782,53.84667011394927,0.0
227,-0.09269297049291285,-0.0931438258860906,53.858597752005274,0.0
228,-0.1126811540274249,-0.11502988012329123,53.8711649789328,0.0
229,-0.13376849034266033,-0.1359464004047851,53.884367521919785,0.0
230,-0.15245596290772173,-0.15200669491243884,53.898201143664515,0.0
231,-0.16425995427194925,-0.15982910026435815,53.91266164131871,0.0
232,-0.16487739632409526,-0.1575019963933452,53.92774484544307,0.0
233,-0.15216095643009395,-0.14532667754390383,53.94344661897506,0.0
234,-0.12805915211146984,-0.12600807356673752,53.95976285620839,0.0
235,-0.09900275179104945,-0.10410807315023418,53.97668948178415,0.0
236,-0.07371840973434125,-0.08485158730858675,53.99422244969289,0.0
237,-0.05941299499149533,-0.07265884660253438,54.01235774228781,0.0
238,-0.058815544356421744,-0.06991871669004157,54.03109136930832,0.0
239,-0.06980119744903565,-0.07643300141654444,54.05041936691394,0.0
240,-0.08720237631784902,-0.08968974317534059,54.070337796728154,0.0
241,-0.10524035806868447,-0.1058017159837327,54.09084274489194,0.0
242,-0.11936813703403568,-0.12072435193518866,54.11193032112673,0.0
243,-0.12714851408733058,-0.13132584685174714,54.13359665780661,0.0
244,-0.1282743099408426,-0.13600594438918756,54.15583790903926,0.0
245,-0.12398567818063776,-0.13476708285219294,54.178650249755606,0.0
246,-0.11621322225075964,-0.1288362305956176,54.20202987480793,0.0
247,-0.10681002165417222,-0.12005081834043993,54.22597299807603,0.0
248,-0.09712575514803405,-0.11023831717821456,54.25047585158141,0.0
249,-0.08793560259676206,-0.10075900199606663,54.27553468460912,0.0
250,-0.0795521826780265,-0.09228927053633214,54.30114576283695,0.0
251,-0.07195638412376576,-0.08483943391519431,54.32730536747223,0.0
252,-0.06487470982116003,-0.0779467898550329,54.35400979439527,0.0
253,-0.05779825342614356,-0.07096233419755409,54.38125535330996,0.0
254,-0.050049044742287344,-0.06334632346964769,54.409038366900894,0.0
255,-0.04105612751818451,-0.05489447476225189,54.437355169997,0.0
256,-0.030788634453741685,-0.04583276427504315,54.466202108741406,0.0
257,-0.01999333755022383,-0.036750656309960494,54.49557553976749,0.0
258,-0.009941983752072545,-0.028391107364049505,54.525471829380784,0.0
259,-0.0018111653497361324,-0.021367909183080458,54.555887352746616,0.0
260,0.0038945546594962924,-0.015913589279452953,54.586818493083456,0.0
261,0.0075706913705334555,-0.011755026968371128,54.61826164086157,0.0
262,0.010348370945177675,-0.008167771009304506,54.650213193007026,0.0
263,0.013672998965751908,-0.004192253812460571,54.68266955211083,0.0
264,0.01881591308406623,0.0010658182116275727,54.715627125642975,0.0
265,0.02646852794360209,0.008158270855341182,54.74908232517143,0.0
266,0.03653348384301305,0.017136104672544054,54.78303156558577,0.0
267,0.04820289486166339,0.027559332632858126,54.81747126432545,0.0
268,0.06031011594195235,0.03866322493385407,54.85239784061243,0.0
269,0.07179365153334331,0.049617089014364804,54.88780771468828,0.0
270,0.08204092549574575,0.059786880276827575,54.92369730705533,0.0
271,0.09097159638919594,0.06892061055779074,54.96006303772212,0.0
272,0.09891703594613048,0.07720748486646742,54.996901325452676,0.0
273,0.10646400276320607,0.08520275867187886,55.03420858701978,0.0
274,0.11436412213413913,0.09364711198679944,55.07198123646202,0.0
275,0.12344375268493452,0.10323506048071439,55.110215684344524,0.0
276,0.13437967487364577,0.11439939809873398,55.14890833702332,0.0
277,0.1473808178091208,0.12717592382462298,55.188055595913234,0.0
278,0.16201793587594882,0.14119222919270474,55.22765385675924,0.0
279,0.17735845131791353,0.1557874270555024,55.26769950891118,0.0
280,0.19231898455695506,0.1702258237522081,55.30818893460169,0.0
281,0.20605558122569057,0.1839325667503182,55.34911850822758,0.0
282,0.21825482390704265,0.19666806999894948,55.390484595634156,0.0
283,0.2292119083861329,0.2085763972699687,55.43228355340271,0.0
284,0.23963827260647508,0.2200844523686663,55.474511728141174,0.0
285,0.25028051262413065,0.23167813486157035,55.517165455777665,0.0
286,0.26151895744264525,0.2436207458137294,55.560241060856946,0.0
287,0.2730880894107897,0.2556957077154426,55.60373485583993,0.0
288,0.28399784591191135,0.26704808258789337,55.64764314040599,0.0
289,0.29266545140489153,0.27617448151246926,55.69196220075802,0.0
290,0.29718214802723375,0.28107927898781043,55.73668830893049,1.0
291,0.29558651884277776,0.27958411106346337,55.787348289055444,0.0
292,0.28608213731174864,0.2697488586190127,55.84926842234332,0.0
293,0.2672756099781185,0.25033359942876887,55.922152056003604,0.0
294,0.23853524818225122,0.22120360426106828,56.005712068128226,0.0
295,0.20043272937291132,0.18356340817281874,56.09966966075239,0.0
296,0.15507530737179237,0.13991815261367443,56.203753204039536,0.0
297,0.1060726593287274,0.09371383316575022,56.31769712582043,0.0
298,0.05794276975142332,0.04869897652249955,56.44124084130036,0.0
299,0.014999546940342084,0.008151809617499783,56.57412771828276,0.0
300,-0.01987414159066417,-0.025812964773243074,56.716104073751225,0.0
301,-0.04599018495499402,-0.05264281472014948,56.866918198110184,0.0
302,-0.06484336433391291,-0.07331675321612799,57.02631940381353,0.0
303,-0.07946224942219585,-0.08988874899203643,57.19405709551648,0.0
304,-0.09338318852181948,-0.10475375247752858,57.369879859271975,0.0
305,-0.1094037637216494,-0.11988078397588889,57.553534568664176,0.0
306,-0.12850207273102113,-0.1362641742725699,57.744765506131785,0.0
307,-0.1495746287762983,-0.15375592193810825,57.943313498086745,0.0
308,-0.17021373059822947,-0.17129390320226653,58.14891506278067,0.0
309,-0.1879928308043585,-0.18739531460943726,58.361301570218075,0.0
310,-0.20147761873332412,-0.20070413408322024,58.58019841376044,0.0
311,-0.2104928541292293,-0.21039424468429857,58.80532419341472,0.0
312,-0.21572527317609333,-0.2163182132786677,59.0363899111523,0.0
313,-0.21814733774040504,-0.21890538877723384,59.273098178963345,0.0
314,-0.21866104398391167,-0.21890047567928367,59.51514244071685,0.0
315,-0.21795292219161422,-0.21706745316331438,59.76220620927097,0.0
316,-0.21637112510499215,-0.2139655077184324,60.01396232065879,0.0
317,-0.21384026879365306,-0.2098539129712253,60.27007220756589,0.0
318,-0.2099979970894563,-0.20472629107620843,60.53018519471287,0.0
319,-0.20454432491936422,-0.19843187001974558,60.79393781916172,0.0
320,-0.19750200945690072,-0.19082394021701696,61.06095317897526,0.0
321,-0.18915496275005786,-0.18188365703219184,61.33084031407353,0.0
322,-0.17981297018323839,-0.17178937487769505,61.60319362354657,0.0
323,-0.16972019652562384,-0.16092289966129392,61.87759232409806,0.0
324,-0.15918233439855856,-0.14981631093546605,62.15359995470211,0.0
325,-0.14870395945878312,-0.13904920694010853,62.43076393295545,0.0
326,-0.13892589684210915,-0.12911404693055423,62.7086151689901,0.0
327,-0.13036567895338136,-0.12027935472242919,62.986667743176014,0.0
328,-0.1231512876995855,-0.11249081483265125,63.26441865417779,0.0
329,-0.11692460872363052,-0.10534907151932306,63.541347644230626,0.0
330,-0.11092800986719127,-0.09818532230579508,63.8169171087588,0.0
331,-0.1041901628523774,-0.09022537137353868,64.09057209766578,0.0
332,-0.09576932354438221,-0.0808004021764651,64.36174041577044,0.0
333,-0.08504904820060376,-0.06954110881165407,64.62983282993807,0.0
334,-0.07200188501177762,-0.056490920779043455,64.89424339044771,0.0
335,-0.057249577354027,-0.04209692077410856,65.1543498740394,0.0
336,-0.04183724019065469,-0.02707731522746605,65.409514355883,0.0
337,-0.026844269198443196,-0.01220723399093826,65.65908391739754,0.0
338,-0.013033081493620965,0.0019069408080630845,65.90239149641305,0.0
339,-0.0006514448731158445,0.014991968636747927,66.13875688559834,0.0
340,0.010584400595564494,0.02716178926585705,66.3674878843693,0.0
341,0.02134259329767685,0.03885192958190546,66.58788160863516,0.0
342,0.032438775611596,0.05066564574078977,66.79922596173148,0.0
343,0.04462028311416667,0.0631905452528114,67.00080126872211,0.0
344,0.05841652381693005,0.07685017310000847,67.19188207493137,0.0
345,0.07401953451722573,0.09183802311029551,67.3717391080896,0.0
346,0.09121243952841386,0.1081470318038196,67.53964140185072,0.0
347,0.10945588098459899,0.12566657477321902,67.69485857667338,0.0
348,0.128172907389083,0.14428625653941318,67.83666327216473,0.0
349,0.14708514320347507,0.16393709029667433,67.9643337229819,0.0
350,0.16634654999705648,0.18452524871784995,68.07715646829477,0.0
351,0.1863058419567167,0.20576611256167743,68.17442918265661,0.0
352,0.2069727872265925,0.22698492517427674,68.25546361394063,0.0
353,0.22749665871681776,0.24698499635082022,68.31958861181029,0.0
354,0.24599107344805995,0.26407314641684654,68.3661532280388,0.0
355,0.2598493415527048,0.276274993404839,68.39452986791915,0.0
356,0.2664446040897541,0.2816940920332631,68.40411747005106,1.0
357,0.26391659247562177,0.27890568254966047,68.40411747005106,0.0
358,0.2516863256737505,0.26725796895618004,68.40411747005106,0.0
359,0.23048306941227117,0.24698893427199375,68.40411747005106,0.0
360,0.2019413750218216,0.2191363813349884,68.40411747005106,0.0
361,0.16803004884953657,0.18528977214758707,68.40411747005106,0.0
362,0.13057960456744902,0.1472742529502286,68.40411747005106,0.0
363,0.09103241632843495,0.10685763113348976,68.40411747005106,0.0
364,0.05042963438305582,0.06553919562664744,68.40411747005106,0.0
365,0.009594352581049681,0.024437905384509268,68.40411747005106,0.0
366,-0.030658762915677096,-0.01573102462016883,68.40411747005106,0.0
367,-0.06952457797310505,-0.05460823441862962,68.40411747005106,0.0
368,-0.1064376484279776,-0.0920796968245122,68.40411747005106,0.0
369,-0.14126865067919206,-0.12810764253259913,68.40411747005106,0.0
370,-0.1742240268881293,-0.16252052504784922,68.40411747005106,0.0
371,-0.20541145716410286,-0.19480881547554996,68.40411747005106,0.0
372,-0.23429143895588983,-0.22399883696535058,68.40411747005106,0.0
373,-0.2594128179645012,-0.24867516922935762,68.40411747005106,0.0
374,-0.27871186181907104,-0.2671835955180972,68.40411747005106,0.0
375,-0.29019662468821694,-0.27798334628325744,68.40411747005106,0.0
376,-0.292542667933676,-0.2800567951049693,68.40411747005106,0.0
377,-0.285377456751825,-0.27325288320762675,68.40411747005106,0.0
378,-0.2694184244555881,-0.25844989351040504,68.40411747005106,0.0
379,-0.24658151096358663,-0.2374711134540152,68.40411747005106,0.0
380,-0.21982096344240645,-0.21276001638423014,68.40411747005106,0.0
381,-0.19244220088854197,-0.1868985417714536,68.40411747005106,0.0
382,-0.16713181854475267,-0.16210612696809285,68.40411747005106,0.0
383,-0.1453020280716681,-0.1398648769898736,68.40411747005106,0.0
384,-0.127059265090967,-0.12077118770620499,68.40411747005106,0.0
385,-0.11162961210687476,-0.10463398774131974,68.40411747005106,0.0
386,-0.09793273584592888,-0.09075841904999554,68.40411747005106,0.0
387,-0.08506471407997107,-0.07830296185477009,68.40411747005106,0.0
388,-0.07252456191390412,-0.06659202228731552,68.40411747005106,0.0
389,-0.060184682309737184,-0.05529849304352015,68.40411747005106,0.0
390,-0.048189705029182225,-0.044462862770739284,68.40411747005106,0.0
391,-0.03691023328154275,-0.03436755920395088,68.40411747005106,0.0
392,-0.026854541140164098,-0.025324722466297245,68.40411747005106,0.0
393,-0.018406747740944765,-0.017456521953366083,68.40411747005106,0.0
394,-0.011475547558417634,-0.010546200623947843,68.40411747005106,0.0
395,-0.005322890965620081,-0.004014034070121998,68.40411747005106,0.0
396,0.001243474658437993,0.0029699366745224304,68.40411747005106,0.0
397,0.00942216043192147,0.011271735887159275,68.40411747005106,0.0
398,0.01999343993014928,0.021547238900971877,68.40411747005106,0.0
399,0.03309722157172536,0.03404122803448038,68.40411747005106,0.0
400,0.048244124561164045,0.04849020201178947,68.40411747005106,0.0
401,0.06452050167235661,0.06415292655626403,68.40411747005106,0.0
402,0.08086225739670438,0.07995776851872906,68.40411747005106,0.0
403,0.0962289337524858,0.09473104297684903,68.40411747005106,0.0
404,0.1096653863730445,0.10745775599218578,68.40411747005106,0.0
405,0.12041845107141158,0.11752119478744541,68.40411747005106,0.0
406,0.1281806942413551,0.12486782336825024,68.40411747005106,0.0
407,0.13330549280099063,0.13005143890674162,68.40411747005106,0.0
408,0.13683158785746183,0.1341311662630138,68.40411747005106,0.0
409,0.14030758933543028,0.13843332627113575,68.40411747005106,0.0
410,0.1454460380865986,0.1442301374433554,68.40411747005106,0.0
411,0.15362402321197402,0.15242288251122219,68.40411747005106,0.0
412,0.16536267438410637,0.16332587733015294,68.40411747005106,0.0
413,0.18007806105936486,0.17662004807023637,68.40411747005106,0.0
414,0.19634414887873292,0.19148664847951286,68.40411747005106,0.0
415,0.21254344332305697,0.20686510195767333,68.40411747005106,0.0
416,0.22745404285325724,0.2217338405930219,68.40411747005106,0.0
417,0.2404423889146932,0.23530991759801295,68.40411747005106,0.0
418,0.25132131547688985,0.2471020037161601,68.40411747005106,0.0
419,0.26012237782871134,0.25681309573121874,68.40411747005106,0.0
420,0.26688663323018386,0.2641478853903158,68.40411747005106,0.0
421,0.27139432920129136,0.26861433323645884,68.40411747005106,0.0
422,0.2728627926921985,0.2694092212772513,68.40411747005106,1.0
423,0.26988506841690757,0.26544452539119523,68.4027858372599,0.0
424,0.26079574418980767,0.25551795836541213,68.39884398073231,0.0
425,0.2442564635121811,0.23857812380362672,68.39237188410007,0.0
426,0.2196717781452447,0.2140034125061852,68.38345004440744,0.0
427,0.18727147619305212,0.18181396499364105,68.37215941377751,0.0
428,0.14798033240900757,0.14276191365261987,68.35858134273876,0.0
429,0.10325277251006229,0.09828130081445004,68.3427975252694,0.0
430,0.054945010726016597,0.0503116821636071,68.32488994561203,0.0
431,0.005195706678646161,0.0010329058466308771,68.30494082690558,0.0
432,-0.04375286386587404,-0.04743601744726397,68.28303258167679,0.0
433,-0.08984718347613704,-0.0933123961403848,68.25924776422809,0.0
434,-0.13159726700834723,-0.13533931160196946,68.23366902495422,0.0
435,-0.16836001534857,-0.1728453553980835,68.20637906661518,0.0
436,-0.20030527659771624,-0.20566480355804057,68.17746060258877,0.0
437,-0.22801470382810896,-0.2339510350166653,68.14699631712121,0.0
438,-0.2519636392399829,-0.2579504016828774,68.11506882759114,0.0
439,-0.2722343237379291,-0.277813516380854,68.08176064879729,0.0
440,-0.2885504446428687,-0.2935011305733617,68.04715415927714,0.0
441,-0.30044351431155103,-0.3048022630303418,68.01133156966046,0.0
442,-0.3074146421601841,-0.31144105538320627,67.97437489305753,0.0
443,-0.3091393219221181,-0.3132221095649047,67.93636591747983,0.0
444,-0.30570726089207506,-0.3101596158630621,67.89738618028706,0.0
445,-0.2976996533846976,-0.3025515467136012,67.85751694465269,0.0
446,-0.28598074625293846,-0.29098661754385025,67.8168391780369,0.0
447,-0.27140428780843995,-0.27629485255477526,67.77543353265418,0.0
448,-0.2547319576258085,-0.25946232451321677,67.73338032792056,0.0
449,-0.23676358302016223,-0.24152702300386286,67.69075953486352,0.0
450,-0.21841801931229135,-0.2234652643985315,67.64765076247642,0.0
451,-0.20061821603361893,-0.20607673408808894,67.60413324599732,0.0
452,-0.1840875934533202,-0.18988337071022665,67.56028583709144,0.0
453,-0.16920088365141334,-0.1750661042664698,67.51618699591506,0.0
454,-0.15590146595674254,-0.16146422699761825,67.47191478503798,0.0
455,-0.14366129550446471,-0.14864925084129146,67.42754686520128,0.0
456,-0.13157484129592578,-0.1360606949656151,67.38316049288612,0.0
457,-0.1187108832758612,-0.12316551441340849,67.33883251966975,0.0
458,-0.10458931648888188,-0.10959009280490634,67.29463939334418,0.0
459,-0.08938401063557923,-0.09518405654453833,67.25065716077353,0.0
460,-0.07365046583691176,-0.08000592377282166,67.20696147246592,0.0
461,-0.057855248391351935,-0.06425499314502692,67.16362758883666,0.0
462,-0.04213331016748005,-0.04819157342908417,67.12073038813953,0.0
463,-0.026408718873813297,-0.03207972563516169,67.07834437604414,0.0
464,-0.01065490701399506,-0.016161771283011342,67.03654369683781,0.0
465,0.004998704476913071,-0.0006502451902416773,66.99540214623202,0.0
466,0.020342567171923148,0.014285116995460992,66.95499318575392,0.0
467,0.03516632374984739,0.02854827294672517,66.91538995870523,0.0
468,0.049281289768719844,0.04215937861432212,66.87666530767227,0.0
469,0.06259073030502675,0.05528511796512171,66.83889179357199,0.0
470,0.07524157590199104,0.06822717197193473,66.80214171622127,0.0
471,0.08771157220633814,0.08135039115522193,66.76648713641808,0.0
472,0.10065743073500308,0.09495869116167123,66.731999899525,0.0
473,0.11455063461313472,0.10915734957794965,66.6987516605484,0.0
474,0.1293599994867438,0.12375901248853752,66.66681391070793,0.0
475,0.14452512876195023,0.13828494945994035,66.63625800549387,0.0
476,0.15920241481750877,0.15208243561057025,66.60715519421215,0.0
477,0.17256153889990136,0.16453536527834248,66.57957665101985,0.0
478,0.1839938929424557,0.1753054169602925,66.55359350745577,0.0
479,0.1933100173131215,0.18451999423586474,66.52927688647505,0.0
480,0.20098898854918498,0.19282944636263535,66.50669793799813,0.0
481,0.20828424236268184,0.20129127925366017,66.48592787598906,0.0
482,0.2169203276831012,0.21109542241500487,66.46703801708026,0.0
483,0.2284167253342322,0.22320344949608362,66.4500998207649,0.0
484,0.243401103826438,0.23801135377940505,66.43518493118184,0.0
485,0.26129481739820726,0.2551419628456403,66.42236522052104,0.0
486,0.280489058685659,0.2734295566889442,66.41171283408231,0.0
487,0.2988276308576249,0.29109530610998224,66.40330023702353,0.0
488,0.31409431874952165,0.3060552689561526,66.39720026283925,0.0
489,0.324314992994429,0.31627289228370625,66.39348616361521,0.0
490,0.3279010434496544,0.32006945198131076,66.39223166210839,1.0
491,0.32375922865716567,0.31632985372430966,66.3926618031208,0.0
492,0.31140951764921854,0.3045752098987592,66.393939371754,0.0
493,0.29103784668106125,0.28490835562935246,66.39604513285336,0.0
494,0.2633836874357242,0.25786855236597295,66.39895990932723,0.0
495,0.22946879906513418,0.22425218608457864,66.402664577408,0.0
496,0.19032007267135612,0.18496147496694723,66.40714006203335,0.0
497,0.1468325398110429,0.1409289643947288,66.41236733234604,0.0
498,0.09978875300092203,0.09313383350116441,66.41832739731082,0.0
499,0.049970532961215605,0.04268634145660735,66.42500130144695,0.0
500,-0.0016727869542876306,-0.00907625618324892,66.43237012067486,0.0
501,-0.05379119217054312,-0.060550754102012494,66.440414958276,0.0
502,-0.10444409497627738,-0.10993644444122186,66.44911694096463,0.0
503,-0.15123513009455833,-0.1554167513138769,66.45845721507055,0.0
504,-0.19189891806277395,-0.195405956032232,66.46841694283167,0.0
505,-0.22502247837871414,-0.228776457458448,66.47897729879594,0.0
506,-0.2503794657017077,-0.25498458746063324,66.49011946633158,0.0
507,-0.2686529042216341,-0.2740557326294957,66.50182463424507,0.0
508,-0.2808080115263357,-0.286449645365309,66.51407399350632,0.0
509,-0.28760031421228954,-0.2928716850478527,66.52684873408046,0.0
510,-0.28950930243552736,-0.29410415310752946,66.5401300418659,0.0
511,-0.2869787990473484,-0.290906265662638,66.55389909573832,0.0
512,-0.2806129089126255,-0.2839917750443129,66.5681370647001,0.0
513,-0.271135934688679,-0.2740610885877896,66.58282510513538,0.0
514,-0.25925740748266807,-0.26184986325824566,66.5979443581702,0.0
515,-0.24567276910937585,-0.24815698216750096,66.61347594713783,0.0
516,-0.23118897453381068,-0.23382638615402115,66.62940097514938,0.0
517,-0.21676199787604833,-0.21967580684278676,66.64570052276946,0.0
518,-0.20332690012327143,-0.20638736385177045,66.66235564579729,0.0
519,-0.19150470997927377,-0.1943933514477725,66.67934737315312,0.0
520,-0.1813760750953586,-0.18379676772930026,66.69665670487045,0.0
521,-0.1724871880692777,-0.17435601334007977,66.71426461019402,0.0
522,-0.1640920604067822,-0.16554129855063598,66.73215202578426,0.0
523,-0.15544463223233668,-0.15664785146796836,66.75029985402799,0.0
524,-0.1459374925340829,-0.14693814089915308,66.7686889614564,0.0
525,-0.13507569507811884,-0.13578434683399357,66.78730017727023,0.0
526,-0.12245567537077733,-0.12278787951644017,66.80611429197278,0.0
527,-0.107865298623132,-0.1078582227837062,66.8251120561115,0.0
528,-0.09142769123390226,-0.0912370032344128,66.84427417912825,0.0
529,-0.07364938999719454,-0.07345837545939726,66.86358132831914,0.0
530,-0.05532392411413437,-0.055247277498477645,66.88301412790433,0.0
531,-0.0373367925642719,-0.037372293280324084,66.90255315820869,0.0
532,-0.020459767823353667,-0.020484599554962013,66.92217895495351,0.0
533,-0.0051917361000630435,-0.004982196455144791,66.94187200866037,0.0
534,0.008361815659780086,0.009065117048249291,66.96161276416751,0.0
535,0.0205484442635796,0.021910125337539527,66.98138162025978,0.0
536,0.03206878083156904,0.03404528110765412,67.00115892941217,0.0
537,0.04370475546431926,0.04606883374304578,67.02092499764855,0.0
538,0.056043241040322864,0.0585400647847104,67.04066008451554,0.0
539,0.06936695086234022,0.07186263789271828,67.06034440317273,0.0
540,0.08371230769140658,0.0862208926556255,67.07995812059966,0.0
541,0.09896395950917522,0.10157448602995509,67.09948135792037,0.0
542,0.11489913351892544,0.11770091336001684,67.11889419084649,0.0
543,0.13121486940231694,0.134267718584004,67.13817665023907,0.0
544,0.14759192764481277,0.15091594751210483,67.15730872279016,0.0
545,0.16378697349479593,0.16734012326164818,67.17627035182491,0.0
546,0.17969306908939608,0.18335418638297318,67.19504143822446,0.0
547,0.19531173149978667,0.198934980350628,67.21360184147069,0.0
548,0.2106780202305398,0.21423401105196857,67.23193138081307,0.0
549,0.22585798007574118,0.22954589532155514,67.25000983655848,0.0
550,0.24103734975593974,0.24522279004076966,67.26781695148433,0.0
551,0.25654801215989875,0.26153375521146716,67.28533243237574,0.0
552,0.2726768801236061,0.27848785435957213,67.30253595168688,0.0
553,0.28931317516026245,0.29566311010144386,67.31940714932745,0.0
554,0.3056607457114564,0.312097462292813,67.33592563457415,0.0
555,0.3201691722885126,0.326291690626492,67.35207098810793,0.0
556,0.33069508517653934,0.33634643810594306,67.367822764177,0.0
557,0.3348769075182327,0.34021584864818577,67.38316049288612,1.0
558,0.33064839712274496,0.3360250538976055,67.39813119961936,0.0
559,0.31668162920395204,0.32238189464493366,67.41280503918665,0.0
560,0.2925604813451487,0.2986195694188866,67.42719624400947,0.0
561,0.2586846908452937,0.2649296058690324,67.44131907867461,0.0
562,0.21608581606209537,0.22237043436606296,67.4551878387746,0.0
563,0.16633717506400073,0.17275563964445592,67.46881684980661,0.0
564,0.11156075506462967,0.11843701677964914,67.48222046613056,0.0
565,0.05435132002591317,0.0620080319244497,67.4954130699864,0.0
566,-0.0025321846588811092,0.005969379276274889,67.50840907057137,0.0
567,-0.05663178981024408,-0.04758272705298294,67.52122290317746,0.0
568,-0.10618780525880281,-0.09717479690320355,67.53386902838905,0.0
569,-0.15032833702292164,-0.14202162883924874,67.54636193134162,0.0
570,-0.18904407724453642,-0.18191751574627785,67.55871612104164,0.0
571,-0.22294765701211233,-0.21698646005432987,67.57094612974758,0.0
572,-0.25280271733557874,-0.24737775044058957,67.58306651241293,0.0
573,-0.27893396177271434,-0.27302049378857,67.59509184619098,0.0
574,-0.30083793005299,-0.29353489853090375,67.60703673000208,0.0
575,-0.31731453146464667,-0.308339092944777,67.6189157841632,0.0
576,-0.3270865447599658,-0.31690948598056584,67.63074365008045,0.0
577,-0.32950868539243916,-0.3190855518072162,67.64253499000436,0.0
578,-0.324969644884016,-0.31528795541491744,67.65430448684879,0.0
579,-0.3148600088714664,-0.306552674268043,67.66606684407299,0.0
580,-0.30120577739891485,-0.2943577716415808,67.67783678562756,0.0
581,-0.28614038149096244,-0.2803014374688304,67.68962905596435,0.0
582,-0.27138157520567496,-0.2657465204106343,67.70145842011057,0.0
583,-0.2578546801535125,-0.2515571522294387,67.71333966380732,0.0
584,-0.24556699633708537,-0.23801508876364658,67.72528759371279,0.0
585,-0.23379450707315302,-0.22493288224680408,67.73731703767042,0.0
586,-0.22154508639632325,-0.21190555094364905,67.74944284504215,0.0
587,-0.20811086976900914,-0.19859156678930664,67.7616798871071,0.0
588,-0.19344417327452468,-0.18490797013330962,67.77404305752603,0.0
589,-0.17816155477406367,-0.1710653408304475,67.78654727287149,0.0
590,-0.16318586023185205,-0.15743848511164293,67.79920747322444,0.0
591,-0.14926241214075023,-0.14433811149813547,67.81203862283728,0.0
592,-0.13661248018450448,-0.1317890295712555,67.82505571086352,0.0
593,-0.12481752267784792,-0.11941688088445082,67.8382737521548,0.0
594,-0.11290292251777834,-0.10650180836118885,67.8517077881252,0.0
595,-0.09960053070097011,-0.09219193713996793,67.86537288768325,0.0
596,-0.08378266146531452,-0.07580657252363371,67.8792841482323,0.0
597,-0.0649474973637508,-0.05712126366768797,67.89345669673916,0.0
598,-0.04350770931260092,-0.036528119742257434,67.9079056908718,0.0
599,-0.020715611293387448,-0.015004888071471267,67.92264632020623,0.0
600,0.001717620619686805,0.006109302592876939,67.93769380750328,0.0
601,0.022128835250706927,0.025468381489020003,67.95306341005552,0.0
602,0.03935169425421792,0.042097127042972846,67.96877042110486,0.0
603,0.052970357928533246,0.05567642044002222,67.98483017133145,0.0
604,0.06338577235603547,0.06664653639681929,68.00125803041433,0.0
605,0.07180093668235404,0.07609235682949576,68.01806940866432,0.0
606,0.08005949036161936,0.08544027413731282,68.03527975872997,0.0
607,0.09012808259541079,0.09605711468022382,68.05290457737709,0.0
608,0.10333377093890933,0.1088766460371278,68.07095940734241,0.0
609,0.11986270427770634,0.12417282359566179,68.08945983926229,0.0
610,0.13884051098176534,0.14154848568922068,68.10842151367707,0.0
611,0.1588248316517686,0.16013126958698518,68.12786012311196,0.0
612,0.1783862302075314,0.17889622242858588,68.14779141423513,0.0
613,0.19657148607484481,0.19699574523872854,68.16823119009408,0.0
614,0.21311631412036725,0.21398464427981906,68.18919531243094,0.0
615,0.22835711806533915,0.22987362786487245,68.2106997040779,0.0
616,0.2429400034112119,0.24500733907960226,68.23276035143363,0.0
617,0.25747934496175684,0.2598190580643929,68.25539330702172,0.0
618,0.2722581357026009,0.27454669323894326,68.27861469213242,0.0
619,0.2870308524757695,0.2889982409564475,68.30244069954851,0.0
620,0.30097856903397746,0.3024342738508352,68.32688759635695,0.0
621,0.3127973605995238,0.3136003156182767,68.35197172684715,0.0
622,0.3208538314442074,0.32090361988912786,68.37770951549743,0.0
623,0.32340179031994964,0.3226947671072242,68.40411747005106,1.0
624,0.31890072405984515,0.3175898603191077,68.434141743437,0.0
625,0.30637909874430413,0.3047579930262013,68.47057536316034,0.0
626,0.28568997441141086,0.2841043263950245,68.51320719450415,0.0
627,0.2575652847792531,0.25630215029396697,68.5618284271257,0.0
628,0.22346077920841761,0.22266346828423372,68.61623219149736,0.0
629,0.18522946786964384,0.18487791656665223,68.67621319042998,0.0
630,0.1447363198609734,0.14468325856377315,68.74156734488622,0.0
631,0.10353885619671678,0.10354835252510876,68.8120914533886,0.0
632,0.06267515195382035,0.06244716233824865,68.88758286441849,0.0
633,0.022573427467533352,0.021780980245915543,68.96783916129031,0.0
634,-0.016886497011641008,-0.01852970169315546,69.05265785906774,0.0
635,-0.05616431432099753,-0.05880504877769138,69.14183611316756,0.0
636,-0.09573319830862406,-0.09927963668333925,69.23517043937302,0.0
637,-0.13568442033224937,-0.13978077295569744,69.3324564450504,0.0
638,-0.17538786483935181,-0.1795088065649667,69.43348857143191,0.0
639,-0.21337602732960315,-0.21699655831047437,69.53805984689544,0.0
640,-0.2475260078664434,-0.25028003730419673,69.64596165123533,0.0
641,-0.27547139092445283,-0.27725387824534836,69.7569834909803,0.0
642,-0.29511556400386957,-0.2961290289301337,69.87091278587474,0.0
643,-0.30513549637113707,-0.3058740234300343,69.98753466669628,0.0
644,-0.30537589180572416,-0.3065167124272445,70.10663178463824,0.0
645,-0.2970275889565309,-0.2992143109190299,70.22798413253841,0.0
646,-0.28248213335719674,-0.28605979469269716,70.35136887828585,0.0
647,-0.2648123781253814,-0.26966598547607745,70.47656021078663,0.0
648,-0.2470168426778459,-0.25263270897062506,70.60332919891387,0.0
649,-0.23133527013882682,-0.23703579046944304,70.7314436639123,0.0
650,-0.21887900645435523,-0.22406789211204156,70.8606680657661,0.0
651,-0.2095995438287073,-0.21391402650095664,70.99076340407755,0.0
652,-0.2024965426152543,-0.2058759208583459,71.12148713403687,0.0
653,-0.1960071669099344,-0.19869163698903436,71.25259309809479,0.0
654,-0.1885149984050276,-0.1909495319858946,71.38383147397525,0.0
655,-0.17880625740576925,-0.1814802058219615,71.51494873968839,0.0
656,-0.16631613432063166,-0.16962782189544584,71.6456876562211,0.0
657,-0.15116472623252827,-0.15534498638287197,71.77578726859583,0.0
658,-0.134042861225672,-0.13910901307924772,71.90498292599517,0.0
659,-0.11596867567171867,-0.12170635758527991,72.03300632165165,0.0
660,-0.09795407789714,-0.10396358082850499,72.15958555319781,0.0
661,-0.0806879667071653,-0.0865099983779172,72.2844452041605,0.0
662,-0.06435573381209331,-0.06963850992245586,72.40730644726554,0.0
663,-0.04865928093084079,-0.05329363073007648,72.52788717019357,0.0
664,-0.03302205276765385,-0.03717218546361524,72.64590212439505,0.0
665,-0.016873538184560943,-0.02088733798171885,72.761063097531,0.0
666,0.00013021733439333438,-0.00413205001767504,72.87307911005729,0.0
667,0.01801185269236394,0.013212846064552308,72.98165663641151,0.0
668,0.036479696215721225,0.031053521207121876,73.08649985119452,0.0
669,0.05503409621269338,0.04913479490297046,73.1873109006629,0.0
670,0.07316848875025282,0.06713523913790838,73.28379019976276,0.0
671,0.09056824165734606,0.08476168320778431,73.37563675484061,0.0
672,0.10719354388452346,0.10180763759888578,73.46254851206277,0.0
673,0.12321757342898396,0.11816263398475735,73.54422273146193,0.0
674,0.138844438352576,0.13378403465242242,73.62035638640678,0.0
675,0.1540873494012905,0.1486567903058787,73.69064658815991,0.0
676,0.16867446938631686,0.16276326360699,73.75479103504998,0.0
677,0.18219390137775662,0.17606849633175706,73.81248848563729,0.0
678,0.19436480065369996,0.18850912858975388,73.8634392550983,0.0
679,0.20519185302181114,0.19997039090103635,73.90734573389389,0.0
680,0.2148764517000049,0.21024965126825096,73.94391292762185,0.0
681,0.22354828553270997,0.21902745088824632,73.97284901678339,0.0
682,0.23097977567382358,0.22587983127808295,73.99386593502192,0.0
683,0.2364866609711287,0.2303548871894558,74.0066799642174,0.0
684,0.23915371683935102,0.2321025387479699,74.01101234464541,1.0
685,0.23828933648342596,0.23100703210123893,74.00289168600715,0.0
686,0.23383363307924082,0.22725188052628126,73.97883954929121,0.0
687,0.2264793405146947,0.22126427062151408,73.93933523483972,0.0
688,0.21737821824549186,0.21353767065500315,73.8848758329432,0.0
689,0.20751140341082336,0.20439373629463553,73.8159742338972,0.0
690,0.19710583825814743,0.19378488511800313,73.73315715858945,0.0
691,0.1855014542249554,0.18123391668756067,73.63696322088528,0.0
692,0.17148369856937518,0.16595661683671808,73.52794103217003,0.0
693,0.1537883503458628,0.14713977718923635,73.40664735745551,0.0
694,0.13155003132197157,0.12428216447064815,73.2736453314732,0.0
695,0.10461798282667163,0.09747500276100995,73.12950274217897,0.0
696,0.07370181795924559,0.06751191304964456,72.9747903880942,0.0
697,0.040322680468986793,0.03577143493130373,72.81008051492,0.0
698,0.006561545529954832,0.003892390165567444,72.63594533589465,0.0
699,-0.02541413895849999,-0.026659974262550276,72.45295563943242,0.0
700,-0.054019156907063354,-0.05498785177709295,72.26167948668818,0.0
701,-0.0788829981373785,-0.08096420839710704,72.06268100084998,0.0
702,-0.10101656700288908,-0.10515309573576742,71.8565192491706,0.0
703,-0.12226250916087714,-0.12845745952076904,71.64374721801833,0.0
704,-0.14429334954077302,-0.15161460878094501,71.4249108805569,0.0
705,-0.16771801800616892,-0.17472857628245198,71.20054835605804,0.0
706,-0.19167400245590982,-0.1970242567805076,70.97118915930776,0.0
707,-0.21397584588787089,-0.21692926606492371,70.73735353808964,0.0
708,-0.23174315337336823,-0.23246708794410853,70.49955189631355,0.0
709,-0.24233139432674383,-0.241828302624828,70.25828430000493,0.0
710,-0.24425903083227174,-0.24392155926566056,70.01404006307628,0.0
711,-0.23775420977744216,-0.23871707006183907,69.76729740956486,0.0
712,-0.22464231637095697,-0.22727604769695012,69.5185232088365,0.0
713,-0.20761899456730853,-0.2114744460559775,69.26817278012155,0.0
714,-0.189329879561055,-0.19353075281861143,69.01668976266038,0.0
715,-0.17175378341634673,-0.17549755709439546,68.76450604768988,0.0
716,-0.1560476775111443,-0.15886416256433894,68.51204176849555,0.0
717,-0.14262324357575598,-0.14435937114028202,68.25970534477963,0.0
718,-0.1312297923937706,-0.13197010546708535,68.00789357765434,0.0
719,-0.12109688200119834,-0.12112963960036854,67.75699179165349,0.0
720,-0.11124356603927489,-0.11099355777019873,67.50737402026425,0.0
721,-0.1008458604303259,-0.10071556860227228,67.25940323160917,0.0
722,-0.08945837509510456,-0.08965472446665743,67.0134315910545,0.0
723,-0.07701859559557793,-0.07748046310228913,66.76980075768014,0.0
724,-0.06370745123985146,-0.06417846177930749,66.52884221171912,0.0
725,-0.04978014262613728,-0.04998563885013947,66.29087761025359,0.0
726,-0.035460248203192726,-0.0352903175214076,66.05621916864439,0.0
727,-0.020950274090345125,-0.02052643825422132,65.82517006536186,0.0
728,-0.006522059231202623,-0.006078445466213181,65.59802486808441,0.0
729,0.007457495546977284,0.007794018697110369,65.37506997912885,0.0
730,0.020657898074336836,0.021001783390575388,65.15658409847696,0.0
731,0.03296990434151319,0.033628594101384586,64.94283870286243,0.0
732,0.04457578853574784,0.04587912701639628,64.73409853958255,0.0
733,0.055856216129606784,0.0579753440014798,64.53062213389533,0.0
734,0.06719394267077394,0.07002624792551984,64.33266230906179,0.0
735,0.07875735544419514,0.08191591192220993,64.14046671828575,0.0
736,0.09032561506958298,0.09325967268008964,63.95427838799862,0.0
737,0.10121761891239722,0.10346147607127129,63.77433627212698,0.0
738,0.11041892756911216,0.11186916049480652,63.60087581717229,0.0
739,0.11694425214007428,0.11798202808091507,63.43412953812118,0.0
740,0.12029950834031797,0.12163566941440998,63.274327605395044,0.0
741,0.12078604688981605,0.12308925674114657,63.121698443237676,0.0
742,0.11943674906468034,0.12297439110194631,62.976469340131366,0.0
743,0.11758148556333879,0.12211902197879357,62.83886707202722,0.0
744,0.1163069801235683,0.12131033982320556,62.70911853937282,0.0
745,0.1161476654181372,0.12108393636239466,62.58745141912418,0.0
746,0.11710953243061573,0.12161406367886039,62.474094833139226,0.0
747,0.11886885544204587,0.1227397072838124,62.36928003456788,0.0
748,0.12094737579466207,0.12411133425094725,62.273241114082836,0.0
749,0.12280884361411232,0.125400758634573,62.18621572803597,0.0
750,0.12400242250439658,0.12649273501460906,62.10844585088059,0.0
751,0.12444286821122584,0.12757786299426782,62.040178554472696,0.0
752,0.12462961790889708,0.12909500082834519,61.98166681715702,0.0
753,0.12550336286069402,0.13152407364785132,61.93317036586012,0.0
754,0.12793189354294884,0.1350920916915,61.894956554755545,0.0
755,0.13211592660989177,0.13950159771401194,61.867301284440394,0.0
756,0.13720784360458602,0.14379769681087684,61.850489965972315,0.0
757,0.141308367210318,0.14644816796707832,61.84481853456671,1.0
758,0.14190281434300134,0.1456340509283785,61.848181976982296,0.0
759,0.13662092038441653,0.1396667294358277,61.858139234686604,0.0
760,0.12399635315490466,0.12739722484816912,61.87449367350818,0.0
761,0.10389047117481623,0.10848671203200891,61.89705228876448,0.0
762,0.0774310012783849,0.08346241141997782,61.9256253066506,0.0
763,0.04653522655775115,0.05356436201584774,61.96002580231774,0.0
764,0.01326270541501201,0.02045936105095829,62.000069333542385,0.0
765,-0.020691189756574413,-0.014070926835369202,62.04557358899528,0.0
766,-0.05416025589875448,-0.04837797619230151,62.09635805021914,0.0
767,-0.08634369071144776,-0.08108997199598114,62.15224366651919,0.0
768,-0.11649596170138993,-0.11116165507703932,62.21305254205837,0.0
769,-0.14372796380274663,-0.13786847341516664,62.27860763453268,0.0
770,-0.16711425206068997,-0.1607785220135767,62.348732464881266,0.0
771,-0.18604162266476018,-0.17971233016388913,62.42325083756011,0.0
772,-0.20047081344097212,-0.19468159784333205,62.50198657097997,0.0
773,-0.21084449529725638,-0.20580006758210198,62.58476323777634,0.0
774,-0.2177245070125711,-0.21318110591237716,62.6714039146448,0.0
775,-0.22145615401838198,-0.2168595721077706,62.761730941537095,0.0
776,-0.22202133554041625,-0.21678014161880277,62.855565690073156,0.0
777,-0.21906660205866643,-0.21287196631059732,62.952728341081816,0.0
778,-0.2121244239224998,-0.20518873345379235,63.053037671239046,0.0
779,-0.20103092584050303,-0.19405443053136112,63.156310848825676,0.0
780,-0.18633184601083208,-0.18014073095716726,63.26236323867898,0.0
781,-0.16935781656546334,-0.1644237099396274,63.37100821646216,0.0
782,-0.15184494215782823,-0.14801856023136423,63.482056992425,0.0
783,-0.13531011941345972,-0.1319467605810283,63.5953184448747,0.0
784,-0.12055831252494403,-0.11692195613331566,63.71059896362214,0.0
785,-0.10756867592108443,-0.1032323698135948,63.82770230371089,0.0
786,-0.0957454476711368,-0.09075463594598945,63.946429449778854,0.0
787,-0.08433015867956889,-0.07907987701412815,64.06657849144092,0.0
788,-0.07272721444602995,-0.06769395990981014,64.1879445101188,0.0
789,-0.06062564255555742,-0.05614505796161702,64.31031947777933,0.0
790,-0.04797187235374922,-0.04415083224736109,64.43349216807466,0.0
791,-0.034886411163406066,-0.03163048465242359,64.55724808040806,0.0
792,-0.021578324825864054,-0.018677004404130948,64.68136937747553,0.0
793,-0.008281957210935637,-0.005501097744831901,64.80563483685758,0.0
794,0.0047808085985309445,0.0076221147402325135,64.92981981725531,0.0
795,0.017415859502047285,0.02038540864740372,65.0536962399816,0.0
796,0.029452616075040225,0.03246024236101755,65.17703258633024,0.0
797,0.040699216360718674,0.04349991406962473,65.29959391145381,0.0
798,0.05083833137676376,0.05315387333305091,65.42114187538404,0.0
799,0.05937334943122713,0.06110501928670399,65.54143479182603,0.0
800,0.06580134900819025,0.06712657565827632,65.66022769535019,0.0
801,0.0699452195776883,0.07114057401647807,65.77727242759177,0.0
802,0.07209772841110561,0.07325545958563683,65.8923177430484,0.0
803,0.07279058520745055,0.07376825881575451,66.00510943503912,0.0
804,0.07246228238829798,0.07313018829217949,66.11539048235508,0.0
805,0.0714215470281632,0.0718840023717016,66.22290121709177,0.0
806,0.0700890818028915,0.07058404275137171,66.32737951410365,0.0
807,0.06911319280180672,0.06971114787115198,66.42856100246708,0.0
808,0.06912532250637823,0.06959901101793345,66.526179299273,0.0
809,0.07038291355056574,0.07039281169436003,66.6199662659989,0.0
810,0.07268775465820974,0.07205663168011822,66.70965228762977,0.0
811,0.07562493871310165,0.07443027711963038,66.79496657460909,0.0
812,0.07884889964386396,0.07731596567901554,66.87563748760495,0.0
813,0.08220828202655982,0.08056282099513644,66.95139288497123,0.0
814,0.08573077936689975,0.0841191339967348,67.0219604926725,0.0
815,0.08957412106614972,0.08803670706410018,67.08706829632106,0.0
816,0.09397121541586609,0.09243031971905867,67.1464449548477,0.0
817,0.09912202028814714,0.09741022439759314,67.19982023519572,0.0
818,0.10504719264793141,0.10301150636940698,67.24692546728747,0.0
819,0.11151698047485267,0.10914028952704391,67.28749401836957,0.0
820,0.1181245086063178,0.11554667201378309,67.32126178569433,0.0
821,0.12443609501111663,0.12182436653699949,67.34796770634348,0.0
822,0.13006939161119174,0.12743276726032263,67.36735428284702,0.0
823,0.13459870038519023,0.13173879481015827,67.37916812309493,0.0
824,0.13738755598953162,0.13407788669402992,67.38316049288612,1.0
825,0.13760527543656337,0.13382980157461394,67.38316049288612,0.0
826,0.13450301305716364,0.13049551897805645,67.38316049288612,0.0
827,0.12769298482865943,0.1237539336346543,67.38316049288612,0.0
828,0.11717884578427853,0.1134797846526962,67.38316049288612,0.0
829,0.1031873657921519,0.09971869778695909,67.38316049288612,0.0
830,0.08600568737553815,0.082633920555608,67.38316049288612,0.0
831,0.06591474202392253,0.06245197803689942,67.38316049288612,0.0
832,0.043177774994526776,0.03943491145703614,67.38316049288612,0.0
833,0.01805254364174748,0.013895378732262348,67.38316049288612,0.0
834,-0.009152871581773192,-0.013747295647134367,67.38316049288612,0.0
835,-0.03797273444879455,-0.04289026577115408,67.38316049288612,0.0
836,-0.06765628897827658,-0.0726814109933582,67.38316049288612,0.0
837,-0.09708103724471012,-0.1019973385409969,67.38316049288612,0.0
838,-0.12478040569373736,-0.129486757307191,67.38316049288612,0.0
839,-0.14912764520360994,-0.1536819894119608,67.38316049288612,0.0
840,-0.1686309689654344,-0.17316218813453177,67.38316049288612,0.0
841,-0.18219852261444996,-0.18673944562491523,67.38316049288612,0.0
842,-0.18923129460412685,-0.19363594276574816,67.38316049288612,0.0
843,-0.18955092565959025,-0.19362319035804776,67.38316049288612,0.0
844,-0.18333744461462598,-0.18709760165417194,67.38316049288612,0.0
845,-0.17124477778509029,-0.17506876619874706,67.38316049288612,0.0
846,-0.15462389774392532,-0.15904369675956165,67.38316049288612,0.0
847,-0.13552328596711702,-0.1408097931081323,67.38316049288612,0.0
848,-0.1162275182455906,-0.12215099813803441,67.38316049288612,0.0
849,-0.09856142771564852,-0.10456232573156479,67.38316049288612,0.0
850,-0.08347527828976453,-0.08903871683264766,67.38316049288612,0.0
851,-0.07112737334900698,-0.07599503816733237,67.38316049288612,0.0
852,-0.06119749427088142,-0.06533207060044632,67.38316049288612,0.0
853,-0.05311695124591247,-0.05661714331606001,67.38316049288612,0.0
854,-0.04620586803600593,-0.04931513647075265,67.38316049288612,0.0
855,-0.03986053046989413,-0.042994628496952944,67.38316049288612,0.0
856,-0.03379829990796385,-0.03744595118170435,67.38316049288612,0.0
857,-0.028193199852270662,-0.03267934956361094,67.38316049288612,0.0
858,-0.023548221541460176,-0.02881447727389105,67.38316049288612,0.0
859,-0.020334191247579812,-0.025913544410869488,67.38316049288612,0.0
860,-0.018592292763666668,-0.023833033040956634,67.38316049288612,0.0
861,-0.017748555586328367,-0.02216144693938152,67.38316049288612,0.0
862,-0.016791186379079878,-0.02027454174279574,67.38316049288612,0.0
863,-0.01469964882423672,-0.017490561332709723,67.38316049288612,0.0
864,-0.010810849970964338,-0.013268038852738952,67.38316049288612,0.0
865,-0.00492357143167714,-0.007373646828889902,67.38316049288612,0.0
866,0.002768653642398533,3.989870842908971e-05,67.38316049288612,0.0
867,0.011728916290673498,0.008474215304023841,67.38316049288612,0.0
868,0.021107929961617422,0.01723357227737303,67.38316049288612,0.0
869,0.029924238748896027,0.0256358349933372,67.38316049288612,0.0
870,0.03743876147332021,0.0332186746992878,67.38316049288612,0.0
871,0.043496330379630764,0.03987262658854593,67.38316049288612,0.0
872,0.04858294069768532,0.04585578187099297,67.38316049288612,0.0
873,0.05357533991217629,0.051685920269860144,67.38316049288612,0.0
874,0.05933180545775489,0.0579488452378254,67.38316049288612,0.0
875,0.06633220414510327,0.06508883326205586,67.38316049288612,0.0
876,0.07456454006072202,0.07324866583247291,67.38316049288612,0.0
877,0.08366227615408783,0.08220556776732534,67.38316049288612,0.0
878,0.09307175647025077,0.09141742050433388,67.38316049288612,0.0
879,0.10211030462835842,0.10016307958385996,67.38316049288612,0.0
880,0.11001609111323529,0.10773781980387773,67.38316049288612,0.0
881,0.11610894243235202,0.11365107018810672,67.38316049288612,0.0
882,0.12003090611061418,0.1177697861238851,67.38316049288612,0.0
883,0.12194751956386622,0.12036046421619712,67.38316049288612,0.0
884,0.12258188332534636,0.12200853578628336,67.38316049288612,0.0
885,0.12301025470579184,0.12343199633667501,67.38316049288612,0.0
886,0.12426373125255792,0.12524446626876942,67.38316049288612,0.0
887,0.12687701204531868,0.12774472646737745,67.38316049288612,0.0
888,0.1305896379250739,0.13080255586963804,67.38316049288612,0.0
889,0.13440307809374458,0.13387445302775647,67.38316049288612,0.0
890,0.1370004573234319,0.13613272531567935,67.38316049288612,0.0
891,0.13725172546935815,0.13665113886655256,67.38316049288612,1.0
892,0.13448025470579306,0.13457875409846765,67.38316049288612,0.0
893,0.12840576304079337,0.12925350318712941,67.38316049288612,0.0
894,0.11892360710296547,0.12024402268551163,67.38316049288612,0.0
895,0.10592795719080467,0.10734059085878317,67.38316049288612,0.0
896,0.0892780587240469,0.09052847549991293,67.38316049288612,0.0
897,0.0688880760055074,0.06996828774209067,67.38316049288612,0.0
898,0.04486784278459534,0.045988696117125555,67.38316049288612,0.0
899,0.01763217504493328,0.019081273034654712,67.38316049288612,0.0
900,-0.012083605828715496,-0.010115499965906827,67.38316049288612,0.0
901,-0.04330507161831383,-0.04084605968675069,67.38316049288612,0.0
902,-0.07494876719714366,-0.0722698680185259,67.38316049288612,0.0
903,-0.10595110983247435,-0.10347620253288511,67.38316049288612,0.0
904,-0.13535891033118072,-0.13346828642259564,67.38316049288612,0.0
905,-0.162336005010038,-0.16112395236398955,67.38316049288612,0.0
906,-0.18604147369130825,-0.18516586085124861,67.38316049288612,0.0
907,-0.2054165418960991,-0.2041903764217841,67.38316049288612,0.0
908,-0.21905921927816882,-0.2167965692970578,67.38316049288612,0.0
909,-0.22539905622672762,-0.22182145744699436,67.38316049288612,0.0
910,-0.22321032280752795,-0.2186360955474719,67.38316049288612,0.0
911,-0.21224649395695538,-0.20741342761592307,67.38316049288612,0.0
912,-0.19363149600831464,-0.18926703020628852,67.38316049288612,0.0
913,-0.16971905197961976,-0.16618962061119447,67.38316049288612,0.0
914,-0.1434776336340933,-0.14078017356626765,67.38316049288612,0.0
915,-0.11782446247796868,-0.11581338040023427,67.38316049288612,0.0
916,-0.09523977826649829,-0.09375110332925032,67.38316049288612,0.0
917,-0.07756194596985966,-0.0763114358620257,67.38316049288612,0.0
918,-0.06574051965592305,-0.06419833553902929,67.38316049288612,0.0
919,-0.05957375580240509,-0.05705895569322525,67.38316049288612,0.0
920,-0.05764996875625954,-0.05368153094440946,67.38316049288612,0.0
921,-0.05769373445058425,-0.0523819240190119,67.38316049288612,0.0
922,-0.057321655159394455,-0.05146869809064554,67.38316049288612,0.0
923,-0.054906658973921135,-0.049648698391564224,67.38316049288612,0.0
924,-0.05007326688775821,-0.0462557765306706,67.38316049288612,0.0
925,-0.043531033599521526,-0.04125221557459112,67.38316049288612,0.0
926,-0.03640725041075082,-0.03503873255553575,67.38316049288612,0.0
927,-0.029566614214148995,-0.028175579630552866,67.38316049288612,0.0
928,-0.023306110607882277,-0.021134974250360872,67.38316049288612,0.0
929,-0.01742963301789114,-0.014170499698490636,67.38316049288612,0.0
930,-0.0114780795948774,-0.007324207294060074,67.38316049288612,0.0
931,-0.0049890310448957795,-0.0005296701569794393,67.38316049288612,0.0
932,0.0022267583621150763,0.006264206614240188,67.38316049288612,0.0
933,0.009896218305565016,0.013017836042980034,67.38316049288612,0.0
934,0.017364489067242236,0.01960556421741741,67.38316049288612,0.0
935,0.02397908585470513,0.02588375813316226,67.38316049288612,0.0
936,0.02953345802489539,0.03177315024540752,67.38316049288612,0.0
937,0.03440154663194172,0.03730528549743732,67.38316049288612,0.0
938,0.03923833427894947,0.042611216026739014,67.38316049288612,0.0
939,0.04453513788893706,0.04786785201194657,67.38316049288612,0.0
940,0.050405248059026526,0.05323934976957906,67.38316049288612,0.0
941,0.056662472944894,0.05884576528808799,67.38316049288612,0.0
942,0.06302311084392771,0.0647660019934331,67.38316049288612,0.0
943,0.06930792317874294,0.07105575373922061,67.38316049288612,0.0
944,0.07557206693188345,0.0777510637378085,67.38316049288612,0.0
945,0.08207816776217922,0.08484008002891602,67.38316049288612,0.0
946,0.08909505204238054,0.09221164833422285,67.38316049288612,0.0
947,0.09663453610247903,0.09961305524626576,67.38316049288612,0.0
948,0.1043070316347544,0.10665492152544533,67.38316049288612,0.0
949,0.11140159820219457,0.11288326520198057,67.38316049288612,0.0
950,0.11714548627212447,0.1179049591460347,67.38316049288612,0.0
951,0.12101587088873336,0.12152055438106259,67.38316049288612,0.0
952,0.1229740423167321,0.12380532483820765,67.38316049288612,0.0
953,0.12351655316030148,0.1250940501351831,67.38316049288612,0.0
954,0.12349532736801301,0.1258626488578471,67.38316049288612,0.0
955,0.1237579969909814,0.12654394213206666,67.38316049288612,0.0
956,0.12475479966727265,0.12734511034161888,67.38316049288612,0.0
957,0.12628939811251744,0.1281359880514765,67.38316049288612,0.0
958,0.12753940836194183,0.12844864265215533,67.38316049288612,1.0
959,0.12735304919680912,0.12758281665834487,67.38251439690238,0.0
960,0.12467810057140583,0.12477051276640669,67.38060176954136,0.0
961,0.11888041788692232,0.11933551112372982,67.37746120228837,0.0
962,0.10977569700842281,0.11079643703329527,67.3731314094035,0.0
963,0.09743310497185736,0.0988957630566315,67.36765121406579,0.0
964,0.08197885556810379,0.08357281130727168,67.36105953493485,0.0
965,0.06353180675577955,0.06491918099948846,67.35339537313624,0.0
966,0.042220628327205544,0.04315327571505527,67.34469779967701,0.0
967,0.01822327861236482,0.018631438218476654,67.33500594329688,0.0
968,-0.008145034390024092,-0.008112076712067859,67.32435897876005,0.0
969,-0.036283332105417176,-0.036323447762716676,67.31279611559165,0.0
970,-0.0651848965252968,-0.06501828069230096,67.30035658726308,0.0
971,-0.0934797045920279,-0.09302282206152895,67.2870796408292,0.0
972,-0.11967066040734087,-0.11906817912063214,67.27300452702016,0.0
973,-0.1424282363781683,-0.14191842325953474,67.2581704907902,0.0
974,-0.16077330023169106,-0.160504141975415,67.24261676232517,0.0
975,-0.17410719127325167,-0.17403684003901743,67.22638254850993,0.0
976,-0.18215440147180065,-0.1820908751832471,67.20950702485692,0.0
977,-0.1848914336794488,-0.18464917175426682,67.19202932789591,0.0
978,-0.18254085097019002,-0.18211103741928425,67.17398854802546,0.0
979,-0.17567303169061474,-0.1752566595986656,67.15542372282559,0.0
980,-0.1652986637813623,-0.16516064434860678,67.13637383083113,0.0
981,-0.15275151477853602,-0.15305320642160114,67.11687778576496,0.0
982,-0.1393735615357276,-0.14014285683685998,67.09697443122987,0.0
983,-0.1262576125378628,-0.12743208903768175,67.0767025358575,0.0
984,-0.11417174922143883,-0.11556880393643429,67.05610078891281,0.0
985,-0.1035084760332203,-0.10477513118511139,67.0352077963521,0.0
986,-0.09415860854076791,-0.09488015215631047,67.01406207733248,0.0
987,-0.085489691032883,-0.0854554703866185,66.99270206117039,0.0
988,-0.07662749280608758,-0.07601878553469205,66.97116608474684,0.0
989,-0.06692706735698403,-0.066242621155309,66.94949239035674,0.0
990,-0.05629987397030646,-0.056097290889554556,66.92771912399955,0.0
991,-0.04521944549532408,-0.04587667516105548,66.90588433410872,0.0
992,-0.03449986705282007,-0.036097035599416315,66.88402597071658,0.0
993,-0.025006439357923998,-0.027306436167582847,66.86218188505238,0.0
994,-0.017377429552993727,-0.019876235557041932,66.84038982956997,0.0
995,-0.01177643891196948,-0.013853182304328089,66.81868745840272,0.0
996,-0.00773289881989471,-0.008927655312463485,66.79711232824232,0.0
997,-0.004224742075208725,-0.004528419506580575,66.77570189963889,0.0
998,-9.363711504976197e-05,-4.335901635309225e-06,66.75449353871934,0.0
999,0.005405379228424288,0.005179637678589102,66.73352451932149,0.0
1000,0.012310723927140235,0.011305370359622105,66.71283202554095,0.0
1001,0.02012521438510973,0.018364822806694735,66.69245315468861,0.0
1002,0.028256558129391034,0.02611866244950148,66.67242492065593,0.0
1003,0.03633079634915045,0.034208884093601254,66.65278425768624,0.0
1004,0.044188375645801733,0.04227356104465105,66.63356802454928,0.0
1005,0.051726772002550256,0.050025665842720925,66.61481300911792,0.0
1006,0.058833115877095415,0.057282276072337115,66.59655593334459,0.0
1007,0.06542501093740033,0.06395130865520543,66.57883345863645,0.0
1008,0.07146086598962523,0.06999374969437477,66.56168219162784,0.0
1009,0.07688626986390967,0.07538098056527835,66.54513869034908,0.0
1010,0.08161194761251511,0.08006285574397116,66.52923947079094,0.0
1011,0.08555394499768056,0.08395597098863634,66.51402101386445,0.0
1012,0.08865383152195279,0.08695521591051698,66.49951977275575,0.0
1013,0.0908411450940316,0.08896598664257321,66.48577218067646,0.0
1014,0.0920213630006743,0.08994900693283107,66.47281465901006,0.0
1015,0.09215997403214006,0.08996461254471197,66.46068362585517,0.0
1016,0.09139194910411118,0.08920036663458704,66.4494155049673,0.0
1017,0.09003911871983071,0.08796766320547862,66.43904673510046,0.0
1018,0.08853164577487105,0.08666058987969821,66.42961377975122,0.0
1019,0.0873095149610223,0.08568179371495688,66.42115313730756,0.0
1020,0.08674700585300751,0.08535156936335683,66.41370135160555,0.0
1021,0.08709646277226148,0.08582414358061188,66.40729502289774,0.0
1022,0.08841294738255528,0.08703645435433174,66.40197081923696,0.0
1023,0.09044390632920973,0.08870787880093348,66.39776548828029,0.0
1024,0.09258713902776652,0.09039434724634587,66.3947158695184,0.0
1025,0.094045711179685,0.0915807897108932,66.3928589069358,0.0
1026,0.09413077538881044,0.09178006479784061,66.39223166210839,1.0
1027,0.09250313696971946,0.09060369452436023,66.39506240575379,0.0
1028,0.08917820067849247,0.08778358806739281,66.40343686062505,0.0
1029,0.08429026197174672,0.08314812635996613,66.41718031175982,0.0
1030,0.07780486902601859,0.07657683859077417,66.43612041353046,0.0
1031,0.06943031327330622,0.06796364579063713,66.46008691262458,0.0
1032,0.05879891447586866,0.0572078953091804,66.48891138231546,0.0
1033,0.045730037813227126,0.04423474560267096,66.52242696743,0.0
1034,0.0303395758660117,0.029034257045761236,66.56046813948299,0.0
1035,0.01294223865196581,0.0117071324379757,66.60287046150296,0.0
1036,-0.006111149732434401,-0.0074902066866888994,66.6494703621288,0.0
1037,-0.026474640298692023,-0.02810625545738922,66.70010491860677,0.0
1038,-0.04767630534253635,-0.04946994594418183,66.75461164836588,0.0
1039,-0.06896005006757629,-0.07069654799345444,66.81282830889472,0.0
1040,-0.08927942773469649,-0.09073998381430087,66.8745927056865,0.0
1041,-0.10745126193305438,-0.10849782684105197,66.93974250805987,0.0
1042,-0.12234441270682322,-0.12295771057880542,67.00811507270309,0.0
1043,-0.13304998944637803,-0.13335599308154317,67.07954727482574,0.0
1044,-0.139061259455804,-0.13930919095448918,67.15387534683906,0.0
1045,-0.14042046212470416,-0.1408809457378128,67.23093472451929,0.0
1046,-0.13772508694739835,-0.13856271284614372,67.31055990064255,0.0
1047,-0.13196835604970678,-0.13317053997659678,67.39258428610987,0.0
1048,-0.12429210893515026,-0.12568477091636227,67.4768400786121,0.0
1049,-0.11573946478069864,-0.11707508159837847,67.5631581389125,0.0
1050,-0.10708213621418336,-0.1081542636880066,67.65136787485264,0.0
1051,-0.09877447962500141,-0.09949110017617706,67.74129713321287,0.0
1052,-0.09100115043704224,-0.0913916010104564,67.83277209958338,0.0
1053,-0.08375156240694467,-0.08393723777827433,67.92561720642547,0.0
1054,-0.07691235841112676,-0.0770556151494292,68.01965504952375,0.0
1055,-0.07036604432218024,-0.07059630711168757,68.11470631305077,0.0
1056,-0.06403009726215306,-0.06439115807855897,68.21058970348436,0.0
1057,-0.057820218330158574,-0.05828989598383238,68.30712189263431,0.0
1058,-0.05162943532321847,-0.05217315975623763,68.40411747005106,0.0
1059,-0.04538263093883515,-0.04595220183082432,68.50138890510206,0.0
1060,-0.0390787834456407,-0.03956645591636894,68.59874651901266,0.0
1061,-0.03273210876473737,-0.032987481552016806,68.6959984671782,0.0
1062,-0.026287038852902588,-0.02623141073052066,68.79295073206052,0.0
1063,-0.019639045656115003,-0.019373458359988507,68.88940712698708,0.0
1064,-0.012765196044666097,-0.012551025954265708,68.985169311173,0.0
1065,-0.005837217096385364,-0.005941759310446201,69.08003681628566,0.0
1066,0.0008114991762416604,0.00028731084623081354,69.17380708486849,0.0
1067,0.006866138397500034,0.006046813141698852,69.26627552093406,0.0
1068,0.012213902876861936,0.01138094422226442,69.35723555302742,0.0
1069,0.017001057285802725,0.016481730903918114,69.44647871004817,0.0
1070,0.02159055855562243,0.021643343127456846,69.53379471010334,0.0
1071,0.02648744797720149,0.027162048429861835,69.61897156264446,0.0
1072,0.03217852769728776,0.033213323667957206,69.70179568411864,0.0
1073,0.03884504430277638,0.03975375138961541,69.78205202733692,0.0
1074,0.0461351104407476,0.046492226910486587,69.85952422473301,0.0
1075,0.05325939531192412,0.05295102505323114,69.93399474565044,0.0
1076,0.059377562028314165,0.05860159177277284,70.00524506775893,0.0
1077,0.06394811821238947,0.06302902092633807,70.0730558626577,0.0
1078,0.06682819532161423,0.06606728831951403,70.13720719567817,0.0
1079,0.06822299638727447,0.06785829494747984,70.19747873984835,0.0
1080,0.06864110098604684,0.0688149326895803,70.25365000392725,0.0
1081,0.06881627029761023,0.06950051044930283,70.30550057436098,0.0
1082,0.06949077805272591,0.07046357962542418,70.35281037095098,0.0
1083,0.07113411520046364,0.0720807581908412,70.39535991596046,0.0
1084,0.07379627913550621,0.07445645074546355,70.4329306163182,0.0
1085,0.07716892961630298,0.07740868979180439,70.46530505850872,0.0
1086,0.08073961593981752,0.08054184701204929,70.49226731566483,0.0
1087,0.08392911942009487,0.08337970173359807,70.51360326630396,0.0
1088,0.08622940260541277,0.0855146715691161,70.52910092407339,0.0
1089,0.08735671669659315,0.08672516083501416,70.53855077779097,0.0
1090,0.08732863985338912,0.08702325950964857,70.54174614099016,1.0
1091,0.0864079463521638,0.08661654961563742,70.53669090564603,0.0
1092,0.0849929215551759,0.08579500298713771,70.521718432459,0.0
1093,0.08351484502915485,0.08477954559809885,70.4971244801683,0.0
1094,0.08226602370789796,0.08358495885313634,70.46321203977985,0.0
1095,0.08112786832670252,0.08194937887622325,70.42029053498051,0.0
1096,0.0794049304614396,0.07936211887527309,70.36867503630019,0.0
1097,0.07600962177711244,0.07518484699544126,70.30868549197143,0.0
1098,0.06992398495232913,0.06882217868141485,70.24064597818928,0.0
1099,0.06059996372266957,0.05987554613958172,70.16488397122285,0.0
1100,0.04808575950263924,0.048221968737079936,70.08172964357621,0.0
1101,0.03291399308855432,0.03399510402238659,69.9915151861426,0.0
1102,0.015843963991924427,0.017492653157274187,69.89457415804529,0.0
1103,-0.0024599945746820798,-0.0009313184545856612,69.79124086561198,0.0
1104,-0.02167238722829702,-0.02092580516823018,69.68184977169038,0.0
1105,-0.04181033351761035,-0.04211886870244408,69.56673493628064,0.0
1106,-0.062944723830457,-0.06402297448729585,69.44622948923947,0.0
1107,-0.08476583473443511,-0.08592584758928411,69.3206651355989,0.0
1108,-0.10629279270820499,-0.10683884473485003,69.19037169384475,0.0
1109,-0.12595037101026998,-0.1255536703773479,69.05567666731308,0.0
1110,-0.14199345342327788,-0.14081047519640127,68.91690484868994,0.0
1111,-0.15303048639638406,-0.15153029647245855,68.77437795744119,0.0
1112,-0.158365738296032,-0.15703665854319054,68.62841430985287,0.0
1113,-0.1580559139015253,-0.15719590539227288,68.4793285212325,0.0
1114,-0.15276880064831824,-0.15243727617037667,68.32743123970347,0.0
1115,-0.14357691614580936,-0.1436549011352338,68.1730289109219,0.0
1116,-0.1317488788578251,-0.1320276858031807,68.01642357295495,0.0
1117,-0.11854841985990218,-0.11880965658361277,67.85791268048278,0.0
1118,-0.10506802045813826,-0.10514165090493782,67.69778895742219,0.0
1119,-0.09213085505072738,-0.09192012377850592,67.53634027701717,0.0
1120,-0.08024793463482427,-0.07973756024167633,67.37384956840182,0.0
1121,-0.06961195176826607,-0.0688884697728123,67.21059474860971,0.0
1122,-0.06017055644196226,-0.05942047374941635,67.04684867898543,0.0
1123,-0.0517891151463787,-0.051204740800031734,66.8828791449425,0.0
1124,-0.04436945945310254,-0.04400445153555104,66.71894885801096,0.0
1125,-0.03780218563362601,-0.03753090037395093,66.55531547912413,0.0
1126,-0.03184679425370488,-0.031487785327374306,66.39223166210839,0.0
1127,-0.02613595275846949,-0.02560888314899174,66.22994511635972,0.0
1128,-0.020335202458318827,-0.01969118187145849,66.06869868771874,0.0
1129,-0.014287116697409823,-0.01361911730796862,65.90873045658705,0.0
1130,-0.007999428689304915,-0.007372108243183323,65.75027385236609,0.0
1131,-0.0015464427347911605,-0.0010099814125621581,65.59355778334037,0.0
1132,0.00497497659796671,0.005362530874175694,65.43880678117353,0.0
1133,0.011430324611071858,0.011643586336309492,65.28624115923373,0.0
1134,0.01766359283750387,0.01777989320432645,65.13607718401751,0.0
1135,0.0235819306262567,0.023793571369932418,64.98852725899589,0.0
1136,0.029255943390197464,0.029777004747323664,64.84380012026297,0.0
1137,0.034935046685349795,0.03585277625632608,64.70210104342716,0.0
1138,0.04091352568335587,0.0421105278734687,64.56363206124523,0.0
1139,0.04732535116729349,0.04854520746812473,64.4285921915621,0.0
1140,0.05403842042506676,0.05502414254294502,64.2971776751835,0.0
1141,0.060698703584720404,0.06130042422114876,64.16958222337327,0.0
1142,0.06683210300812525,0.06707083966389557,64.0459972747341,0.0
1143,0.07196023022833536,0.07205681420213965,63.92661226129808,0.0
1144,0.07576176023257149,0.076075900397691,63.81161488372255,0.0
1145,0.07823658262504103,0.07907512884778822,63.70119139555765,0.0
1146,0.07972628312042437,0.08111550282363739,63.59552689662307,0.0
1147,0.08070200870842784,0.0823211024199193,63.49480563560614,0.0
1148,0.08143971804754388,0.08282367982089832,63.39921132206823,0.0
1149,0.0818495693608858,0.08273336088654151,63.30892744812435,0.0
1150,0.08162922641216941,0.0821474499767279,63.22413762014055,0.0
1151,0.0806246182160893,0.08118417029555625,63.14502590087721,0.0
1152,0.07907329721183662,0.08001324236132668,63.07177716259108,0.0
1153,0.07751912582454226,0.07885982049004123,63.004577451699895,0.0
1154,0.07650711231551745,0.07797725291863117,62.94361436570602,0.0
1155,0.07632215399382287,0.0776023100070587,62.88907744317478,0.0
1156,0.07693276433804666,0.07791129317261891,62.84115856766645,0.0
1157,0.07812580733722141,0.07898604094810424,62.800052386631684,0.0
1158,0.07969106225714805,0.08078573694997616,62.765956746396306,0.0
1159,0.08150333925551521,0.08311612878856643,62.739073144487016,0.0
1160,0.08344742800259054,0.08559709466928125,62.71960720068293,0.0
1161,0.08524447158402981,0.08764605703440922,62.707769148322036,0.0
1162,0.0863166320619688,0.08850548370698957,62.703774347546805,1.0
1163,0.08580176435810022,0.08733668168646685,62.70571232712709,0.0
1164,0.08270585496927735,0.08337757693399153,62.711456247390366,0.0
1165,0.07613442248469698,0.07612837511137599,62.72090206237524,0.0
1166,0.06558793065647274,0.06550207969328797,62.73394693556472,0.0
1167,0.05124561179651954,0.05187289883906342,62.75048911914362,0.0
1168,0.03404410816581284,0.03598287238812118,62.77042783752909,0.0
1169,0.015414357455942482,0.018720024621531002,62.79366317498102,0.0
1170,-0.003251269108712977,0.0008398292321970813,62.82009596711599,0.0
1171,-0.021154943474087966,-0.017261719533480983,62.84962769616431,0.0
1172,-0.03837571572282303,-0.03562198574227561,62.88216038982493,0.0
1173,-0.05570269822543715,-0.054584206014075376,62.91759652358756,0.0
1174,-0.07410796362880971,-0.07450068988194679,62.95583892640468,0.0
1175,-0.09415204813797669,-0.09537342629887671,62.996790689609995,0.0
1176,-0.11556326206129836,-0.11657600735659035,63.040355078991475,0.0
1177,-0.137048248285386,-0.1367833467735447,63.08643544993998,0.0
1178,-0.1563707750157316,-0.15416713019056014,63.134935165605405,0.0
1179,-0.1708271746878817,-0.1668179808867938,63.18575751800354,0.0
1180,-0.17811960357934273,-0.17326521930654556,63.23880565202736,0.0
1181,-0.17727453135096488,-0.17291841052644333,63.29398249232659,0.0
1182,-0.16907155986244538,-0.16627423955656945,63.351190673029365,0.0
1183,-0.1557208372332271,-0.15481314331828339,63.41033247028875,0.0
1184,-0.14004191076405575,-0.14062004735894415,63.471309737646585,0.0
1185,-0.12463438186810757,-0.12585715353817611,63.53402384421516,0.0
1186,-0.11131489774743576,-0.11225839059016837,63.598375615686074,0.0
1187,-0.1008318791827249,-0.10079425586608101,63.664265278183414,0.0
1188,-0.09286501529027148,-0.09158706282120657,63.73159240498621,0.0
1189,-0.08634695612412582,-0.08406963668888168,63.800255866152476,0.0
1190,-0.0800061139389311,-0.07730674727265503,63.87015378108417,0.0
1191,-0.07287272227799992,-0.07036077768177015,63.941183474079246,0.0
1192,-0.06451738143913216,-0.06258854219917362,64.01324143292345,0.0
1193,-0.05500576762876106,-0.053795539410278405,64.08622327058009,0.0
1194,-0.044735432750858777,-0.04422766938757784,64.16002369004264,0.0
1195,-0.03430144654506822,-0.03442897966737898,64.23453645241918,0.0
1196,-0.02440179600312549,-0.02502570170130188,64.30965434832403,0.0
1197,-0.01568481358236057,-0.016508834263608232,64.38526917265509,0.0
1198,-0.008486350503399465,-0.009081201654730565,64.46127170284069,0.0
1199,-0.0026082646427158587,-0.0026122145529798788,64.53755168064296,0.0
1200,0.002637802053163836,0.003291772136510225,64.61399779760785,0.0
1201,0.008108649619891009,0.009132524810882385,64.69049768425518,0.0
1202,0.014437465168734794,0.015339908646798434,64.76693790310404,0.0
1203,0.021788064822973068,0.022131836825057073,64.8432039456307,0.0
1204,0.02985105119835628,0.029459136102297993,64.91918023325734,0.0
1205,0.03804795432272072,0.03704405477138948,64.99475012247056,0.0
1206,0.04580460474397024,0.04448568329349977,65.06979591416903,0.0
1207,0.05272963928598554,0.051385733253003954,65.14419886733776,0.0
1208,0.0586409778028867,0.05744949985251127,65.21783921714692,0.0
1209,0.06351662242384329,0.06253460960113794,65.29059619756967,0.0
1210,0.067456844563083,0.06664387241975654,65.36234806861142,0.0
1211,0.07065348783795959,0.06987837021994762,65.43297214823944,0.0
1212,0.07331165954917085,0.0723771011033763,65.5023448490971,0.0
1213,0.0755420999279442,0.0742685709664661,65.57034172008261,0.0
1214,0.07732323195070417,0.0756494663035514,65.63683749286555,0.0
1215,0.07856849441214023,0.07659058663615313,65.7017061334084,0.0
1216,0.079229864430441,0.07715720562646244,65.76482089855197,0.0
1217,0.07937913991896003,0.07742608253409852,65.82605439771635,0.0
1218,0.0792373752741827,0.07748672810229523,65.885278659758,0.0
1219,0.07909702563506886,0.07742690870852961,65.94236520501516,0.0
1220,0.07915105056277147,0.07731415712108303,65.99718512256133,0.0
1221,0.0793864889759151,0.07718861404108526,66.04960915267505,0.0
1222,0.07965978671630206,0.07707518002271882,66.09950777452153,0.0
1223,0.07986152257358194,0.07700919792706246,66.14675129902729,0.0
1224,0.08000156300003333,0.07705841016670234,66.19120996691512,0.0
1225,0.08017669671423658,0.07732169449534967,66.23275405185035,0.0
1226,0.0805033276635368,0.077893360698198,66.2712539686339,0.0
1227,0.08107763623852918,0.07879683041497297,66.30658038636001,0.0
1228,0.08193203637363389,0.07990745216381318,66.3386043464392,0.0
1229,0.0829232179294139,0.08089500805968097,66.36719738536793,0.0
1230,0.08358878110670497,0.0812168328386173,66.39223166210839,1.0
1231,0.08312489532714919,0.08017953712454187,66.41508395106631,0.0
1232,0.08057591349982826,0.07706358462764484,66.43722940472776,0.0
1233,0.07513552357840013,0.07127920596302528,66.45868837135828,0.0
1234,0.06637302708948611,0.06250593160868441,66.47948129802644,0.0
1235,0.05430578876722997,0.050769527388849454,66.499628726421,0.0
1236,0.03937052724891901,0.036429738979794665,66.51915128877978,0.0
1237,0.022347448906172143,0.020083107475583742,66.53806970393285,0.0
1238,0.004214806143797788,0.002416334529413311,66.55640477346152,0.0
1239,-0.014103148945417074,-0.015934286369843946,66.5741773779759,0.0
1240,-0.03201508676597213,-0.034462298904017086,66.59140847351213,0.0
1241,-0.04936827486935633,-0.05277844951662648,66.6081190880516,0.0
1242,-0.06625827195086627,-0.07051610235806972,66.62433031816347,0.0
1243,-0.08264348428709907,-0.08720577961469736,66.64006332577254,0.0
1244,-0.09801850481557726,-0.10219051690545068,66.6553393350535,0.0
1245,-0.11137211147590047,-0.11464152448697976,66.67017962945332,0.0
1246,-0.12146027589565714,-0.12369202724457982,66.68460554884298,0.0
1247,-0.12721315936421235,-0.12865431022057094,66.69863848680014,0.0
1248,-0.12806778376836814,-0.12924440334689422,66.71229988802325,0.0
1249,-0.1241669006609928,-0.12572791424421553,66.72561124587914,0.0
1250,-0.11644972268583802,-0.11892395842235479,66.73859410008441,0.0
1251,-0.10655179111155377,-0.11005343531562449,66.75127003452215,0.0
1252,-0.09638214706796458,-0.10047456437489395,66.76366067519452,0.0
1253,-0.08748255622544522,-0.0913897515413438,66.77578768831243,0.0
1254,-0.08053082808223627,-0.08361510281762233,66.78767277852297,0.0
1255,-0.07530195787046964,-0.07747363098044169,66.7993376872754,0.0
1256,-0.07109474605644447,-0.0728212388509239,66.8108041913264,0.0
1257,-0.06728570293319305,-0.06916855587087403,66.8220941013855,0.0
1258,-0.0635692013027665,-0.06584382450808413,66.8332292609011,0.0
1259,-0.059767907642039104,-0.06215427255865926,66.84423154498774,0.0
1260,-0.05553942149477354,-0.05752773077416157,66.85512285949538,0.0
1261,-0.05035011580310388,-0.05163013829831865,66.86592514022117,0.0
1262,-0.043745791190898956,-0.04444905623560723,66.87666035226414,0.0
1263,-0.03567640624265574,-0.03631866446740017,66.8873504895235,0.0
1264,-0.026655501956909425,-0.027857483072769744,66.89801757434101,0.0
1265,-0.017670561008997932,-0.019809030777942046,66.90868365728798,0.0
1266,-0.009848514410204474,-0.01281410232335439,66.9193708170971,0.0
1267,-0.0039824050207034264,-0.007182787196683069,66.93010116074014,0.0
1268,-0.00013354904307560575,-0.0027518922064721993,66.94089682365129,0.0
1269,0.0024857981848513296,0.0011052352794294132,66.95177997009745,0.0
1270,0.005272581162460099,0.0053013915048772155,66.96277279369524,0.0
1271,0.009710874498269892,0.010740536336136912,66.97389751807562,0.0
1272,0.016763901639457672,0.018004461242789274,66.98517639769672,0.0
1273,0.026443930774228117,0.02713153564160113,66.99663171880508,0.0
1274,0.037788964889257905,0.037564953281913,67.00828580054629,0.0
1275,0.04927347197549101,0.048285484985689506,67.02016099622531,0.0
1276,0.05939428286174951,0.05807962590968413,67.03227969471739,0.0
1277,0.06707999393514731,0.06585418220672225,67.04466432202986,0.0
1278,0.07179381681000978,0.07090403944318319,67.05733734301609,0.0
1279,0.07347844745174904,0.0730648668178686,67.07032126324187,0.0
1280,0.07252435725019378,0.07272127085955302,67.08363863100519,0.0
1281,0.06975744223907884,0.07067959108862994,67.09731203951056,0.0
1282,0.06631563350688505,0.0679460138691385,67.11136412919831,0.0
1283,0.06336527353631607,0.06547188995821898,67.12581759023035,0.0
1284,0.06176130624346259,0.06393562884751036,67.14069516513304,0.0
1285,0.061811260297261916,0.06362029215657419,67.15601965159867,0.0
1286,0.0632457718905764,0.06441745857487574,67.17181390544657,0.0
1287,0.06539188656194397,0.06594766845475836,67.18810084374512,0.0
1288,0.06746876145301936,0.0677489520465052,67.20490344809625,0.0
1289,0.06891104116075303,0.06946243390018145,67.22224476808361,0.0
1290,0.06961688855153683,0.07094767871407083,67.24014792488646,0.0
1291,0.0699856824522044,0.07229011186932735,67.25863611506036,0.0
1292,0.0706573644044314,0.07370692081614086,67.27773261448691,0.0
1293,0.07208057926326736,0.07539737252746298,67.29746078249448,0.0
1294,0.07422650948306413,0.07740115020720201,67.31784406615148,0.0
1295,0.07663681808792075,0.07951801737733671,67.33890600473491,0.0
1296,0.07866587184733605,0.08131222077785415,67.36067023437609,0.0
1297,0.07966242609950142,0.08219203893373377,67.38316049288612,1.0
1298,0.07902326722099579,0.08153249458213407,67.40650358566495,0.0
1299,0.0762223288662806,0.07880193629029993,67.43080577693279,0.0
1300,0.07088019636201866,0.07365789085947934,67.45606011504822,0.0
1301,0.06284656683073671,0.06598944359146922,67.48225970408856,0.0
1302,0.05225034411985371,0.055899267454693626,67.5093977017348,0.0
1303,0.03947133573462748,0.043636137006041506,67.53746731718068,0.0
1304,0.025004455479981327,0.029504810392488007,67.56646180906597,0.0
1305,0.009266655059092056,0.013788992913196046,67.5963744834324,0.0
1306,-0.00753275536904096,-0.0032805197310544973,67.62719869170228,0.0
1307,-0.025359014328696812,-0.021497428105786143,67.65892782867832,0.0
1308,-0.04415728931932385,-0.04060091462075571,67.69155533056467,0.0
1309,-0.06362195373716734,-0.060177905800486764,67.72507467300797,0.0
1310,-0.08310120217392555,-0.07958868398148759,67.75947936915799,0.0
1311,-0.10168424490833769,-0.09795261784386523,67.79476296774733,0.0
1312,-0.11833708694875256,-0.11421325887316983,67.83091905118923,0.0
1313,-0.13196046577245465,-0.1272787195787257,67.86794123369329,0.0
1314,-0.14144629156804278,-0.13620987187685615,67.90582315939814,0.0
1315,-0.1459064134205392,-0.14041048539001053,67.94455850052083,0.0
1316,-0.1450496145299261,-0.1397661347489424,67.98414095552215,0.0
1317,-0.13941682676358264,-0.13468860265925892,68.0245642472875,0.0
1318,-0.13022632630750064,-0.12604980604938038,68.06582212132271,0.0
1319,-0.1189318711983951,-0.11502415664227075,68.10790834396428,0.0
1320,-0.10683601133531827,-0.10288486577137254,68.15081670060388,0.0
1321,-0.09495597656492924,-0.0908065315735272,68.19454099392608,0.0
1322,-0.08404943433817123,-0.07971384716393798,68.23907504215937,0.0
1323,-0.07462856234297496,-0.07019474564711528,68.28441267733977,0.0
1324,-0.06692602242973111,-0.06247722770924305,68.33054774358672,0.0
1325,-0.06087722714306677,-0.05645818865185383,68.37747409539081,0.0
1326,-0.05614425325070906,-0.05176904402776129,68.42518559591295,0.0
1327,-0.05216518641246366,-0.047863334053505346,68.47367611529458,0.0
1328,-0.048255087671046026,-0.04411309387369932,68.52293952897874,0.0
1329,-0.043788054224242604,-0.0399031329011935,68.57296971604121,0.0
1330,-0.03836809964187319,-0.034716144441672696,68.62376055753214,0.0
1331,-0.0318311852418388,-0.0282061579180297,68.67530593482691,0.0
1332,-0.024111112073726036,-0.020259997333696433,68.72759972798684,0.0
1333,-0.01520109738346024,-0.011042487473933181,68.78063581412866,0.0
1334,-0.005290368330629451,-0.0010119135177219102,68.83440806580305,0.0
1335,0.005101765295447883,0.009115144647068453,68.88891034938169,0.0
1336,0.01513370020675723,0.018466692709373636,68.94413652345268,0.0
1337,0.02377484295827951,0.026183934199073264,69.00008043722391,0.0
1338,0.030042009581410983,0.03162462287940769,69.05673592893442,0.0
1339,0.03332595412854816,0.03454433251016218,69.11409682427336,0.0
1340,0.03369779826399734,0.0351909957881546,69.17215693480638,0.0
1341,0.032011314397752066,0.03426714386458446,69.23091005640937,0.0
1342,0.02968092420332273,0.032757100213709325,69.290349967709,0.0
1343,0.028192833895530286,0.03166681056037201,69.35047042853057,0.0
1344,0.02857495792568992,0.0317594285020972,69.41126517835235,0.0
1345,0.031069927184868056,0.033372736977387234,69.47272793476658,0.0
1346,0.03514251617698535,0.03637260748720124,69.53485239194703,0.0
1347,0.03981443239561494,0.04024478005248906,69.59763221912291,0.0
1348,0.044148230545739055,0.0442795521386578,69.66106105905914,0.0
1349,0.04757713009669278,0.047780964825712126,69.72513252654265,0.0
1350,0.049920921161829585,0.050239443776781315,69.78984020687497,0.0
1351,0.05121911875005545,0.051433794110916815,69.85517765437078,0.0
1352,0.05158262379981194,0.05145652503778154,69.92113839086247,0.0
1353,0.051151520683258234,0.05067243406644099,69.98771590421076,0.0
1354,0.050177860232364944,0.04962360673097076,70.0549036468211,0.0
1355,0.04915902208130136,0.048894014029832344,70.12269503416617,0.0
1356,0.04881721450749524,0.04895362399389053,70.1910834433141,0.0
1357,0.049795286576631285,0.05001604507658914,70.26006221146285,0.0
1358,0.05223780659923004,0.051954489229574935,70.32962463448045,0.0
1359,0.055599854348612456,0.05431415752518142,70.39976396545116,0.0
1360,0.05883639483896387,0.056429847302253845,70.47047341322781,0.0
1361,0.060819441865647715,0.05761599388565489,70.54174614099016,1.0
1362,0.060755729206017246,0.057363213296976204,70.61676177487212,0.0
1363,0.05845597017722067,0.055469077677224046,70.69854745674313,0.0
1364,0.054348225950508394,0.05205635532239838,70.78686864773138,0.0
1365,0.049219659017522205,0.04747816412705981,70.88149184709195,0.0
1366,0.04383588723544796,0.04215504744819218,70.98218413785142,0.0
1367,0.03862951807199848,0.036413055039779395,71.08871274828137,0.0
1368,0.03354686544036642,0.030384360638158154,71.20084462852216,0.0
1369,0.028089913713334455,0.02399792478006311,71.31834604180276,0.0
1370,0.02158953400539489,0.01704493136744145,71.44098216982127,0.0
1371,0.013605909004266118,0.009273964523712153,71.5685167319652,0.0
1372,0.004172046997730817,0.0004690106651333639,71.70071161816121,0.0
1373,-0.0063139184736967155,-0.009511434422368438,71.83732653525102,0.0
1374,-0.01743163137446245,-0.020720895370961945,71.9781186668942,0.0
1375,-0.02901962686371482,-0.03310304623358513,72.12284234709927,0.0
1376,-0.041188329275455446,-0.04643602518112917,72.27124874758287,0.0
1377,-0.0540608944350274,-0.060251342896711996,72.42308557925224,0.0
1378,-0.0673766417335312,-0.0737730433987832,72.57809680819949,0.0
1379,-0.08018047555839378,-0.08593734386479378,72.73602238668607,0.0
1380,-0.09086693941996196,-0.0955307475845902,72.89659799968433,0.0
1381,-0.09767810158162346,-0.10143316814858407,73.05955482762707,0.0
1382,-0.09939792192478125,-0.10289802355595819,73.22461932609868,0.0
1383,-0.0958165312425287,-0.09977316030972515,73.39151302327942,0.0
1384,-0.08773763949390598,-0.0925802865943185,73.5599523360292,0.0
1385,-0.07663352136791818,-0.08241925967539249,73.72964840556816,0.0
1386,-0.06421057740395389,-0.07072368834212905,73.90030695377709,0.0
1387,-0.05204991428113462,-0.058940848211903075,74.0716281612015,0.0
1388,-0.041331285856620666,-0.04822724889590825,74.2433065678984,0.0
1389,-0.03265316571725843,-0.039240144974632706,74.41503099831311,0.0
1390,-0.02601367069554337,-0.032072991060874634,74.58648451141492,0.0
1391,-0.020932894671682637,-0.026341027296747054,74.7573443773538,0.0
1392,-0.016619644982613556,-0.02138304684657348,74.92728208192439,0.0
1393,-0.01217200259564375,-0.016515777590106438,75.09596336013921,0.0
1394,-0.006875683739289193,-0.011264644568975139,75.26304826021669,0.0
1395,-0.0005436872677413718,-0.0055032341650793175,75.42819123928227,0.0
1396,0.006337257088623469,0.0005361785606147959,75.59104129206219,0.0
1397,0.012842454917517718,0.006374542097710101,75.75124211381564,0.0
1398,0.018104600399836395,0.011471575474272109,75.90843229870477,0.0
1399,0.02170615910053129,0.015413837994092426,76.06224557473936,0.0
1400,0.023736802388805257,0.018041445852881387,76.2123110763551,0.0
1401,0.024605032579362706,0.01948067257616865,76.35825365559039,0.0
1402,0.02482704862068019,0.020087720059642093,76.4996942327135,0.0
1403,0.024899536029719675,0.020336835787767377,76.63625018702369,0.0
1404,0.02522697710620316,0.020695500313011147,76.76753578840052,0.0
1405,0.026070980224700432,0.021522696909058423,76.89316267000979,0.0
1406,0.02754649189820027,0.023011030732851923,77.01274034238962,0.0
1407,0.02966798787879308,0.025177565671683975,77.12587674893568,0.0
1408,0.03236841945833131,0.027896374811278164,77.23217886258303,0.0
1409,0.0354566346514739,0.03095868869563428,77.33125332324268,0.0
1410,0.03862016236960471,0.03414257412627553,77.4227071152936,0.0
1411,0.041552380157001724,0.037272383161337505,77.50614828415931,0.0
1412,0.044110319015375155,0.04025038268541613,77.58118669071038,0.0
1413,0.046368842445976347,0.04305139823608394,77.64743480193552,0.0
1414,0.04852976975844739,0.04568527363926271,77.70450851601196,0.0
1415,0.05073601367040876,0.048145893006695376,77.7520280195879,0.0
1416,0.05292684939529649,0.05037184578952198,77.78961867476339,0.0
1417,0.05485770514924214,0.05223832778310433,77.8169119329283,0.0
1418,0.05623304905859687,0.0535850852772746,77.83354627228717,0.0
1419,0.05681032410190879,0.054268824182343814,77.83916815557535,1.0
1420,0.056464048456299445,0.05421843255182425,77.82839719558139,0.0
1421,0.05527008444552302,0.053471533343558905,77.79650445832527,0.0
1422,0.05353673041869807,0.052180115991989136,77.74414443178769,0.0
1423,0.05166789430798609,0.05058606463350485,77.67200122611185,0.0
1424,0.04994706747884107,0.04897735952577484,77.58078514606153,0.0
1425,0.0484725580394787,0.04763776916095484,77.47122928723321,0.0
1426,0.047301237285621536,0.046798074160637,77.34408618039468,0.0
1427,0.046592832873454434,0.04659178873989399,77.20012450633413,0.0
1428,0.04655433347237081,0.04701891099297018,77.04012590147866,0.0
1429,0.047227623074851066,0.04792661857573538,76.86488187232365,0.0
1430,0.048326088377147816,0.04901884644827143,76.67519083444739,0.0
1431,0.04928304996620908,0.04990086695561526,76.4718552896054,0.0
1432,0.049490090529636904,0.05015128449321411,76.2556791521442,0.0
1433,0.048518797244623345,0.04940034340532936,76.027465233774,0.0
1434,0.04615805485927647,0.04738867281212231,75.78801289362261,0.0
1435,0.04232636514698386,0.04398713387042749,75.53811585848145,0.0
1436,0.037011339306976934,0.03917235339482738,75.27856021626802,0.0
1437,0.030264867181135142,0.03296773066200058,75.01012258398123,0.0
1438,0.0221729523314977,0.025371804159442662,74.73356844982884,0.0
1439,0.012765303065810488,0.01630239071616235,74.44965068776521,0.0
1440,0.001934595948467923,0.005583851660441258,74.15910824139722,0.0
1441,-0.010551979085987324,-0.007005229377356474,73.86266497309647,0.0
1442,-0.024937180307784912,-0.021624778214993076,73.56102867319522,0.0
1443,-0.04129490144214448,-0.038228834843890586,73.25489022333593,0.0
1444,-0.05934847667709278,-0.05642480230055541,72.94492290738602,0.0
1445,-0.07836351758372591,-0.07538551430500855,72.63178186280916,0.0
1446,-0.09717197295802066,-0.09385792639682974,72.31610366499704,0.0
1447,-0.11430021772432085,-0.11029283868892284,71.9985060367964,0.0
1448,-0.12812682839383632,-0.12308954795276503,71.67958767531046,0.0
1449,-0.13707668328471095,-0.13091330582277136,71.35992818799517,0.0
1450,-0.1399482222914129,-0.1330108014016868,71.04008813010236,0.0
1451,-0.13638202208473932,-0.12943201666632542,70.72060913563189,0.0
1452,-0.1272388873641551,-0.12107826324290327,70.40201413413214,0.0
1453,-0.11453321076129586,-0.10954045749390542,70.08480764592426,0.0
1454,-0.10081155624737806,-0.09675744535878289,69.7694761486105,0.0
1455,-0.08831978177192037,-0.08458582091821379,69.45648850805185,0.0
1456,-0.07844749692746608,-0.07440316156309323,69.14629646735787,0.0
1457,-0.07161664999446837,-0.0668534174317341,68.83933518781394,0.0
1458,-0.06743913877509106,-0.06179463464511327,68.53602383607254,0.0
1459,-0.06494588339385271,-0.05844690466804116,68.23676621234941,0.0
1460,-0.06284288949237087,-0.05568419419679698,67.94195141478718,0.0
1461,-0.05983852659313438,-0.05238107228211983,67.65195453557514,0.0
1462,-0.05502617969310361,-0.04771912731282313,67.36713738483915,0.0
1463,-0.048166893542984764,-0.04137679172660469,67.08784923873857,0.0
1464,-0.03969659860237353,-0.03356412564598363,66.81442760862427,0.0
1465,-0.030468436739141336,-0.02490964508948495,66.54719902852197,0.0
1466,-0.021427431062453976,-0.01624569673252859,66.28647985860655,0.0
1467,-0.013383108234669892,-0.008361081476945385,66.03257710272534,0.0
1468,-0.006877017660166636,-0.0017907249170340117,65.78578923841117,0.0
1469,-0.0020792323302987956,0.0033045881458334744,65.54640705819808,0.0
1470,0.0012723801526673129,0.007143412734236486,65.31471452141727,0.0
1471,0.003821037879379416,0.010221060314010148,65.09098961600452,0.0
1472,0.006388892559663725,0.013136093950775786,64.87550523019907,0.0
1473,0.009667788150548771,0.016402044443794835,64.66853003435445,0.0
1474,0.013957598735621878,0.02030278224387246,64.4703293734189,0.0
1475,0.019108244181492748,0.024833207370782526,64.28116617097729,0.0
1476,0.024655081150499338,0.02973641923141046,64.10130184607988,0.0
1477,0.030015258688923428,0.03461568134229312,63.93099724442002,0.0
1478,0.03466978629705126,0.03907650992653946,63.770513585761954,0.0
1479,0.038330912207339744,0.042848721422168654,63.62011342987004,0.0
1480,0.04104528561978594,0.04585082122226601,63.48006166354873,0.0
1481,0.04313573540561504,0.048183645481882684,63.350626511777776,0.0
1482,0.044988986335992784,0.050066391669136616,63.23208057632031,0.0
1483,0.0468477381464829,0.05174565165176945,63.124701905597384,0.0
1484,0.048767852704418295,0.053411194147251165,63.028775100068756,0.0
1485,0.05073290100364925,0.05514309453422687,62.94459245783753,0.0
1486,0.0527492412743217,0.05690076249985001,62.872455165716254,0.0
1487,0.05478899862540639,0.05855205753105263,62.81267454155842,0.0
1488,0.0566711723720969,0.059931567544287204,62.76557333428042,0.0
1489,0.058076171166120155,0.06090956929177355,62.73148708868514,0.0
1490,0.05874727531665102,0.06144757356103816,62.71076558295741,0.0
1491,0.05872084953792715,0.0616172689978233,62.703774347546805,1.0
1492,0.0583648991246055,0.06157157175433565,62.70984788871793,0.0
1493,0.05816098584671036,0.06147714388350922,62.72798819366104,0.0
1494,0.05839143263855315,0.06143689469075088,62.75808501799059,0.0
1495,0.05896979811220335,0.0614367260081179,62.80004141354655,0.0
1496,0.059515044588114,0.06133866800382597,62.85377332704147,0.0
1497,0.05956747030073892,0.060919374368454376,62.919209237636366,0.0
1498,0.05877749082325844,0.059932098216364915,62.99628983126293,0.0
1499,0.05698136839829615,0.058162736444169465,63.084967709728915,0.0
1500,0.05417499257557133,0.05545857064520741,63.185207132845996,0.0
1501,0.050434638422132846,0.051725568279510914,63.29698379200518,0.0
1502,0.045818366736856006,0.04690641532126666,63.42028461379728,0.0
1503,0.04027931906890771,0.04095868057359905,63.55510759243557,0.0
1504,0.033657273603139276,0.033848137793938284,63.70146164988633,0.0
1505,0.02577183594591915,0.025560029568665307,63.85936652275244,0.0
1506,0.01653679136039178,0.01611863129962502,64.02885267508506,0.0
1507,0.006019983818009552,0.0056002048541950004,64.20996123642269,0.0
1508,-0.005559571513229517,-0.0058707457286804945,64.40274396447231,0.0
1509,-0.017891308116665124,-0.01814000399920064,64.60726323195999,0.0
1510,-0.03066234585979284,-0.031042834984605104,64.82359203728402,0.0
1511,-0.04362076993904268,-0.044404644778555366,65.05181403870671,0.0
1512,-0.05658426443781722,-0.058010050655232695,65.29202361192121,0.0
1513,-0.0693901444867423,-0.07154342010729824,65.5443259309262,0.0
1514,-0.08178501670685574,-0.08452357769694546,65.80883707223767,0.0
1515,-0.09329406882570573,-0.09626920343759589,66.08568414256102,0.0
1516,-0.10315327798141939,-0.1059310065557868,66.37500543014133,0.0
1517,-0.11036808799346126,-0.1126085950280794,66.67695058010325,0.0
1518,-0.11391176300502331,-0.11553824781313639,66.99168079418777,0.0
1519,-0.11302656200965913,-0.11430390850396863,67.31936905538883,0.0
1520,-0.10754061730887406,-0.10900233446766724,67.66020037809196,0.0
1521,-0.09807262900264371,-0.10029626653631407,68.01437208441727,0.0
1522,-0.08598606690688645,-0.08931963905430132,68.38209410757447,0.0
1523,-0.07304434722857786,-0.07744729565953513,68.76358932314481,0.0
1524,-0.06090386822627422,-0.06599017002118068,69.15909390931877,0.0
1525,-0.0506792326457967,-0.055905709683756834,69.56885773723555,0.0
1526,-0.04273276100818367,-0.04761057591843987,69.99314479269562,0.0
1527,-0.03670937916060158,-0.040949640012067245,70.43223363064827,0.0
1528,-0.03175842583763483,-0.03532499830213224,70.88641786399543,0.0
1529,-0.026848146493632347,-0.029939231183421844,71.35600668840107,0.0
1530,-0.021086249140847092,-0.0240743234537212,71.84132544495262,0.0
1531,-0.013986879182099501,-0.017320547944714333,72.34271622269011,0.0
1532,-0.005619748018991056,-0.009688925792770468,72.8605385031985,0.0
1533,0.003416845102619588,-0.0015799015296108013,73.39516984965316,0.0
1534,0.012196499089672418,0.006372593859395998,73.94700664291726,0.0
1535,0.019789830858989468,0.013523204578804234,74.51646486751478,0.0
1536,0.025622259479569358,0.01942585613051657,75.10398095054636,0.0
1537,0.029690444064828903,0.023963649688013736,75.71001265687832,0.0
1538,0.032496406132397355,0.027360298846529747,76.33504004422126,0.0
1539,0.034761565737514454,0.03007826718066204,76.97956648202344,0.0
1540,0.03712605886176571,0.032645738530035544,77.64411973844264,0.0
1541,0.039979500996690655,0.03547300635407559,78.32925314002549,0.0
1542,0.043419390186555516,0.038715644594331064,79.03554680912424,0.0
1543,0.04725702909730541,0.04222241418103519,79.76360898451729,0.0
1544,0.05103885632626461,0.04557914029919494,80.51407743117593,0.0
1545,0.05412799499578735,0.04823334541971428,81.28762094564324,0.0
1546,0.05588049650098417,0.04966340271626949,82.08494096406127,1.0
1547,0.055866056512424,0.04954425089392725,83.07440313532257,0.0
1548,0.05403017217085632,0.047862255948924515,84.4201935002512,0.0
1549,0.05073426752945963,0.04494537299054663,86.12132171289642,0.0
1550,0.046685344341073964,0.04139842763398592,88.18210571405186,0.0
1551,0.042778435305984464,0.037960646764361394,90.61135313185588,0.0
1552,0.039858980466067624,0.03532538317736851,93.42160703721251,0.0
1553,0.03847548884773132,0.03397306623171685,96.6283483571865,0.0
1554,0.03875257447226854,0.034064020987203195,100.24903995627649,0.0
1555,0.040427498935171065,0.03541936846573046,104.30187920035956,0.0
1556,0.0429637158128218,0.03759196497866147,108.80409831127577,0.0
1557,0.04566793656484333,0.04000354565809029,113.76961773359197,0.0
1558,0.04784211477901858,0.04210619081925783,119.2058229405713,0.0
1559,0.04900148158616911,0.04352075114629547,125.10921157438571,0.0
1560,0.04906487001848985,0.04411390400270891,131.45966773204054,0.0
1561,0.04836355451710135,0.043997070085870754,138.21320079842826,0.0
1562,0.04743454075282065,0.043457303509360154,145.2931932345274,0.0
1563,0.046749916825470375,0.042851613094458355,152.5806063338419,0.0
1564,0.04656198213486195,0.04250279582646352,159.90426217229322,0.0
1565,0.04689225359717069,0.042625019140882875,167.03326642241842,0.0
1566,0.047601039913885215,0.043288046283280104,173.67472796134285,0.0
1567,0.04849999828049335,0.0444114617840348,179.480776032681,0.0
1568,0.04944502256699521,0.04577341312953905,184.06876803637408,0.0
1569,0.050310535146220275,0.04702384045054955,187.05666212327927,0.0
1570,0.05083629268280844,0.047703675174575265,188.11132304264044,1.0
1571,0.050487113772939386,0.047279163556702544,187.8925350098375,0.0
1572,0.04850262401470951,0.04519776085903529,187.24806802840038,0.0
1573,0.04415638939467821,0.0409608426366147,186.1997757173409,0.0
1574,0.037034114356657696,0.034197818711382305,184.7741469997928,0.0
1575,0.027122119084843674,0.024724813778916083,183.00134907754145,0.0
1576,0.014685718584244726,0.012579826630360329,180.9142323550873,0.0
1577,9.921486607428892e-05,-0.0019623490523448806,178.54734849285953,0.0
1578,-0.016205386759366856,-0.018387534228826254,175.93602505644296,0.0
1579,-0.0336551378026692,-0.035949439255358706,173.11553039667155,0.0
1580,-0.05144463628298293,-0.05369483724010107,170.12035174376058,0.0
1581,-0.06854956829601835,-0.07052130605698918,166.98359915249517,0.0
1582,-0.08382867537458888,-0.08527865170814715,163.73653874031186,0.0
1583,-0.09613724315337231,-0.09691107555529936,160.408251144062,0.0
1584,-0.10445837106718152,-0.10461778247071775,157.02540551305648,0.0
1585,-0.1081211873683077,-0.10799341068890886,153.6121356392188,0.0
1586,-0.10706596396774264,-0.1071052991564165,150.1900028093071,0.0
1587,-0.10196445152496693,-0.1024778649353398,146.77802935642342,0.0
1588,-0.09404871774297885,-0.09498314017491319,143.3927873552252,0.0
1589,-0.08470979431663925,-0.08566927366060248,140.04852812033445,0.0
1590,-0.07508340141190659,-0.07557936573823419,136.75733983977983,0.0
1591,-0.06584746871969226,-0.0656103031022546,133.5293225665542,0.0
1592,-0.05730665579878576,-0.05643713317120429,130.37277172013486,0.0
1593,-0.04962930681208714,-0.04849724349301854,127.29436308872893,0.0
1594,-0.043028459703211584,-0.04200783970500224,124.299333991388,0.0
1595,-0.03776575544373888,-0.03698965029450851,121.39165671374656,0.0
1596,-0.03398544428839204,-0.03328559598775342,118.57420155678413,0.0
1597,-0.03150708967187469,-0.03058171870695558,115.84888783903844,0.0
1598,-0.029772533159284256,-0.028445567714446847,113.21682198591104,0.0
1599,-0.028052458161773066,-0.026390416339503796,110.67842244884254,0.0
1600,-0.02578061627668976,-0.023959112741365814,108.23353164881297,0.0
1601,-0.022735691383385187,-0.020810301767744614,105.88151545957875,0.0
1602,-0.01894552837860098,-0.01678817934873346,103.62135096137132,0.0
1603,-0.014483884680442021,-0.011961819068631734,101.45170332791248,0.0
1604,-0.009419371756251245,-0.006624674631219685,99.37099277792562,0.0
1605,-0.003978463419630943,-0.0012471083900480531,97.37745254309513,0.0
1606,0.0012910473687151001,0.0036201576577029222,95.46917879092963,0.0
1607,0.005619484047919093,0.007480287000181954,93.6441734038345,0.0
1608,0.008363663300384648,0.010031341634738802,91.90038046318942,0.0
1609,0.009331855430969625,0.011268962872849262,90.23571722570809,0.0
1610,0.008890707487624019,0.011509132522588235,88.6481003135688,0.0
1611,0.007860291763302388,0.011313852713816328,87.13546777319922,0.0
1612,0.007252844451181083,0.011338725154920376,85.6957975926135,0.0
1613,0.007907068066096604,0.012152573475627669,84.32712320547652,0.0
1614,0.010158623919439069,0.01409024344064792,83.02754645266482,0.0
1615,0.013758855966704672,0.017184949427867396,81.79524841960857,0.0
1616,0.018113358910674685,0.021193459800971086,80.62849852042675,0.0
1617,0.022637499311055933,0.025692781199755148,79.52566215786929,0.0
1618,0.02694971385546304,0.030207014905392432,78.4852072512769,0.0
1619,0.030838484238576172,0.03432367443223071,77.50570989298588,0.0
1620,0.03415146728015378,0.037773596503430415,76.58585936662503,0.0
1621,0.036759807399292986,0.04046578161629729,75.72446273834346,0.0
1622,0.038634525190667436,0.04248000913957075,74.92044921395119,0.0
1623,0.03994880406755676,0.04402558091375158,74.17287444106823,0.0
1624,0.04107209162932835,0.045378111260198424,73.48092492552108,0.0
1625,0.04242062286996302,0.046810185486878694,72.84392272533077,0.0
1626,0.04426963430819156,0.04853371524016886,72.26133058370525,0.0
1627,0.04665349088220495,0.05066791142544334,71.7327576645778,0.0
1628,0.049411080273238775,0.05323621769870889,71.2579660606276,0.0
1629,0.05234564990607206,0.056183042454193026,70.83687825470975,0.0
1630,0.05536433144400525,0.059394078517368505,70.46958573169391,0.0
1631,0.05845411650933545,0.06270675292193936,70.15635895953623,0.0
1632,0.061525447098803816,0.06590758868846194,69.89765898688592,0.0
1633,0.06431395170098717,0.06872382100320448,69.69415094083696,0.0
1634,0.06643866442012619,0.0708212051392714,69.54671975411735,0.0
1635,0.06750177433588818,0.07181742481711058,69.45648850805185,1.0
1636,0.06710674171020643,0.07131399185536944,69.39605675571676,0.0
1637,0.06484880883984888,0.06894266200755324,69.3371264358488,0.0
1638,0.06037927793857348,0.06441721452676123,69.27966560555384,0.0
1639,0.053517863724659456,0.057579051202019116,69.22364268564247,0.0
1640,0.04430971497735385,0.04842632610037839,69.16902644780224,0.0
1641,0.032978013380791676,0.03712096445101955,69.11578600215661,0.0
1642,0.01983174540551645,0.023973867119266065,69.0638907851997,0.0
1643,0.0052382818806480415,0.00941321261988328,69.01331054809545,0.0
1644,-0.010319454573181584,-0.006056838405825542,68.96401534533112,0.0
1645,-0.02621532543908213,-0.021898512078214243,68.91597552371492,0.0
1646,-0.04177743398317643,-0.037574649683687886,68.86916171170813,0.0
1647,-0.056445885480003954,-0.05256713352578844,68.82354480908303,0.0
1648,-0.06984554200870778,-0.06637818222808252,68.77909597689748,0.0
1649,-0.08172030168812619,-0.07852370667443594,68.73578662777825,0.0
1650,-0.09179785652579736,-0.0885369409548372,68.69358841650497,0.0
1651,-0.09968707457640316,-0.09600028064505463,68.6524732308872,0.0
1652,-0.10487954701661588,-0.10060974421819065,68.61241318292743,0.0
1653,-0.1068846742121034,-0.10225411908265905,68.57338060026342,0.0
1654,-0.10548205546584917,-0.10107181873453898,68.53534801788277,0.0
1655,-0.10099603142497168,-0.09744670368429428,68.49828817010406,0.0
1656,-0.0943744961800729,-0.09192638805368258,68.46217398281846,0.0
1657,-0.08685726186198173,-0.08508536542923092,68.42697856598586,0.0
1658,-0.07935022256568404,-0.0773895097303238,68.39267520638067,0.0
1659,-0.07199319673961113,-0.06912479696620984,68.35923736058179,0.0
1660,-0.06428489193340708,-0.060422707189623635,68.32663864820192,0.0
1661,-0.05563033691149864,-0.05136284228546892,68.29485284535191,0.0
1662,-0.045897052559360364,-0.0420909722928242,68.26385387833513,0.0
1663,-0.035640466988341286,-0.032884364079805106,68.23361581756846,0.0
1664,-0.025871175936747696,-0.0241293736186926,68.20411287172519,0.0
1665,-0.01752684899338939,-0.016227520770456888,68.17531938209656,0.0
1666,-0.011030423242783215,-0.009484079242344456,68.14720981716819,0.0
1667,-0.0062049425464214825,-0.004036538335484032,68.11975876740783,0.0
1668,-0.0025105492359270495,0.0001490554715953274,68.09294094026168,0.0
1669,0.0005882860499518694,0.0032264976994088174,68.06673115535557,0.0
1670,0.0033205210938396235,0.005401414179673072,68.04110433989875,0.0
1671,0.005543899800033478,0.006883782676719057,68.01603552428709,0.0
1672,0.006979230100412157,0.007873402800207641,67.99149983790325,0.0
1673,0.007575251668761853,0.008563221952516218,67.96747250511147,0.0
1674,0.0076905290235001166,0.009134855824458794,67.94392884144442,0.0
1675,0.007918397905605744,0.009733375065597877,67.92084424998004,0.0
1676,0.008700861912002016,0.010433097075597197,67.89819421790625,0.0
1677,0.010056610469734297,0.01122252969460784,67.87595431327162,0.0
1678,0.011629570914562765,0.012031138095832427,67.85410018191993,0.0
1679,0.01299085382147995,0.012796081442641612,67.832607544607,0.0
1680,0.013948556955371939,0.013539894667157808,67.81145219429821,0.0
1681,0.014667707423571832,0.014417933873399697,67.79060999364465,0.0
1682,0.015585561777727037,0.015704612263803135,67.77005687263703,0.0
1683,0.017228276502941994,0.017714079276795865,67.74976882643536,0.0
1684,0.020013772597036922,0.020680318360092813,67.72972191337328,0.0
1685,0.024071837181676166,0.024640441981219202,67.7098922531357,0.0
1686,0.029141632816957697,0.029366236316942768,67.69025602510841,0.0
1687,0.034623760739982516,0.034373542587557655,67.67078946689867,0.0
1688,0.03976188967981013,0.039013812517354175,67.65146887302524,0.0
1689,0.04384377427748699,0.04262656506985074,67.63227059377725,0.0
1690,0.046346235125032734,0.04471320067252758,67.61317103424027,0.0
1691,0.04701617565385112,0.0450852878519027,67.59414665348909,0.0
1692,0.045931262378982644,0.043944206911220876,67.57517396394586,0.0
1693,0.04357532138444073,0.04186302431118912,67.55622953090248,0.0
1694,0.04084719651561751,0.039664633201955436,67.53728997220682,0.0
1695,0.03886716856212435,0.03821943833654621,67.51833195811106,0.0
1696,0.0386046451114931,0.03821363927256543,67.49933221128191,0.0
1697,0.040526479635029006,0.039954524165645,67.48026750697119,0.0
1698,0.044437448589042354,0.04327327709705284,67.46111467334627,0.0
1699,0.04954824213837856,0.04755790457054966,67.44185059197895,0.0
1700,0.05471336003531073,0.051907988044576345,67.42245219849231,0.0
1701,0.058739409535722015,0.05536377807624249,67.40289648336413,0.0
1702,0.060673415494284566,0.05713863222929008,67.38316049288612,1.0
1703,0.06002292469168104,0.056784019536948054,67.36326555794726,0.0
1704,0.05685605686468728,0.05424017208741773,67.34325685614915,0.0
1705,0.05170736288288383,0.0497650195907022,67.32314722461156,0.0
1706,0.045294271166807044,0.043775728234513075,67.30294947114692,0.0
1707,0.038190174660514165,0.036665978590739015,67.28267637392433,0.0
1708,0.030623828747886075,0.028667350183048848,67.26234068118289,0.0
1709,0.02246484982503616,0.019803245214795193,67.24195511099389,0.0
1710,0.013356883447891394,0.009947027284444927,67.2215323510715,0.0
1711,0.002924547088089143,-0.0010431510625106902,67.20108505863203,0.0
1712,-0.00901023639271658,-0.01316771136210814,67.18062586030094,0.0
1713,-0.022243511831230703,-0.026168441230290107,67.16016735206773,0.0
1714,-0.036101738532587246,-0.03949584584054711,67.13972209928815,0.0
1715,-0.04953800292235176,-0.052374020791338724,67.11930263673366,0.0
1716,-0.06141039843356458,-0.06394019773642463,67.09892146868754,0.0
1717,-0.07080380019751478,-0.07341081267876777,67.07859106908761,0.0
1718,-0.0772269890048033,-0.08022096803549465,67.05832388171517,0.0
1719,-0.08062310716942826,-0.0841000477397485,67.03813232042981,0.0
1720,-0.08124361068765883,-0.08507398978041326,67.0180287694499,0.0
1721,-0.07947519110355063,-0.08341080253932164,66.99802558367844,0.0
1722,-0.07571041284426042,-0.079539546147787,66.97813508907387,0.0
1723,-0.07032182360028952,-0.0739711764128359,66.9583695830659,0.0
1724,-0.0637160189567301,-0.06723734405480022,66.93874133501552,0.0
1725,-0.056365357877303277,-0.0598492509375523,66.91926258671967,0.0
1726,-0.04875179889665535,-0.05227001996736204,66.89994555295955,0.0
1727,-0.04128416047822969,-0.04489274563776166,66.880802422093,0.0
1728,-0.03427656938870324,-0.038020224111846024,66.86184535669014,0.0
1729,-0.02797673978172084,-0.03184785055161826,66.84308649421256,0.0
1730,-0.02256421240854763,-0.02645558138588614,66.82453794773537,0.0
1731,-0.018069971432722147,-0.02181609664198685,66.80621180671227,0.0
1732,-0.014299630310413602,-0.017822802808428587,66.78812013778331,0.0
1733,-0.010926287353928345,-0.014333609731772457,66.77027498562501,0.0
1734,-0.007743078991198874,-0.01121854965520559,66.752688373843,0.0
1735,-0.004811125391361085,-0.008396859331645698,66.73537230590671,0.0
1736,-0.002312541547864061,-0.005854053009025202,66.71833876612611,0.0
1737,-0.0002857322865056876,-0.0036373718489505907,66.70159972067046,0.0
1738,0.0014160871511034578,-0.0018323322746676939,66.68516711862874,0.0
1739,0.0029006018293211474,-0.0005227692081287913,66.66905289311183,0.0
1740,0.0040602199759816725,0.0002625396991117225,66.6532689623963,0.0
1741,0.004691954420321333,0.0006065532710713833,66.63782723110985,0.0
1742,0.00480026122070233,0.0007432750163308098,66.62273959145814,0.0
1743,0.0047699836538305255,0.0010547644265957324,66.60801792449313,0.0
1744,0.005243610438096909,0.002010576910898159,66.59367410142302,0.0
1745,0.006827885984900136,0.004055721183862602,66.57971998496357,0.0
1746,0.009872674541624667,0.0074759196730058534,66.56616743073096,0.0
1747,0.014429194892161445,0.012282473334495975,66.55302828867627,0.0
1748,0.020297807635613962,0.0181587327048011,66.54031440456166,0.0
1749,0.027019885900295484,0.02449678307675631,66.52803762147809,0.0
1750,0.03380886126992755,0.030528892742373116,66.51620978140524,0.0
1751,0.039611091264180484,0.03552701286814476,66.5048427268131,0.0
1752,0.04345425068735563,0.03901292865001715,66.49394830230598,0.0
1753,0.04492882962890717,0.04090515629610019,66.4835383563088,0.0
1754,0.04444366443723448,0.04154002700417288,66.4736247427959,0.0
1755,0.043071799373382035,0.04154655793032402,66.4642193230628,0.0
1756,0.042094684716541805,0.04161352687753681,66.45533396754091,0.0
1757,0.04246852034512745,0.04223623828631702,66.44698055765576,0.0
1758,0.04443423011269049,0.043544837117632615,66.43917098772882,0.0
1759,0.0474361047091305,0.045285808255736394,66.43191716692345,0.0
1760,0.05037583408076897,0.04696447847380913,66.42523102123525,0.0
1761,0.052104157356566955,0.048086370982737596,66.41912449552729,0.0
1762,0.051984574299365635,0.048390955637641994,66.41360955561056,0.0
1763,0.05026603594586747,0.04797422672766828,66.40869819037034,0.0
1764,0.0479891677295068,0.047246841453024456,66.40440241393861,0.0
1765,0.046420665093166294,0.04674932126428973,66.40073426791345,0.0
1766,0.04638091723262899,0.046909190495105474,66.39770582362577,0.0
1767,0.0478942556554485,0.04784679158662021,66.39532918445406,0.0
1768,0.050287452135648655,0.049308832924216534,66.39361648818759,0.0
1769,0.052548251681892214,0.050748571716305174,66.39257990943932,0.0
1770,0.05370226485091058,0.0515094041669808,66.39223166210839,1.0
1771,0.053075663803781245,0.05103124199758314,66.39311461650624,0.0
1772,0.050413311971084784,0.04899794924628931,66.39573686937952,0.0
1773,0.04587079660518778,0.04537455499511629,66.4000587008349,0.0
1774,0.039891254399897505,0.040329799420221586,66.40604063533624,0.0
1775,0.03298261601999856,0.03408463010638593,66.41364342164239,0.0
1776,0.025467200563655736,0.026755034904050574,66.42282801329591,0.0
1777,0.017300586678604447,0.018259036714492402,66.43355554964835,0.0
