,PPG_Raw,PPG_Clean,PPG_Rate,PPG_Peaks
0,-9.423661118093092,0.5122731032660601,93.72846312887663,0.0
1,-8.868462626230249,1.0302831580314085,93.72846312887663,0.0
2,-8.317219221020945,1.5446319883153379,93.72846312887663,0.0
3,-7.774172692455799,2.0505781965961165,93.72846312887663,0.0
4,-7.24506426484094,2.5418403124414746,93.72846312887663,0.0
5,-6.7375482006858185,3.010179010124654,93.72846312887663,0.0
6,-6.2611611101847995,3.4453577520976575,93.72846312887663,0.0
7,-5.826966586013348,3.835540487991497,93.72846312887663,0.0
8,-5.446995699034754,4.168129770407041,93.72846312887663,0.0
9,-5.133502473231924,4.430983942036217,93.72846312887663,0.0
10,-4.897941851627503,4.613883515707781,93.72846312887663,0.0
11,-4.749563804697348,4.710053666584644,93.72846312887663,0.0
12,-4.693656646320817,4.717504916005469,93.72846312887663,0.0
13,-4.729722302433305,4.63994257720304,93.72846312887663,0.0
14,-4.850096077814351,4.4870297720426,93.72846312887663,0.0
15,-5.039586060273747,4.273872945934329,93.72846312887663,0.0
16,-5.276525407513036,4.019724144944302,93.72846312887663,0.0
17,-5.535246869088671,3.746038666780715,93.72846312887663,0.0
18,-5.789548235840196,3.4741585062217863,93.72846312887663,0.0
19,-6.016395926963305,3.2229787008042994,93.72846312887663,0.0
20,-6.199032904827588,3.0069713103928786,93.72846312887663,0.0
21,-6.328832014739274,2.8348826677544423,93.72846312887663,0.0
22,-6.405583994292793,2.709295135134838,93.72846312887663,0.0
23,-6.43630229713975,2.6270824919589684,93.72846312887663,0.0
24,-6.432948980029373,2.5806245183580616,93.72846312887663,0.0
25,-6.409668302148669,2.559516665920282,93.72846312887663,0.0
26,-6.380138522637448,2.552440651314561,93.72846312887663,0.0
27,-6.355537305575718,2.5488620361575345,93.72846312887663,0.0
28,-6.343408115327932,2.5402858517384774,93.72846312887663,0.0
29,-6.347474519631149,2.5209123685065107,93.72846312887663,0.0
30,-6.368236716051455,2.4876660179098833,93.72846312887663,0.0
31,-6.404044984113226,2.439694252806722,93.72846312887663,0.0
32,-6.45229966754872,2.377527669924791,93.72846312887663,0.0
33,-6.510474725949631,2.302144244263904,93.72846312887663,0.0
34,-6.576779001656185,2.214184384672247,93.72846312887663,0.0
35,-6.650413501089338,2.1135226900871977,93.72846312887663,0.0
36,-6.731499197090761,1.9993247683423967,93.72846312887663,0.0
37,-6.8207931435106826,1.8706139263475738,93.72846312887663,0.0
38,-6.919273382115321,1.7272552015775655,93.72846312887663,0.0
39,-7.0275940987694,1.5711474729660355,93.72846312887663,0.0
40,-7.14535968603167,1.4073161776993344,93.72846312887663,0.0
41,-7.270202312182173,1.2445414913306714,93.72846312887663,0.0
42,-7.396792603820884,1.095163831301581,93.72846312887663,0.0
43,-7.516126218055828,0.9738008182016848,93.72846312887663,0.0
44,-7.6156185071955464,0.894895717651006,93.72846312887663,0.0
45,-7.6805888154340405,0.8692835942650818,93.72846312887663,0.0
46,-7.6975192012934475,0.9002668532922371,93.72846312887663,0.0
47,-7.6589850739516185,0.9799688305031781,93.72846312887663,0.0
48,-7.569449076106359,1.0868994828009781,93.72846312887663,0.0
49,-7.4503902331704355,1.1856432248694935,93.72846312887663,0.0
50,-7.342800429718646,1.2293191339983447,93.72846312887663,0.0
51,-7.305198279858182,1.1649767079863549,93.72846312887663,0.0
52,-7.406134446235863,0.9414518131897298,93.72846312887663,0.0
53,-7.71161464721597,0.5185533921458785,93.72846312887663,0.0
54,-8.269602251214915,-0.12404981315861008,93.72846312887663,0.0
55,-9.095218832684575,-0.9800655822000204,93.72846312887663,0.0
56,-10.160823962392527,-2.013548521401645,93.72846312887663,0.0
57,-11.394417493429126,-3.1606015451610965,93.72846312887663,0.0
58,-12.68781139283859,-4.335903024874207,93.72846312887663,0.0
59,-13.913330973298004,-5.443163485568459,93.72846312887663,0.0
60,-14.945336312656687,-6.387775564461088,93.72846312887663,0.0
61,-15.681477670300614,-7.089440924687285,93.72846312887663,0.0
62,-16.058774037269824,-7.492558839265186,93.72846312887663,0.0
63,-16.061199082380288,-7.572640657084268,93.72846312887663,0.0
64,-15.717849866794376,-7.337848198745913,93.72846312887663,0.0
65,-15.093147964780282,-6.825733740356454,93.72846312887663,0.0
66,-14.272205409086508,-6.096151215712341,93.72846312887663,0.0
67,-13.345137584446276,-5.221917248586619,93.72846312887663,0.0
68,-12.393729419495003,-4.279016981455836,93.72846312887663,0.0
69,-11.482720579470548,-3.3379696905903993,93.72846312887663,0.0
70,-10.656466473308477,-2.457484967071788,93.72846312887663,0.0
71,-9.940286255410903,-1.6809052665875621,93.72846312887663,0.0
72,-9.34479636560993,-1.0353131032645764,93.72846312887663,0.0
73,-8.871163274593632,-0.5327192927081712,93.72846312887663,0.0
74,-8.515495332760812,-0.17251965402235325,93.72846312887663,0.0
75,-8.271338562353279,0.05558283539708864,93.72846312887663,0.0
76,-8.130141478049302,0.16880095958971963,93.72846312887663,0.0
77,-8.08030823708034,0.18895835663517202,93.72846312887663,0.0
78,-8.105862549147702,0.14070671296547277,93.72846312887663,0.0
79,-8.18573392220955,0.05011922836970384,93.72846312887663,0.0
80,-8.294325497170645,-0.05656328748418693,93.72846312887663,0.0
81,-8.403492793601313,-0.15422209028403522,93.72846312887663,0.0
82,-8.485549828603789,-0.22026304784118733,93.72846312887663,0.0
83,-8.516588035131132,-0.23607403433817264,93.72846312887663,0.0
84,-8.479330389400326,-0.18836969871884224,93.72846312887663,0.0
85,-8.364932112206212,-0.0702053536801387,93.72846312887663,0.0
86,-8.173475580487738,0.11854012844499218,93.72846312887663,0.0
87,-7.913248457675207,0.37133637866265945,93.72846312887663,0.0
88,-7.599125800784835,0.6758432120517373,93.72846312887663,0.0
89,-7.250455153667656,1.0153235097817275,93.72846312887663,0.0
90,-6.888796464944376,1.3704377210239647,93.72846312887663,0.0
91,-6.535763354471724,1.7211780509779366,93.72846312887663,0.0
92,-6.211114727532882,2.048693491103092,93.72846312887663,0.0
93,-5.931193397288487,2.3367928832981297,93.72846312887663,0.0
94,-5.707801023970573,2.5729828996106487,93.72846312887663,0.0
95,-5.547604561229625,2.7489874024430163,93.72846312887663,0.0
96,-5.452145232496804,2.860787759251446,93.72846312887663,0.0
97,-5.4184411187967445,2.90830300615597,93.72846312887663,1.0
98,-5.440052566930717,2.894878071620666,93.83712129915492,0.0
99,-5.508365382301382,2.826755262416118,93.9459730824042,0.0
100,-5.613794331413991,2.7126637478219804,94.05496020175075,0.0
101,-5.746643693917474,2.5635788338193812,94.16402383604661,0.0
102,-5.897469750695109,2.392593839255267,94.27310461696447,0.0
103,-6.056940687628564,2.214739033194343,94.38214262682841,0.0
104,-6.215352808553138,2.0465069471751507,94.49107739719872,0.0
105,-6.362112808715116,1.904832873369146,94.59984790822914,0.0
106,-6.485603017530517,1.8053550669960332,94.70839258881486,0.0
107,-6.573869551476557,1.759944227237545,94.81664931755016,0.0
108,-6.616471987432256,1.7737248961278513,94.9245554245137,0.0
109,-6.607580833351519,1.8420656057413491,95.0320476939006,0.0
110,-6.550006332165671,1.948223346737209,95.13906236751961,0.0
111,-6.45933881679575,2.062418321932981,95.24553514917383,0.0
112,-6.366903430750476,2.1430270634425668,95.3514012099435,0.0
113,-6.319986453008703,2.140290064246872,95.45659519438865,0.0
114,-6.378004160905171,2.0024593178628747,95.56105122768977,0.0
115,-6.6040891843540495,1.6837433517226392,95.66470292374403,0.0
116,-7.052876927228725,1.1528700471783613,95.76748339423399,0.0
117,-7.756737555061657,0.4007262498853207,95.86932525868595,0.0
118,-8.71379033036553,-0.5545283010163193,95.97016065553379,0.0
119,-9.88124616439856,-1.6661750874210086,96.06992125420439,0.0
120,-11.17669025868105,-2.862147452440192,96.16853826823935,0.0
121,-12.487992831516015,-4.052559346556682,96.26594246946759,0.0
122,-13.690188175586464,-5.140502341428744,96.36206420324264,0.0
123,-14.665673121172327,-6.034373014850408,96.45683340475675,0.0
124,-15.323129644321966,-6.6596578428136946,96.55017961644462,0.0
125,-15.610980638124012,-6.96820396435383,96.64203200648673,0.0
126,-15.522767186466817,-6.943514454595389,96.73231938842275,0.0
127,-15.094027521610164,-6.601397422485056,96.8209702418835,0.0
128,-14.392345164335856,-5.986177178590376,96.90791273444898,0.0
129,-13.503608231269574,-5.1634415356938534,96.99307474463873,0.0
130,-12.517881298328716,-4.210794828881657,97.07638388603934,0.0
131,-11.51770306379707,-3.208235052422615,97.15776753257254,0.0
132,-10.570438955995536,-2.229590580464304,97.237152844906,0.0
133,-9.72499347066416,-1.336028098484071,97.314466798007,0.0
134,-9.01210903078162,-0.5721113399425357,97.38963620983753,0.0
135,-8.446872201735044,0.035615646352548325,97.46258777118817,0.0
136,-8.031968368697486,0.4779249836837438,97.53324807664556,0.0
137,-7.76058283626829,0.7606863325328459,97.60154365668691,0.0
138,-7.618445761939059,0.9017670102053827,97.66740101089286,0.0
139,-7.585118924137725,0.9275876881213296,97.73074664226797,0.0
140,-7.6350129707646825,0.8697130618605874,97.79150709265619,0.0
141,-7.738697825802393,0.7617008155129359,97.84960897923628,0.0
142,-7.864855756484585,0.6363187143880895,97.90497903208019,0.0
143,-7.982863675987861,0.5231826387763436,97.95754413275527,0.0
144,-8.065653115761792,0.44685751059664014,98.00723135394821,0.0
145,-8.092317279560081,0.42547394719331444,98.05396800008725,0.0
146,-8.049960882119986,0.4699198434281995,98.09768164893593,0.0
147,-7.934476904180112,0.5836498660474778,98.13830019412974,0.0
148,-7.750189839113719,0.7631122326464457,98.17575188862457,0.0
149,-7.508531579855455,0.9987292031686033,98.20996538902297,0.0
150,-7.226055804151223,1.2763018896806302,98.24086980074202,0.0
151,-6.922140833568236,1.5786598346167353,98.26839472398437,0.0
152,-6.616706188151747,1.8873560091256918,98.29247030047065,0.0
153,-6.328210704436106,2.1842251533970884,98.31302726089015,0.0
154,-6.072133109318805,2.452674733170843,98.32999697302243,0.0
155,-5.860061104302181,2.6786511563504503,98.34331149048232,0.0
156,-5.699422699699907,2.851300725697611,98.35290360203567,0.0
157,-5.593781424837871,2.9634041409900087,98.35870688143308,0.0
158,-5.543502921123504,3.011686881363043,98.36065573770492,1.0
159,-5.546519057773945,2.997085005701871,98.36065573770492,0.0
160,-5.598902044760882,2.9249784428805428,98.36065573770492,0.0
161,-5.695033394912429,2.8053075599081767,98.36065573770492,0.0
162,-5.8273068246898605,2.6523924817511926,98.36065573770492,0.0
163,-5.985515768494015,2.4842147161165,98.36065573770492,0.0
164,-6.156300796834638,2.32093220096804,98.36065573770492,0.0
165,-6.323202752922756,2.1825045851340654,98.36065573770492,0.0
166,-6.467899015603271,2.0855049939550656,98.36065573770492,0.0
167,-6.5730166313131075,2.0394576951073526,98.36065573770492,0.0
168,-6.62649208629094,2.043308889520996,98.36065573770492,0.0
169,-6.626845304363474,2.0828320057200305,98.36065573770492,0.0
170,-6.588110846402986,2.1298104431276697,98.36065573770492,0.0
171,-6.542742545521317,2.1436739982332553,98.36065573770492,0.0
172,-6.540804815413976,2.0758805708638968,98.36065573770492,0.0
173,-6.644336739013959,1.8767826386647621,98.36065573770492,0.0
174,-6.916916195550709,1.5041075132046706,98.36065573770492,0.0
175,-7.409932076553905,0.9316592610689822,98.36065573770492,0.0
176,-8.148455244418185,0.15656860725632826,98.36065573770492,0.0
177,-9.12035571382603,-0.7965156040959334,98.36065573770492,0.0
178,-10.272034151783592,-1.8754533377451374,98.36065573770492,0.0
179,-11.512736459038512,-3.005260454687501,98.36065573770492,0.0
180,-12.72724144389286,-4.096864781218569,98.36065573770492,0.0
181,-13.794427595754165,-5.058602187978274,98.36065573770492,0.0
182,-14.607586879295562,-5.8084889769710015,98.36065573770492,0.0
183,-15.091888719118014,-6.285123710521246,98.36065573770492,0.0
184,-15.215216110191612,-6.4553471647134035,98.36065573770492,0.0
185,-14.990388042506959,-6.317455789107187,98.36065573770492,0.0
186,-14.468972761108148,-5.899658851821528,98.36065573770492,0.0
187,-13.728854041222483,-5.254379254579826,98.36065573770492,0.0
188,-12.858932523921688,-4.449717206815885,98.36065573770492,0.0
189,-11.944568884265498,-3.559778896351066,98.36065573770492,0.0
190,-11.056650798419847,-2.6555661309986425,98.36065573770492,0.0
191,-10.24580959889758,-1.7977729960532565,98.36065573770492,0.0
192,-9.54179284051971,-1.0322641523570784,98.36065573770492,0.0
193,-8.956760807865036,-0.38837615381434376,98.36065573770492,0.0
194,-8.490602080539203,0.12035984875972949,98.36065573770492,0.0
195,-8.136327639314162,0.4938214569830537,98.36065573770492,0.0
196,-7.884093526653567,0.7420792405074474,98.36065573770492,0.0
197,-7.723190692666044,0.8821104933628143,98.36065573770492,0.0
198,-7.642156739113205,0.934945417281254,98.36065573770492,0.0
199,-7.627768254428077,0.9234583140849102,98.36065573770492,0.0
200,-7.6639188032875145,0.870768871779876,98.36065573770492,0.0
201,-7.731257742834275,0.7990711480290302,98.36065573770492,0.0
202,-7.808056895936576,0.7286771336558401,98.36065573770492,0.0
203,-7.872255110115491,0.677126781370383,98.36065573770492,0.0
204,-7.9041852132827275,0.6583312697992029,98.36065573770492,0.0
205,-7.8892486484329725,0.6818283694138747,98.36065573770492,0.0
206,-7.8198223292587805,0.7522956097096867,98.36065573770492,0.0
207,-7.695922841212671,0.8694675215809076,98.36065573770492,0.0
208,-7.524513207813043,1.0285411869071068,98.36065573770492,0.0
209,-7.3176943499477325,1.221053324792786,98.36065573770492,0.0
210,-7.0902754008000395,1.4361060228626685,98.36065573770492,0.0
211,-6.857308488290143,1.661739651274916,98.36065573770492,0.0
212,-6.632101062793291,1.8862225967929065,98.36065573770492,0.0
213,-6.425024183604193,2.0990547615726367,98.36065573770492,0.0
214,-6.243189121409116,2.291556256255416,98.36065573770492,0.0
215,-6.090843426701554,2.457013987656006,98.36065573770492,0.0
216,-5.9701975834854855,2.5904616394204236,98.36065573770492,0.0
217,-5.882354530149277,2.6882493455678937,98.36065573770492,0.0
218,-5.828062423520663,2.747601327187894,98.36065573770492,0.0
219,-5.808113430558987,2.766355196858957,98.36065573770492,1.0
220,-5.823332237650213,2.7430269760114165,98.35710669756693,0.0
221,-5.874204879269183,2.6772600932714714,98.34658748794047,0.0
222,-5.9602657455784005,2.5706090466633906,98.32929207554675,0.0
223,-6.079377977402941,2.427496721524183,98.30541701287915,0.0
224,-6.227024612324534,2.2560882769246575,98.2751611738139,0.0
225,-6.395710628818533,2.068764631495862,98.23872549483106,0.0
226,-6.5745939959188755,1.8818746182578214,98.19631272234236,0.0
227,-6.7495241633243515,1.714512553398375,98.14812716658255,0.0
228,-6.903739201961062,1.5862141451572978,98.09437446248249,0.0
229,-7.019502551347889,1.513680601079824,98.03526133790054,0.0
230,-7.080886907726549,1.5069012742939911,97.97099538955273,0.0
231,-7.077690415608286,1.565301331222402,97.9017848669417,0.0
232,-7.010088346730891,1.6747289459466557,97.82783846454808,0.0
233,-6.893135182327655,1.8061488084049533,97.74936512251188,0.0
234,-6.759777975985828,1.9167719800048229,97.66657383599524,0.0
235,-6.6608360527084,1.9540077456912965,97.57967347338524,0.0
236,-6.660661768198014,1.86210347978832,97.48887260346126,0.0
237,-6.8280333942702445,1.5907321605288143,97.39437933162196,0.0
238,-7.22315063765815,1.1042273586000277,97.2964011452358,0.0
239,-7.883073516453597,0.38980192640426503,97.19514476815198,0.0
240,-8.8090590117948,-0.5369552316002786,97.09081602438174,0.0
241,-9.959489443650694,-1.6306698397031458,96.98361971093539,0.0
242,-11.251150606346817,-2.819537334202598,96.87375947977782,0.0
243,-12.569617036217954,-4.0132126813786115,96.76143772884286,0.0
244,-13.787002769777159,-5.1140817235383,96.64685550202864,0.0
245,-14.783182442069036,-6.030041225967335,96.53021239807711,0.0
246,-15.465555618069374,-6.686578657542004,96.4117064882253,0.0
247,-15.782883427509928,-7.0360766179055245,96.29153424250143,0.0
248,-15.730471916043609,-7.062838819782005,96.16989046452521,0.0
249,-15.346354220460784,-6.783203581109025,96.04696823466239,0.0
250,-14.700324484660081,-6.241067232861866,95.9229588613712,0.0
251,-13.879075233406253,-5.499963726275158,95.79805184057304,0.0
252,-12.971043290132153,-4.6333651709356145,95.67243482287083,0.0
253,-12.054002935673138,-3.714995381289733,95.54629358843437,0.0
254,-11.187295201289182,-2.8106993915663327,95.41981202936806,0.0
255,-10.409225817333839,-1.9728869273010612,95.2931721393731,0.0
256,-9.73892679019216,-1.2379189783678926,95.1665540105161,0.0
257,-9.18110747394676,-0.6261940041694585,95.04013583691446,0.0
258,-8.731775983068662,-0.1442424100686459,94.91409392515146,0.0
259,-8.383215815392942,0.21207493129983557,94.78860271123476,0.0
260,-8.127129080041078,0.4541424838374195,94.66383478391573,0.0
261,-7.955664514118627,0.5976073819559318,94.53996091419158,0.0
262,-7.8607663689168366,0.6601970199335171,94.41715009081595,0.0
263,-7.832709823989982,0.6603845823679296,94.29556956165095,0.0
264,-7.858757646401915,0.6167131532166024,94.17538488069938,0.0
265,-7.92263694572125,0.5474684110291208,94.05675996066385,0.0
266,-8.005132934527445,0.47038985970151526,93.93985713088709,0.0
267,-8.085687291940305,0.40220354642301026,93.82483720053754,0.0
268,-8.144595370375102,0.35789965078159036,93.71185952691309,0.0
269,-8.165276988344221,0.34981790677935676,93.60108208874627,0.0
270,-8.13614061787964,0.3867044735763564,93.49266156440514,0.0
271,-8.05171447953551,0.47294519240703214,93.38675341489522,0.0
272,-7.912909765392951,0.6081607206103463,93.28351197157997,0.0
273,-7.726454602513112,0.7872826386904275,93.18309052854927,0.0
274,-7.503664541575797,1.0011387540882495,93.08564143957925,0.0
275,-7.25879225576668,1.2374844314254139,92.99131621963923,0.0
276,-7.007230135451531,1.4823444171166233,92.90026565091647,0.0
277,-6.763826270828315,1.7214879075614455,92.81263989334322,0.0
278,-6.541518384274338,1.9418512907251833,92.72858859962655,0.0
279,-6.35040264892026,2.1327433542462555,92.64826103479616,0.0
280,-6.19725867309486,2.28670753506784,92.57180620030203,0.0
281,-6.085474384825064,2.399964661733859,92.49937296271074,0.0
282,-6.015270258770177,2.472409269214555,92.43111018706641,0.0
283,-5.984113146455326,2.5071783687664966,92.36716687500031,0.0
284,-5.9872321795211105,2.509852801216394,92.3076923076923,1.0
285,-6.018196048979831,2.487389559195974,92.25035280259388,0.0
286,-6.069564946060069,2.4469199734277174,92.19274031386647,0.0
287,-6.133659979186654,2.3945815860280693,92.13489274012744,0.0
288,-6.203467402014731,2.3345742387133956,92.07684779788255,0.0
289,-6.2736108676305795,2.268632224854733,92.01864302005501,0.0
290,-6.341216205317271,2.1960713917851677,91.96031575482745,0.0
291,-6.406413418235941,2.1144931008786076,91.90190316479354,0.0
292,-6.472212450901323,2.021105151540378,91.8434422264145,0.0
293,-6.543569839373714,1.9144659846337473,91.78496972977727,0.0
294,-6.625630026680986,1.7963008356626915,91.72652227865034,0.0
295,-6.721362856281224,1.6729175507957175,91.6681362908327,0.0
296,-6.82909187074315,1.555710537139813,91.60984799879326,0.0
297,-6.940646637243269,1.4603212824477894,91.55169345059521,0.0
298,-7.040978293680183,1.4042393363283379,91.49370851110316,0.0
299,-7.109957220031247,1.402962102654945,91.43592886346822,0.0
300,-7.1266761689375535,1.4652307326410092,91.37839001088737,0.0
301,-7.0759346486660295,1.588234927548759,91.32112727863402,0.0
302,-6.9557898036522765,1.7539262885420501,91.26417581635557,0.0
303,-6.7843228390736465,1.927601018608732,91.20757060063482,0.0
304,-6.603353561994337,2.0596496050810114,91.15134643781151,0.0
305,-6.477004766481483,2.090829240471494,91.09553796706096,0.0
306,-6.48392496460995,1.960677011534071,91.04017966372633,0.0
307,-6.70354513341789,1.617900693593978,90.98530584290147,0.0
308,-7.198617214469008,1.0309509305990054,90.9309506632615,0.0
309,-7.997886793155295,0.19667639766415257,90.87714813113793,0.0
310,-9.083471629872934,-0.8548875858167844,90.82393210483579,0.0
311,-10.386922677332862,-2.060931889701118,90.77133629919032,0.0
312,-11.796012034795643,-3.3318497540776555,90.7193942903602,0.0
313,-13.171499946501578,-4.562017916198134,90.66813952085579,0.0
314,-14.37034511064851,-5.6436199607394375,90.61760530479945,0.0
315,-15.26998091229479,-6.481105627261685,90.56782483341662,0.0
316,-15.788022835203302,-7.0037547075904305,90.51883118075534,0.0
317,-15.893169206692782,-7.1742333655439054,90.47065730963294,0.0
318,-15.605590708023163,-6.991882052839448,90.42333607780822,0.0
319,-14.987893721363289,-6.490541508750503,90.37690024437791,0.0
320,-14.129903448758146,-5.731749112657619,90.33138247639653,0.0
321,-13.131480527838404,-4.794894179956732,90.2868153557184,0.0
322,-12.087273771049796,-3.7662666240432783,90.24323138606161,0.0
323,-11.076054592016575,-2.7288425885499303,90.20066300029313,0.0
324,-10.155617031976519,-1.7542053829714248,90.15914256793506,0.0
325,-9.362685110233333,-0.8973558041498414,90.11870240289198,0.0
326,-8.716213811721722,-0.1945013453022697,90.07937477139951,0.0
327,-8.222070008603968,0.3366184120847182,90.04119190019479,0.0
328,-7.877315333055358,0.6946207854105102,90.00418598490944,0.0
329,-7.673006877535458,0.891399269182422,89.96838919868607,0.0
330,-7.5953017392892175,0.9487586540062055,89.93383370101947,0.0
331,-7.6253966547376155,0.89521226380725,89.90055164682408,0.0
332,-7.739230458252336,0.7631346901231303,89.86857519572955,0.0
333,-7.907847697336674,0.5862724880201513,89.83793652160621,0.0
334,-8.098947455706304,0.39752499955432263,89.80866782232314,0.0
335,-8.279611509233376,0.22691610893975633,89.78080132974135,0.0
336,-8.419731981173586,0.09975243383380283,89.75436931994473,0.0
337,-8.495394353671713,0.035056703283891544,89.72940412371244,0.0
338,-8.491471021440535,0.044432346616372964,89.70593813723629,0.0
339,-8.402902295228452,0.13152832668067327,89.6840038330865,0.0
340,-8.234484533606652,0.29222566365991254,89.66363377143084,0.0
341,-7.999330883220276,0.5155725988979889,89.64486061151115,0.0
342,-7.7164215180038065,0.7853802190181438,89.62771712338248,0.0
343,-7.407765271174866,1.082283945257961,89.61223619992018,0.0
344,-7.095654627985395,1.3860026764318554,89.59845086910036,0.0
345,-6.800356733400889,1.677500400451709,89.58639430656044,0.0
346,-6.5384120035325415,1.940777314048955,89.57609984844535,0.0
347,-6.3215720770473105,2.1640822184456736,89.56760100454741,0.0
348,-6.156335534223156,2.3404327192458307,89.5609314717462,0.0
349,-6.044029886051761,2.4674395520597567,89.55612514775713,0.0
350,-5.981406017314926,2.5465406768833723,89.55321614519616,0.0
351,-5.961709342298613,2.581844394838683,89.55223880597015,1.0
352,-5.976139475449608,2.5788439614623777,89.55533593480827,0.0
353,-6.015512469010972,2.543285768414553,89.5645156736734,0.0
354,-6.071837768666899,2.4804395450230015,89.579612307081,0.0
355,-6.1394712801981095,2.394929629378618,89.60046228332527,0.0
356,-6.21554544335503,2.291149243037156,89.6269039993318,0.0
357,-6.299511537881539,2.1741158051307887,89.65877759328733,0.0
358,-6.391833006334879,2.050467746624901,89.69592474466081,0.0
359,-6.492102969865992,1.9291927415081207,89.73818848126464,0.0
360,-6.597083796427964,1.8216536720799963,89.78541299303556,0.0
361,-6.699334071285438,1.74057014018639,89.83744345224623,0.0
362,-6.787135447598612,1.697825162270679,89.89412583988629,0.0
363,-6.846287836668544,1.7012730500918538,89.95530677797912,0.0
364,-6.863959827210113,1.751066870711198,90.0208333676269,0.0
365,-6.834180836016092,1.8363184153296581,90.09055303260055,0.0
366,-6.763853472496041,1.9330580292710935,90.16431336831559,0.0
367,-6.677551879065819,2.004399666853903,90.24196199605733,0.0
368,-6.6191121657222505,2.0035039289375463,90.3233464223402,0.0
369,-6.648348888985054,1.8793965499511565,90.40831390330756,0.0
370,-6.832246266479973,1.5850377134648777,90.49671131409782,0.0
371,-7.231532544544663,1.08639863945019,90.58838502312223,0.0
372,-7.885233309558898,0.3708565021704673,90.68318077121835,0.0
373,-8.797016748419125,-0.5468886024242334,90.78094355566105,0.0
374,-9.92733265084597,-1.6228677520632728,90.88151751903011,0.0
375,-11.194250398087856,-2.7866778720169902,90.98474584295,0.0
376,-12.483734805196992,-3.9489777070960637,91.09047064673392,0.0
377,-13.667519842512407,-5.01256277180445,91.19853289097884,0.0
378,-14.624604212336742,-5.885171615255961,91.30877228617402,0.0
379,-15.261407104354236,-6.491796957484814,91.42102720639862,0.0
380,-15.526074427875326,-6.784375505986225,91.53513460819887,0.0
381,-15.414107450146938,-6.747280003685311,91.65092995474681,0.0
382,-14.964818083998734,-6.397894742792835,91.76824714539671,0.0
383,-14.250376099396181,-5.782509693033654,91.88691845076517,0.0
384,-13.360769138387205,-4.968596564611088,92.00677445347331,0.0
385,-12.388477797568074,-4.03505948099481,92.12764399469913,0.0
386,-11.416065101891418,-3.062200302343359,92.24935412669753,0.0
387,-10.50852008537332,-2.122923018685299,92.37173007145498,0.0
388,-9.71060321249638,-1.2762268253960867,92.49459518565257,0.0
389,-9.048131789258969,-0.5634533144350725,92.61777093211951,0.0
390,-8.531448220526684,-0.007209155054877403,92.74107685796422,0.0
391,-8.159310741245354,0.38750845904969555,92.86433057957557,0.0
392,-7.921987942978871,0.6306520340918569,92.98734777469134,0.0
393,-7.803138661835704,0.7436089183361329,93.10994218173296,0.0
394,-7.780796056006471,0.7553943373575248,93.23192560660823,0.0
395,-7.828194410323668,0.6989469229672829,93.35310793718392,0.0
396,-7.91517115973067,0.6077662014717431,93.47329716562908,0.0
397,-8.010510710053568,0.513027345508048,93.59229941882816,0.0
398,-8.08506994130395,0.441260453311358,93.70991899705962,0.0
399,-8.115077350946985,0.4126695091395648,93.82595842112973,0.0
400,-8.084807855697782,0.44015915790191085,93.94021848814599,0.0
401,-7.987958361686628,0.5291095819079497,94.05249833610512,0.0
402,-7.827412445614106,0.6778808133140253,94.16259551746141,0.0
403,-7.613533288318446,0.8789458605504297,94.27030608182952,0.0
404,-7.361499756132562,1.1204686867157885,94.37542466796198,0.0
405,-7.088387178845803,1.388083929778789,94.47774460512697,0.0
406,-6.810655408171062,1.6666198060339839,94.57705802399465,0.0
407,-6.542481847001188,1.9415405013873355,94.67315597712124,0.0
408,-6.295060183518471,2.1999616005833404,94.76582856909958,0.0
409,-6.076690509660253,2.4311926386796254,94.85486509642175,0.0
410,-5.893308037323659,2.6268609149317035,94.94005419707497,0.0
411,-5.749077762689664,2.78074875548378,95.02118400986542,0.0
412,-5.646797548475897,2.88851810632135,95.09804234343605,0.0
413,-5.588028581240879,2.9474963373361627,95.17041685491459,0.0
414,-5.573023873343775,2.9566580334434507,95.23809523809524,1.0
415,-5.6005923611428905,2.9168673327351495,95.30368881694767,0.0
416,-5.668005062820312,2.8313551419631837,95.36991556808142,0.0
417,-5.770954363433674,2.706308593256808,95.43672310260041,0.0
418,-5.903483925669047,2.5513622998585763,95.50405875016222,0.0
419,-6.057788361801743,2.37972147104269,95.57186955225166,0.0
420,-6.2238838524030555,2.207637204415742,95.64010225601521,0.0
421,-6.389355497900902,2.053014068358238,95.7087033086629,0.0
422,-6.539603328582138,1.9330704329409145,95.77761885244756,0.0
423,-6.659105105648662,1.861186639656929,95.84679472022901,0.0
424,-6.734081212994187,1.8433348820798852,95.91617643163264,0.0
425,-6.756554663468126,1.8747327937790956,95.98570918981127,0.0
426,-6.729217963477562,1.937528553578867,96.05533787882,0.0
427,-6.669907701121655,2.000337038033415,96.12500706161273,0.0
428,-6.61406397867767,2.0202547491040126,96.19466097867124,0.0
429,-6.613540790792843,1.9475808956936569,96.26424354727509,0.0
430,-6.730694812264767,1.732916288031701,96.3336983614237,0.0
431,-7.027813700675485,1.3357105965500624,96.40296869241907,0.0
432,-7.553421952221462,0.7328288878222728,96.47199749012024,0.0
433,-8.328378806460663,-0.07454213306367818,96.54072738487831,0.0
434,-9.335426639519907,-1.0572240219677436,96.60910069016283,0.0
435,-10.515548159438316,-2.158705941129234,96.67705940588839,0.0
436,-11.773060365650739,-3.300439816894513,96.74454522245178,0.0
437,-12.9891480855285,-4.3911503099498335,96.81149952548861,0.0
438,-14.041195700664392,-5.338686357476508,96.87786340135895,0.0
439,-14.823584950818864,-6.06237417446526,96.94357764337103,0.0
440,-15.265159118732216,-6.503695991964885,97.00858275875154,0.0
441,-15.339460936852856,-6.633453418980462,97.07281897637102,0.0
442,-15.065824437314724,-6.454298865473691,97.13622625523277,0.0
443,-14.501799139284447,-5.998455598020015,97.19874429373219,0.0
444,-13.729468804360332,-5.321371873078835,97.26031253969472,0.0
445,-12.839409992140217,-4.492756318020725,97.32087020119829,0.0
446,-11.916072458386168,-3.5867779388309575,97.3803562581872,0.0
447,-11.027401846606377,-2.6731430979368183,97.43870947488242,0.0
448,-10.219999754752621,-1.8103445237056024,97.49586841299394,0.0
449,-9.5195464066224,-1.0417517576662232,97.55177144573923,0.0
450,-8.935016053151422,-0.3945495053159743,97.60635677267145,0.0
451,-8.464623112076897,0.11901293594266416,97.65956243532042,0.0
452,-8.101482584506481,0.49891660387458237,97.71132633364863,0.0
453,-7.837529884250893,0.7541275831754308,97.76158624332307,0.0
454,-7.665092904681929,0.8995636158649267,97.8102798338039,0.0
455,-7.576366383752263,0.9537230117249855,97.857344687249,0.0
456,-7.561660619566738,0.9370910764865219,97.90271831823273,0.0
457,-7.607541679640673,0.8711651997941379,97.94633819427706,0.0
458,-7.6958416495108,0.7777880687067618,97.98814175719058,0.0
459,-7.804103258123393,0.678466645197961,98.02806644521128,0.0
460,-7.907500741677822,0.5934588900812078,98.06604971594705,0.0
461,-7.981813033282347,0.5405790716860427,98.10202907010675,0.0
462,-8.006734224157277,0.5338446178681358,98.1359420760137,0.0
463,-7.968740552032114,0.5822099350830369,98.16772639489191,0.0
464,-7.862878105259756,0.6886736483378391,98.19731980691445,0.0
465,-7.6931262418364765,0.8499998856671527,98.2246602380013,0.0
466,-7.471336300110373,1.0571800133767688,98.24968578735368,0.0
467,-7.215049415539359,1.2966128006748785,98.27233475570957,0.0
468,-6.944690312796769,1.55183739041277,98.2925456743038,0.0
469,-6.6806863798273,1.8055483021566783,98.3102573345158,0.0
470,-6.440987865976258,2.041576001330541,98.32540881818426,0.0
471,-6.2393103105179435,2.246535783164403,98.33793952856958,0.0
472,-6.084236600752435,2.410922922191479,98.34778922194009,0.0
473,-5.979146825778372,2.5295440712884436,98.35489803975976,0.0
474,-5.922818677599618,2.6012997942401315,98.35920654145077,0.0
475,-5.91047452963537,2.628447265344366,98.36065573770492,1.0
476,-5.9350425550674135,2.6155561295932186,98.34368696092996,0.0
477,-5.988431248311233,2.5684111644309047,98.29332739054715,0.0
478,-6.062663216281751,2.493106617972967,98.21044572762409,0.0
479,-6.150753153205779,2.3955197517017988,98.09597088216577,0.0
480,-6.247239581876733,2.281252723336757,97.95088619229844,0.0
481,-6.348298604780435,2.1560066818823023,97.77622356316895,0.0
482,-6.45139766092556,2.0262204925364964,97.57305757928592,0.0
483,-6.554508304827999,1.8996951065105243,97.3424996411632,0.0
484,-6.65500640684209,1.7858623317806912,97.08569217372971,0.0
485,-6.748545936888218,1.6953704367667473,96.80380295014666,0.0
486,-6.828361739357746,1.6387656888806132,96.49801957052205,0.0
487,-6.88555577116492,1.6242475895199502,96.16954413063172,0.0
488,-6.910847357940387,1.6547405410253426,95.81958811124288,0.0
489,-6.897949871726161,1.7248040317320266,95.44936751407393,0.0
490,-6.848188060947989,1.818125195549438,95.06009826589946,0.0
491,-6.775316665425248,1.9064248132067416,94.65299190788744,0.0
492,-6.708959883013407,1.950500115818568,94.22925158300409,0.0
493,-6.69491768738149,1.9038043237898794,93.79006833028886,0.0
494,-6.790983462279422,1.7184591208091744,93.33661769103254,0.0
495,-7.0579390115427145,1.3530067804936583,92.87005662841533,0.0
496,-7.546853253235469,0.7806718045846466,92.39152075900505,0.0
497,-8.285284864806085,-0.0034327016801866117,91.90212189168956,0.0
498,-9.265924927861153,-0.9777326678140623,91.40294586713131,0.0
499,-10.441148970316087,-2.0934792337097736,90.89505068868277,0.0
500,-11.725730662075149,-3.2784421596838507,90.3794649338858,0.0
501,-13.007891178212084,-4.444699334349537,89.85718643418025,0.0
502,-14.166573025272697,-5.499364543399154,89.32918120925562,0.0
503,-15.09109967685989,-6.356466944210211,88.79638264157174,0.0
504,-15.698773680430072,-6.94794075420117,88.25969087593164,0.0
505,-15.946621273632507,-7.231865367725454,87.71997242858694,0.0
506,-15.835128659199759,-7.196667166690762,87.17805999017008,0.0
507,-15.403882465890442,-6.860811663199159,86.63475240675473,0.0
508,-14.720919173520329,-6.2683805003702595,86.09081482352002,0.0
509,-13.868822108686523,-5.481643937192716,85.54697897581444,0.0
510,-12.930927133042708,-4.57215822569095,85.00394361285741,0.0
511,-11.98043143613783,-3.611975908881393,84.46237503985931,0.0
512,-11.074013978887725,-2.6662857621026403,83.92290776496624,0.0
513,-10.250183668077183,-1.7883039534799274,83.38614523812335,0.0
514,-9.53137872410261,-1.0166652811738417,82.85266066968539,0.0
515,-8.928127384565435,-0.3750571021689132,82.3229979173701,0.0
516,-8.443451077521907,0.12649618698199294,81.7976724309359,0.0
517,-8.076090123083135,0.4894093377485995,81.27717224475805,0.0
518,-7.821877675220479,0.7240069565757428,80.76195900926953,0.0
519,-7.673420701300562,0.847116342728111,80.25246905301205,0.0
520,-7.618897095333342,0.879964512557712,79.74911446780614,0.0
521,-7.6410491527640225,0.846359220933012,79.25228421028905,0.0
522,-7.717291647512193,0.7710277424801524,78.76234521378075,0.0
523,-7.821359859090593,0.6779896481321322,78.2796435051198,0.0
524,-7.926307742582726,0.5889254418185068,77.80450532175868,0.0
525,-8.00815693416772,0.5216225676921427,77.33723822502027,0.0
526,-8.049256916101582,0.4886802665869998,76.8781322059947,0.0
527,-8.040497263715107,0.4966946777356497,76.42746078109589,0.0
528,-7.981854864737854,0.5461095576921602,75.98548207480242,0.0
529,-7.88122806598261,0.6318165496059799,75.5524398875766,0.0
530,-7.751949426515545,0.7444524703984051,75.128564747392,0.0
531,-7.6096501272473365,0.8722081027660635,74.71407494370277,0.0
532,-7.4692066921568605,1.0028676542180088,74.30917754306014,0.0
533,-7.342349446630552,1.1257610165956666,73.91406938592584,0.0
534,-7.236237144943714,1.2333357321673684,73.52893806454738,0.0
535,-7.153019390483779,1.3221306074053254,73.15396288205322,0.0
536,-7.090211928459246,1.3930376255107007,72.78931579319345,0.0
537,-7.041634669664406,1.45085071528474,72.43516232740129,0.0
538,-6.998683853080509,1.5032004343054859,72.09166249508012,0.0
539,-6.951773995731338,1.5590508907677352,71.75897167823675,0.0
540,-6.891842184155418,1.626984147452098,71.43724150678136,0.0
541,-6.811827240167086,1.713517511110394,71.12662072200595,0.0
542,-6.708011932326322,1.8216923038348465,70.82725602893294,0.0
543,-6.581062091990378,1.950141217822285,70.53929293940169,0.0
544,-6.436547953849523,2.092787585910075,70.26287660792991,0.0
545,-6.284737045650147,2.2392572227362826,69.99815266255638,0.0
546,-6.139537547688052,2.3759973898992923,69.74526803304039,0.0
547,-6.016640458471201,2.488006072674877,69.50437177896539,0.0
548,-5.931109813732242,2.560988294739614,69.27561592047242,0.0
549,-5.894833460882976,2.5836850267220495,69.05915627453453,0.0
550,-5.914312485348214,2.550072835783713,68.8551532998802,0.0
551,-5.9892056380904695,2.4611139600332077,68.6637729538842,0.0
552,-6.111867525075458,2.3257490564777656,68.48518756497171,0.0
553,-6.267883443037753,2.160869187243227,68.31957672432829,0.0
554,-6.437404084946081,1.990081311273748,68.16712820098022,0.0
555,-6.5970136245241475,1.8411962630479253,68.02803888460696,0.0
556,-6.721959919535389,1.7425237638312474,67.90251576077864,0.0
557,-6.788773758516653,1.7182542644042849,67.79077692367791,0.0
558,-6.778464313332062,1.7834288544597474,67.69305263177438,0.0
559,-6.6804500763375945,1.9392139723792554,67.60958641237545,0.0
560,-6.497088118587377,2.169355470704537,67.54063622148995,0.0
561,-6.248137078346113,2.4387230156613615,67.48647566601112,0.0
562,-5.973894071293607,2.6947120541187997,67.44739529587149,0.0
563,-5.735344163363865,2.871915802777109,67.4237039745439,0.0
564,-5.6097444898913436,2.8999328498220565,67.41573033707866,1.0
565,-5.680836568990709,2.713517607256475,67.46441044125736,0.0
566,-6.0243134370009,2.2636471822667743,67.60793063593249,0.0
567,-6.6909193236396085,1.5276339118062685,67.84305973874558,0.0
568,-7.691018763545079,0.5163071916125445,68.16722245654597,0.0
569,-8.98497676172631,-0.723393299981101,68.57841676988444,0.0
570,-10.482827557516812,-2.1113442558555433,69.0751435227982,0.0
571,-12.054552604490066,-3.542609743065526,69.65634546693575,0.0
572,-13.549448996435297,-4.90011061172381,70.32135347287164,0.0
573,-14.820487233553285,-6.069563579968242,71.06983796076945,0.0
574,-15.748124843915049,-6.954182975576344,71.90176384528134,0.0
575,-16.258239773401804,-7.486684395615615,72.81734745614744,0.0
576,-16.330563203552128,-7.636688415063687,73.81701400153831,0.0
577,-15.996603953128961,-7.412553474575727,74.90135419730474,0.0
578,-15.328705242231138,-6.857742280149468,76.07107870111363,0.0
579,-14.423778267442437,-6.042794789029667,77.32696897374701,0.0
580,-13.385958403055648,-5.054637397488559,78.66982314793538,0.0
581,-12.311901326158273,-3.985191628574419,80.10039542565578,0.0
582,-11.281031545690865,-2.9210601258585855,81.61932745674174,0.0
583,-10.351335535814192,-1.9355668463103535,83.22707008594574,0.0
584,-9.559803677208405,-1.083775848409934,84.92379380642654,0.0
585,-8.925733711182415,-0.4004818206516123,86.70928624341116,0.0
586,-8.45492924865233,0.09930886579325215,88.5828350363218,0.0
587,-8.143256019139127,0.41813571989984255,90.54309462138413,0.0
588,-7.978806533032326,0.5728335569219242,92.58793567767509,0.0
589,-7.9427628213011285,0.5908872141916122,94.7142764340313,0.0
590,-8.009659284308679,0.5067900904953415,96.91789569666817,0.0
591,-8.14796379423538,0.3586015461853981,99.1932284089406,0.0
592,-8.321697642886267,0.18476536432565283,101.53314585990822,0.0
593,-8.493330455288179,0.021209325901656806,103.92872437874193,0.0
594,-8.627626964013208,-0.1012225227258432,106.36900853578464,0.0
595,-8.695701156070891,-0.15888889461270506,108.84077753820972,0.0
596,-8.678386387923574,-0.13685433018775706,111.32832662987825,0.0
597,-8.568179568438769,-0.029605664549015698,113.8132787778983,0.0
598,-8.369381277937022,0.15913139559477074,116.27444554581147,0.0
599,-8.096493205938668,0.4174811364363775,118.68775947684043,0.0
600,-7.771311715254089,0.7272870725590301,121.02630304986285,0.0
601,-7.419376792540067,1.066517038467124,123.26046068188566,0.0
602,-7.066465833871119,1.4118809981791705,125.35821956707105,0.0
603,-6.735687422727325,1.7413179117560724,127.28564155106196,0.0
604,-6.445498536284079,2.036047404054568,129.0075210145996,0.0
605,-6.208720475063915,2.281969473507426,130.48823243158225,0.0
606,-6.032430807988002,2.4703106768597918,131.69275592292234,0.0
607,-5.918495089013229,2.597535483454546,132.58785051511012,0.0
608,-5.8644746131158865,2.664647202468591,133.14332455776568,0.0
609,-5.864685146923096,2.6760804866327508,133.33333333333334,1.0
610,-5.911256615156544,2.6384298236597274,133.29415163073764,0.0
611,-5.995121518663813,2.5592635786743685,133.17831385580706,0.0
612,-6.1069081842892565,2.4462419113084284,132.9885664656481,0.0
613,-6.237714507947479,2.3066916521317014,132.72787918459082,0.0
614,-6.379695511876701,2.147696082692766,132.39941450794217,0.0
615,-6.526348028796838,1.9766401366042805,132.00649703562442,0.0
616,-6.6723639948725,1.8020255197523827,131.55258308434117,0.0
617,-6.812985474223919,1.6342571233505288,131.04123098545998,0.0
618,-6.9429392895992335,1.4860302641307785,130.47607242856253,0.0
619,-7.055235479992312,1.371948335633441,129.86078515957922,0.0
620,-7.140326760726431,1.3070967716330826,129.19906728948476,0.0
621,-7.1862584740842985,1.3044994216330632,128.49461341640907,0.0
622,-7.180388216776944,1.371668885130751,127.75109271222438,0.0
623,-7.112946202098257,1.5067836894050712,126.97212907546628,0.0
624,-6.982143882976519,1.6953064187219504,126.16128340684358,0.0
625,-6.7998310660067585,1.9080096094412597,125.32203802233003,0.0
626,-6.596062676017162,2.101322534503072,124.4577831824115,0.0
627,-6.420627013577828,2.2206110248052378,123.5718056847522,0.0
628,-6.3398383390024655,2.2064724678094523,122.66727944141606,0.0
629,-6.427812769780084,2.0034557337492163,121.74725794073329,0.0
630,-6.752920752624872,1.5699460842809803,120.81466847770413,0.0
631,-7.361785451083029,0.8874612318120835,119.87230802514046,0.0
632,-8.264527259198058,-0.03255741304364601,118.92284061014996,0.0
633,-9.42537561346838,-1.1461139286156807,117.96879605660617,0.0
634,-10.761939881749667,-2.3791705135250236,117.01256995343779,0.0
635,-12.15443591534839,-3.635322565774535,116.05642471043151,0.0
636,-13.463551644520466,-4.807608734459482,115.1024915672982,0.0
637,-14.553238201885586,-5.792545313097584,114.15277342756352,0.0
638,-15.31332696470945,-6.503971494562496,113.20914839599806,0.0
639,-15.676934543705084,-6.884297256101072,112.27337390643015,0.0
640,-15.62905558717688,-6.911261366099235,111.34709133556433,0.0
641,-15.205050581085027,-6.5992093818594295,110.43183100757551,0.0
642,-14.480197620363834,-5.9949750717240216,109.52901750352935,0.0
643,-13.553419989968734,-5.169445121479938,108.63997519889968,0.0
644,-12.529271276858044,-4.206590173186618,107.76593396145294,0.0
645,-11.50210813000788,-3.192023922157002,106.9080349504343,0.0
646,-10.545274587279657,-2.202986047140903,106.06733646622443,0.0
647,-9.706477147294482,-1.3011200957886258,105.24481980738402,0.0
648,-9.008868714227772,-0.5286937595284611,104.44139509922131,0.0
649,-8.456133777260474,0.09182830358412564,103.65790706469389,0.0
650,-8.03932476229063,0.5555374698619711,102.89514071458206,0.0
651,-7.7433484828499415,0.8711754616434635,102.15382693946329,0.0
652,-7.551660545982646,1.0566441959081856,101.4346479910948,0.0
653,-7.4486135704822765,1.1348287004562871,100.73824284540457,0.0
654,-7.419733375468586,1.1303085396637371,100.0652124434382,0.0
655,-7.450745635360286,1.0671718597322315,99.41612481034706,0.0
656,-7.526342361306936,0.9678383024262612,98.79152005588003,0.0
657,-7.629492559872868,0.8526015024338903,98.19191526289872,0.0
658,-7.741697421688178,0.7395361993903428,97.61780927322454,0.0
659,-7.844146384870353,0.6444603489808494,97.06968738269173,0.0
660,-7.919404693725348,0.5807573995927109,96.54802595967138,0.0
661,-7.953140493667818,0.5590001547772155,96.05329700359887,0.0
662,-7.935472693744965,0.5864350981662103,95.58597266222706,0.0
663,-7.861711602537688,0.6664603252798262,95.14652972849274,0.0
664,-7.73247139429909,0.7982542870832048,94.73545414007447,0.0
665,-7.553278485286744,0.9766929979109675,94.35324550698947,0.0
666,-7.333850605614112,1.1926441211022973,94.00042169498197,0.0
667,-7.087189632997825,1.433662659658044,93.6775234950536,0.0
668,-6.828557636884704,1.6850475323335872,93.38511941234569,0.0
669,-6.574339864911504,1.9311600600302647,93.1238106107685,0.0
670,-6.340780044213283,2.156860394932365,92.8942360533706,0.0
671,-6.142614435882479,2.3488909537935467,92.69707788253164,0.0
672,-5.991710190520701,2.4970313872005874,92.53306708875527,0.0
673,-5.8958881204958065,2.5948712533074563,92.4029895222434,0.0
674,-5.858140489510654,2.640095769528214,92.3076923076923,1.0
675,-5.876423307650921,2.6342537193565154,92.23130151909224,0.0
676,-5.944116455664663,2.5820656469752334,92.15729938986311,0.0
677,-6.0511238277288495,2.490419545978771,92.08561788454381,0.0
678,-6.185453912682293,2.3672707229482444,92.01618969495468,0.0
679,-6.335005656267293,2.2206923385886568,91.9489482074106,0.0
680,-6.489213123723759,2.058297954334053,91.8838274711516,0.0
681,-6.6401976708754775,1.8871719292815734,91.82076216795505,0.0
682,-6.783147147280999,1.7143065522241925,91.75968758289461,0.0
683,-6.915784714642936,1.5473808192909044,91.70053957621435,0.0
684,-7.036994943550433,1.3955626335366462,91.6432545562872,0.0
685,-7.144922821857857,1.2699187053999417,91.58776945362901,0.0
686,-7.235109991342476,1.1830161191796298,91.5340216959413,0.0
687,-7.299406568526529,1.1474224040187577,91.48194918415734,0.0
688,-7.326402312392428,1.1730558965438451,91.43149026946716,0.0
689,-7.303883766669701,1.2636697423978234,91.3825837312993,0.0
690,-7.223331424229542,1.4131018633362102,91.33516875623803,0.0
691,-7.0857935800048,1.602197392467466,91.28918491785595,0.0
692,-6.90776548761647,1.7974146582700394,91.24457215744329,0.0
693,-6.7251827287238,1.9519900789679174,91.2012707656165,0.0
694,-6.593548363852446,2.010140976620303,91.15922136478935,0.0
695,-6.582743611926654,1.914175891754911,91.11836489249143,0.0
696,-6.766256665125158,1.6136759857807927,91.07864258551908,0.0
697,-7.20620104342355,1.0752743632648654,91.03999596490578,0.0
698,-7.937134851097828,0.2911690281069028,91.00236682169886,0.0
699,-8.952747777659056,-0.715502456710478,90.96569720353061,0.0
700,-10.199438414597653,-1.8898690569855092,90.92992940197331,0.0
701,-11.57945900815585,-3.149746144373483,90.89500594066674,0.0
702,-12.963926285675775,-4.394877151779705,90.86086956420947,0.0
703,-14.213289090222112,-5.519599012056709,90.82746322780416,0.0
704,-15.200700698074701,-6.426790587235767,90.79473008764866,0.0
705,-15.832896850749721,-7.040669581534527,90.76261349206486,0.0
706,-16.063906126453833,-7.3162334029033,90.73105697335775,0.0
707,-15.898946181757355,-7.243835005372549,90.70000424039793,0.0
708,-15.388495703937235,-6.848372293245968,90.66939917192039,0.0
709,-14.614934989818826,-6.18360998416099,90.63918581053433,0.0
710,-13.675625835052498,-5.323007548647244,90.60930835743689,0.0
711,-12.666538266860638,-4.348920694361759,90.57971116782628,0.0
712,-11.669655385540391,-3.3421046266009267,90.55033874700848,0.0
713,-10.74585380712764,-2.373113890907125,90.52113574719237,0.0
714,-9.93332278112887,-1.4965931934257137,90.49204696496868,0.0
715,-9.250300096586958,-0.7487581814438156,90.4630173394676,0.0
716,-8.700211176308052,-0.1477421113858426,90.43399195119109,0.0
717,-8.277240628731551,0.3039445090105226,90.40491602151445,0.0
718,-7.97082893589327,0.615775082396854,90.37573491285329,0.0
719,-7.76835159172103,0.8052710014448397,90.34639412949134,0.0
720,-7.656035753031894,0.894434057468461,90.31683931906436,0.0
721,-7.6187559869565,0.9069226338433418,90.28701627469559,0.0
722,-7.639578010562048,0.8660711036150524,90.25687093777864,0.0
723,-7.699777153899348,0.793650474232451,90.22634940140209,0.0
724,-7.779664676195451,0.7091661073800005,90.19539791441179,0.0
725,-7.8601007236999685,0.6294763018837793,90.16396288610534,0.0
726,-7.924243455428098,0.5685631389017286,90.13199089155344,0.0
727,-7.958992212067782,0.5373576788823022,90.0994286775427,0.0
728,-7.955733413713003,0.5435859943986981,90.06622316913396,0.0
729,-7.910298252710516,0.5916455075138176,90.03232147683015,0.0
730,-7.8223466975731855,0.6825416820428636,89.99767090434693,0.0
731,-7.694568253713949,0.8139209020598279,89.96221895697992,0.0
732,-7.532066431790564,0.9802351590479386,89.92591335056046,0.0
733,-7.342094730977269,1.1730723603792768,89.88870202099302,0.0
734,-7.134043859805929,1.3816809792214018,89.85053313436589,0.0
735,-6.919381487345378,1.593704050068479,89.81135509762666,0.0
736,-6.711217113373264,1.796110820063379,89.77111656981363,0.0
737,-6.523315459460851,1.9762755058289923,89.72976647383328,0.0
738,-6.368630995890695,2.123109065923351,89.68725400877442,0.0
739,-6.257661688985632,2.2281139539288057,89.64352866274767,0.0
740,-6.197023929661469,2.286216194433252,89.59854022623969,0.0
741,-6.1886004960603485,2.2962422477842126,89.55223880597015,1.0
742,-6.229444176878086,2.2609509695344823,89.50419107862034,0.0
743,-6.312407304948881,2.1865966337201175,89.45405658570058,0.0
744,-6.427293954186717,2.0820749041363245,89.40192491199234,0.0
745,-6.562252457027049,1.957775159902243,89.34788552429609,0.0
746,-6.705148409383901,1.8243164886616798,89.29202773367166,0.0
747,-6.844742676705803,1.691371393747438,89.2344406595107,0.0
748,-6.971587023217054,1.5667756006077322,89.17521319544365,0.0
749,-7.078603398578645,1.456083037892439,89.1144339770816,0.0
750,-7.161330733635213,1.362654310649606,89.05219135159034,0.0
751,-7.217828014214613,1.2882705264629482,88.9885733490909,0.0
752,-7.2482339120893755,1.2341523151979261,88.92366765587954,0.0
753,-7.2540071467055105,1.2021518626912429,88.85756158945654,0.0
754,-7.236911227533648,1.1957949949490028,88.79034207535224,0.0
755,-7.197873672168433,1.220806071146455,88.72209562573605,0.0
756,-7.135953515496472,1.2847756912345982,88.65290831979247,0.0
757,-7.047777221724735,1.3957478486302697,88.58286578584735,0.0
758,-6.927897292821392,1.559711387385249,88.51205318522456,0.0
759,-6.770506187112515,1.7772593968175432,88.44055519781355,0.0
760,-6.572720821971511,2.03998150263555,88.36845600932621,0.0
761,-6.33920542440528,2.3274065627066687,88.29583930022025,0.0
762,-6.087274078383978,2.605435113240932,88.22278823626652,0.0
763,-5.850974128243455,2.827120566982029,88.14938546073529,0.0
764,-5.682266005273025,2.936339741280637,88.07571308817771,0.0
765,-5.64757746761444,2.874358161705569,88.00185269977659,0.0
766,-5.818897717318092,2.5886318986802825,87.92788534024157,0.0
767,-6.260106029953431,2.042540710958777,87.85389151622253,0.0
768,-7.011000912727827,1.2242886655938932,87.77995119621569,0.0
769,-8.072885580792178,0.1530901300975127,87.70614381193663,0.0
770,-9.3999509273619,-1.118935612610466,87.6325482611344,0.0
771,-10.899731680402324,-2.5100296529569865,87.55924291182151,0.0
772,-12.443728053717965,-3.9171085345609766,87.4863056078946,0.0
773,-13.886514216536002,-5.227987643921987,87.41381367612112,0.0
774,-15.089213801825801,-6.335534855906943,87.34184393446861,0.0
775,-15.941952963427125,-7.151343521674503,87.27047270175198,0.0
776,-16.38022537099972,-7.6165950833966205,87.19977580857731,0.0
777,-16.3918687009758,-7.708356647528457,87.12982860955988,0.0
778,-16.013923126222455,-7.440483352605602,87.06070599679538,0.0
779,-15.321170392098857,-6.859342973710125,86.99248241456463,0.0
780,-14.409894594468161,-6.035506549453991,86.92523187525317,0.0
781,-13.380967989417014,-5.053156821729814,86.85902797646749,0.0
782,-12.325781908855394,-3.999153408494795,86.79394391933229,0.0
783,-11.317187049081086,-2.9534689749019876,86.73005252795305,0.0
784,-10.405993297259037,-1.9821800915119447,86.66742627003059,0.0
785,-9.622171741801354,-1.133523701704326,86.6061372786153,0.0
786,-8.979008385436966,-0.4368876078888051,86.54625737499018,0.0
787,-8.478204522240196,0.09587232555240188,86.48785809267406,0.0
788,-8.114254372074274,0.46763246464053565,86.43101070253691,0.0
789,-7.877163106596871,0.6925613639007371,86.37578623902237,0.0
790,-7.753415549363378,0.7926994540945524,86.32225552747298,0.0
791,-7.725785464071206,0.7949479005989099,86.27048921255636,0.0
792,-7.77289951478555,0.7285905641227974,86.22055778779254,0.0
793,-7.869399078920961,0.6232826724957332,86.17253162618408,0.0
794,-7.98717660933176,0.5073568334299952,86.12648101195337,0.0
795,-8.097679681959969,0.40631463101708,86.08247617339298,0.0
796,-8.174855919030357,0.34145481933536803,86.04058731683814,0.0
797,-8.198078943267634,0.32868936147250716,86.0008846617717,0.0
798,-8.154390937529143,0.37767300411946103,85.96343847707485,0.0
799,-8.039588722832988,0.491393986260941,85.92831911843967,0.0
800,-7.857985872963104,0.6663374913911946,85.89559706696146,0.0
801,-7.621002031107634,0.8932532227294017,85.86534296893184,0.0
802,-7.34497020284526,1.1584592372772673,85.83762767685675,0.0
803,-7.048655907664076,1.4455233870504438,85.8125222917254,0.0
804,-6.75094151331369,1.737103042411189,85.79009820656039,0.0
805,-6.468984855637273,2.0167044169228445,85.7704271512809,0.0
806,-6.216978787576988,2.2701449320188387,85.75358123891607,0.0
807,-6.005480872380149,2.4865574178798324,85.73963301320649,0.0
808,-5.841191510858174,2.658851109964277,85.72865549763746,0.0
809,-5.727046474730866,2.7836285963269254,85.72072224595038,0.0
810,-5.662538885846404,2.860639196531534,85.71590739418193,0.0
811,-5.644254433807361,2.891918878172283,85.71428571428572,1.0
812,-5.666640241000836,2.880816832148606,85.72069641716558,0.0
813,-5.722996095148481,2.8311310422411844,85.7396598832674,0.0
814,-5.8065803902647914,2.7465612163581503,85.77078088364003,0.0
815,-5.911608460088461,2.630630829726866,85.81367358885063,0.0
816,-6.033853696228127,2.487130015453195,85.86796047267723,0.0
817,-6.170592451993732,2.3209967228555684,85.93327126680668,0.0
818,-6.319775503520042,2.1394063901185736,86.00924196244225,0.0
819,-6.478536451618151,1.9527131814558651,86.09551385515695,0.0
820,-6.641407090105027,1.7748175168417684,86.19173262972737,0.0
821,-6.798830176408334,1.622560821652145,86.29754748205205,0.0
822,-6.936665053036395,1.513890112014248,86.41261027560384,0.0
823,-7.037308470193546,1.4647879386874405,86.53657473018643,0.0
824,-7.082773211614821,1.485291608773363,86.6690956410693,0.0
825,-7.0595994724417,1.5752634666478618,86.80982812686064,0.0
826,-6.964886425802958,1.720835223956173,86.95842690474886,0.0
827,-6.8121405418658965,1.892546340986908,87.1145455920022,0.0
828,-6.635207717874468,2.046064248756962,87.27783603286265,0.0
829,-6.488484806056678,2.125993773053639,87.4479476502082,0.0
830,-6.442065668896488,2.0726974966534266,87.62452682158613,0.0
831,-6.571523084434056,1.8313646094365583,87.80721627944136,0.0
832,-6.9435085777091,1.3619365022234966,87.9956545355785,0.0
833,-7.599883649778383,0.6480889892090762,88.18947533010464,0.0
834,-8.544147660265535,-0.29658239824482235,88.38830710530213,0.0
835,-9.73400966657856,-1.426666861083504,88.59177250507801,0.0
836,-11.082836309817623,-2.668092682864267,88.79948790082844,0.0
837,-12.47058665351623,-3.926130626370096,89.01106294474177,0.0
838,-13.76232110672415,-5.0970703514627695,89.22610015174507,0.0
839,-14.83026120425315,-6.081634924169412,89.44419451147193,0.0
840,-15.574391759571993,-6.797839785542416,89.66493313179649,0.0
841,-15.937059756553088,-7.1911298696882575,89.8878949156381,0.0
842,-15.908752270431622,-7.240205599766328,90.1126502728909,0.0
843,-15.524629204115277,-6.957828164688565,90.33876086947359,0.0
844,-14.853669209362344,-6.386861715821477,90.56577941562368,0.0
845,-13.983791252226975,-5.592642123221071,90.79324949567778,0.0
846,-13.006703981938367,-4.653286959461623,91.0207054416814,0.0
847,-12.005579781121835,-3.649698809346729,91.24767225325884,0.0
848,-11.047329491683508,-2.656785554426122,91.47366556624208,0.0
849,-10.179761582892326,-1.7369331441453406,91.69819167260657,0.0
850,-9.43267397874706,-0.9361706684874576,91.92074759428883,0.0
851,-8.821215063219572,-0.282916612270688,92.14082121346304,0.0
852,-8.349750952699909,0.21119768493983004,92.35789146183126,0.0
853,-8.014911122168177,0.5491144813345434,92.57142857142857,0.0
854,-7.807237317846507,0.7454188250568339,92.78089438936321,0.0
855,-7.711637363343081,0.8232120199565465,92.98574275879483,0.0
856,-7.70737347127617,0.8111046709932198,93.18541996830429,0.0
857,-7.768442549718781,0.7404592972289715,93.37936527162124,0.0
858,-7.8649510119208035,0.6428969479995555,93.56701147944985,0.0
859,-7.965606852930841,0.5480497074550235,93.74778562486713,0.0
860,-8.040963736220197,0.4815730214959947,93.92110970346353,0.0
861,-8.066738500850194,0.46349141799669724,94.08640148904506,0.0
862,-8.026472494301032,0.5069990612335206,94.24307542532857,0.0
863,-7.912997324946483,0.6178447090249584,94.3905435936282,0.0
864,-7.7284962913546424,0.7943897687238755,94.52821675605989,0.0
865,-7.483294602299754,1.028347677661778,94.65550547327751,0.0
866,-7.193757287687332,1.3061149426344856,94.77182129520516,0.0
867,-6.8797715494981935,1.6105151905102584,94.87657802264545,0.0
868,-6.562250832068502,1.9227198509177335,94.96919303702818,0.0
869,-6.260975636779279,2.2240955848925905,95.049088694921,0.0
870,-5.992945868596122,2.497761059995899,95.11569378325926,0.0
871,-5.771305528276618,2.7297059199907885,95.16844503057189,0.0
872,-5.60482508128426,2.9094175657118506,95.2067886687903,0.0
873,-5.497880230057301,3.0300579278444353,95.23018203953595,0.0
874,-5.450834707505209,3.0883137883218255,95.23809523809524,1.0
875,-5.46071175098225,3.084093837257222,95.23695055999897,0.0
876,-5.522020500770813,3.0202516959214,95.23354350615105,0.0
877,-5.627586097582697,2.902471602311354,95.22791478040612,0.0
878,-5.7692178422327425,2.7393661980985597,95.22010538229007,0.0
879,-5.938055804636126,2.542718041920569,95.21015658814106,0.0
880,-6.124492321524418,2.3276727178593535,95.19810993251056,0.0
881,-6.31769227071681,2.112594539948708,95.18400718983746,0.0
882,-6.504925139239516,1.9182615378636636,95.1678903564069,0.0
883,-6.671125009910524,1.7661346162295133,95.14980163260546,0.0
884,-6.799237225432306,1.6756003861643394,95.1297834054837,0.0
885,-6.871909038738657,1.660346303082152,95.10787823163588,0.0
886,-6.874862789926297,1.7243374299603549,95.08412882040668,0.0
887,-6.801822284769409,1.8581546863094287,95.05857801743385,0.0
888,-6.6601994793981865,2.036636668947795,95.03126878853543,0.0
889,-6.4760589354537705,2.218757844402554,95.0022442039488,0.0
890,-6.296429272753981,2.3504234261911465,94.97154742292952,0.0
891,-6.187105829719453,2.370369661015685,94.93922167871585,0.0
892,-6.224858893467073,2.2187006026273224,94.90531026386586,0.0
893,-6.484376765398128,1.846905323864412,94.86985651597188,0.0
894,-7.0220112946076805,1.2276561601751421,94.832903803758,0.0
895,-7.8599128256158,0.36245477397615766,94.79449551356448,0.0
896,-8.97483474013907,-0.7146233565083739,94.75467503622376,0.0
897,-10.295317785549647,-1.9382243078506232,94.71348575433073,0.0
898,-11.709094385155948,-3.218255488802914,94.67097102991086,0.0
899,-13.079852850740433,-4.450819528892536,94.6271741924885,0.0
900,-14.269832667636653,-5.5317652669394555,94.58213852755726,0.0
901,-15.163014285904447,-6.37050963029541,94.53590726545427,0.0
902,-15.683525459326036,-6.90171680597212,94.48852357063942,0.0
903,-15.805332463189522,-7.092872863509164,94.44003053138036,0.0
904,-15.55176298415425,-6.946650556120723,94.39047114984358,0.0
905,-14.986049054056508,-6.498008010577554,94.3398883325915,0.0
906,-14.196071897014757,-5.806956496400751,94.28832488148545,0.0
907,-13.27736946033217,-4.948646799467891,94.23582348499343,0.0
908,-12.318192892427088,-4.002726155989764,94.1824267099019,0.0
909,-11.389256374873966,-3.0437851821273814,94.12817699343002,0.0
910,-10.539253396481826,-2.1342297296818558,94.07311663574464,0.0
911,-9.79566187898053,-1.3202320863242272,94.01728779287436,0.0
912,-9.169206177867595,-0.6307203130630463,93.96073247001995,0.0
913,-8.659821613963683,-0.07881118534903842,93.90349251525902,0.0
914,-8.262120428898625,0.3352206524176051,93.84560961364197,0.0
915,-7.969031728356584,0.620393470384628,93.78712528167658,0.0
916,-7.773192138880038,0.7916745142763355,93.72808086219749,0.0
917,-7.666486201132927,0.8673257575273571,93.66851751961799,0.0
918,-7.638647028524848,0.8670959429794814,93.60847623555985,0.0
919,-7.6759394166973225,0.8111484465237697,93.54799780485808,0.0
920,-7.760708559979111,0.7194604457992476,93.48712283193655,0.0
921,-7.872131338439883,0.6113983140942827,93.42589172755025,0.0
922,-7.9880303543211255,0.5052420376705444,93.36434470589082,0.0
923,-8.087256823298379,0.41755204964698445,93.30252178205032,0.0
924,-8.15200833667469,0.3623962952404717,93.24046276983968,0.0
925,-8.169533215994148,0.35054613711179916,93.178207279957,0.0
926,-8.132922025253857,0.38878884005861936,93.11579471850165,0.0
927,-8.040988928979434,0.47949355593047815,93.05326428582947,0.0
928,-7.897487433285453,0.6205226219780294,92.99065497574475,0.0
929,-7.710012696298919,0.8055214200292413,92.92800557502436,0.0
930,-7.488904436667555,1.0245658135255464,92.86535466326958,0.0
931,-7.246324626395337,1.2651060652650994,92.80274061308121,0.0
932,-6.995515704480116,1.513121215904652,92.74020159055311,0.0
933,-6.750119613788024,1.754383467972787,92.67777555608028,0.0
934,-6.523403020280184,1.9757223662985584,92.61550026547624,0.0
935,-6.32729986139976,2.1661707856436916,92.55341327139622,0.0
936,-6.17131763243101,2.3178713110968046,92.49155192506096,0.0
937,-6.061495189184711,2.426629113407089,92.42995337827747,0.0
938,-5.999678690015662,2.492023458415186,92.36865458575211,0.0
939,-5.983358392762742,2.517039002759844,92.3076923076923,1.0
940,-6.006189578026027,2.5072480299059716,92.24575009715151,0.0
941,-6.059152053230433,2.4696561069091905,92.18152940450071,0.0
942,-6.132142247762534,2.4114002613557943,92.11509370930699,0.0
943,-6.215684697818112,2.3385417234020425,92.04650649124518,0.0
944,-6.302418632743964,2.2552071957761157,91.97583120169645,0.0
945,-6.388062067681776,2.163292251179224,91.90313123622124,0.0
946,-6.471662671688786,2.0628461138688725,91.82846990791549,0.0
947,-6.555079846556495,1.953118440865328,91.75191042165598,0.0
948,-6.641773174843408,1.834086776888225,91.67351584924172,0.0
949,-6.735082106459833,1.7081284445498714,91.59334910543458,0.0
950,-6.836275725019833,1.5813884926930317,91.511472924902,0.0
951,-6.942742574241789,1.4643613025358548,91.42794984006346,0.0
952,-7.046776423212591,1.3712749688171793,91.3428421598407,0.0
953,-7.135464364073281,1.3180556871996139,91.25621194931045,0.0
954,-7.192146039903125,1.3189409770265677,91.16812101025783,0.0
955,-7.199728354377776,1.3821636751319726,91.07863086262665,0.0
956,-7.145766866492888,1.5054736609838972,90.98780272686238,0.0
957,-7.02866971322527,1.6725134591065722,90.89569750714254,0.0
958,-6.86373450417898,1.8511294079659293,90.80237577548817,0.0
959,-6.687191090159525,1.9945185207723886,90.70789775674871,0.0
960,-6.5562648234812,2.045668369846047,90.61232331445296,0.0
961,-6.54374243016776,1.944896077879187,90.51571193751685,0.0
962,-6.726702254502287,1.6395543285566374,90.41812272779833,0.0
963,-7.170779282323142,1.0943184017729028,90.31961438848981,0.0
964,-7.913103085861785,0.3000801722518548,90.22024521333668,0.0
965,-8.948228865169513,-0.7205063120996813,90.12007307667076,0.0
966,-10.221387719065826,-1.9123055835702032,90.01915542424675,0.0
967,-11.631952073001205,-3.1924147652555943,89.91754926486932,0.0
968,-13.047413220674077,-4.459831799667145,89.81531116279812,0.0
969,-14.325182289041129,-5.608549872279272,89.7124972309173,0.0
970,-15.337181383248629,-6.5417970083995325,89.60916312465599,0.0
971,-15.991338098966308,-7.184875554469824,89.50536403664655,0.0
972,-16.2450372916178,-7.494350564053654,89.40115469210565,0.0
973,-16.10795166087798,-7.462114878627823,89.29658934492468,0.0
974,-15.634605751527276,-7.113925454190497,89.19172177445486,0.0
975,-14.909547651029273,-6.503098302900133,89.08660528297224,0.0
976,-14.029401174817949,-5.700914223213749,88.9812926938085,0.0
977,-13.086129283985205,-4.785744722340107,88.87583635013256,0.0
978,-12.15479668863682,-3.832892935430807,88.77028811436854,0.0
979,-11.287470622498045,-2.906714568301772,88.66469936823519,0.0
980,-10.5131676853318,-2.055889132671864,88.5591210133924,0.0
981,-9.842359703739843,-1.3119468567004366,88.4536034726804,0.0
982,-9.27376070169232,-0.6905065927420974,88.34819669193685,0.0
983,-8.801034053486916,-0.1942748519330757,88.24295014237806,0.0
984,-8.417610565179645,0.18325399063983006,88.13791282352986,0.0
985,-8.118759135114736,0.45430171833589017,88.03313326669456,0.0
986,-7.901074405025393,0.6340917100192967,87.92865953893998,0.0
987,-7.760330427639445,0.7391095543940893,87.82453924759754,0.0
988,-7.689001208665078,0.7862044703900919,87.72081954525574,0.0
989,-7.674634214887839,0.7921990683732862,87.61754713523666,0.0
990,-7.6997934304322895,0.7736321407729684,87.5147682775424,0.0
991,-7.743664529721904,0.7463491558246045,87.41252879525965,0.0
992,-7.784851159185236,0.7248225592284747,87.31087408140998,0.0
993,-7.804550916558305,0.7212618064838218,87.20984910623473,0.0
994,-7.789251493570109,0.7447034279247035,87.10949842490297,0.0
995,-7.732300579968055,0.8003205055397759,87.00986618563162,0.0
996,-7.634072107201238,0.8891542820071896,86.91099613820793,0.0
997,-7.50084229489446,1.008369506485298,86.8129316429033,0.0
998,-7.3427870487158575,1.1520063040864903,86.71571567976956,0.0
999,-7.171654024526258,1.3120843452555613,86.61939085830865,0.0
1000,-6.998642993647571,1.4798409064851363,86.52399942750597,0.0
1001,-6.83288590453531,1.6468686094128269,86.42958328622055,0.0
1002,-6.680712366050044,1.8059596406315133,86.33618399392296,0.0
1003,-6.5456766245405635,1.95154548592236,86.24384278177436,0.0
1004,-6.429157333906949,2.0797210743298655,86.1526005640396,0.0
1005,-6.331254040733837,2.1879350463056535,86.06249794982803,0.0
1006,-6.25170424230309,2.2744936961143742,85.97357525515599,0.0
1007,-6.190613642277913,2.3380533340577014,85.88587251532614,0.0
1008,-6.148887606963646,2.377261969257803,85.79942949761792,0.0
1009,-6.128329984510111,2.390662079814343,85.71428571428572,1.0
1010,-6.131418106653258,2.37689345067582,85.62889134641338,0.0
1011,-6.160784899949778,2.33515361902655,85.54173380411557,0.0
1012,-6.218468567591682,2.2657994578572787,85.45290789319877,0.0
1013,-6.305039738089555,2.170922022037436,85.36250790268566,0.0
1014,-6.418772436920937,2.0547102575970317,85.27062757181635,0.0
1015,-6.555064004878587,1.9234447895482099,85.17736005925791,0.0
1016,-6.706310167707561,1.7850308535544004,85.08279791449951,0.0
1017,-6.862392792768036,1.6480808641425644,84.98703305140788,0.0
1018,-7.011832632771605,1.5206744074642686,84.89015672391562,0.0
1019,-7.143502383693008,1.4090315598529877,84.79225950381259,0.0
1020,-7.24861595262458,1.3164060276057528,84.69343126060849,0.0
1021,-7.322562266460511,1.2425121444793674,84.59376114343353,0.0
1022,-7.366094479070709,1.183728583757416,84.4933375649415,0.0
1023,-7.385452174931476,1.1341722905986864,84.39224818717946,0.0
1024,-7.391183115654116,1.087529097728361,84.29057990938597,0.0
1025,-7.395711765616121,1.0393026105955625,84.18841885767947,0.0
1026,-7.410026932696916,0.9889538063092016,84.08585037659758,0.0
1027,-7.4401695490948025,0.9413071732626292,83.98295902244678,0.0
1028,-7.484419895193879,0.9066413631428888,83.8798285584227,0.0
1029,-7.532134339885901,0.8990845940329921,83.77654195145956,0.0
1030,-7.565006232481653,0.9332825790058797,83.67318137076828,0.0
1031,-7.561104096316977,1.0197438545604554,83.56982818802204,0.0
1032,-7.501403020735934,1.159702502832258,83.46656297914873,0.0
1033,-7.377761029825779,1.3406598334542017,83.36346552768958,0.0
1034,-7.200559747263629,1.5338681296667542,83.26061482968382,0.0
1035,-7.00375458685784,1.6948294267132131,83.15808910004013,0.0
1036,-6.845116479848072,1.767390729498969,83.05596578035546,0.0
1037,-6.800178145095935,1.6912918863442667,82.95432154814344,0.0
1038,-6.949819875252114,1.4122055665551476,82.85323232743481,0.0
1039,-7.363274323584755,0.8925910760900686,82.75277330071347,0.0
1040,-8.080079677388476,0.12125935641406782,82.65301892215328,0.0
1041,-9.095534134651318,-0.8804405791632575,82.55404293212075,0.0
1042,-10.353983523991628,-2.0574070088386085,82.45591837291119,0.0
1043,-11.752650299827252,-3.3252317867061403,82.35871760568654,0.0
1044,-13.156038249142476,-4.579874043660804,82.26251232858473,0.0
1045,-14.418030583185809,-5.711044930540575,82.16737359597136,0.0
1046,-15.406620325895519,-6.617003589246807,82.07337183880696,0.0
1047,-16.025526186338805,-7.2181700794709815,81.98057688610388,0.0
1048,-16.227965183559817,-7.467222186454904,81.8890579874486,0.0
1049,-16.020164022812992,-7.354086599019254,81.79888383656746,0.0
1050,-15.454956611444038,-6.905271224476067,81.71012259591505,0.0
1051,-14.61813190334026,-6.178064114097921,81.62284192226629,0.0
1052,-13.611445125042353,-5.251003939600384,81.53710899329575,0.0
1053,-12.536229500348808,-4.212535298071576,81.45299053512872,0.0
1054,-11.480602350911756,-3.1498332994940377,81.37055285085162,0.0
1055,-10.511818840330378,-2.1394593592588595,81.28986184996995,0.0
1056,-9.67385878550802,-1.2409212539771421,81.21098307880557,0.0
1057,-8.989186584795215,-0.49352307846827004,81.13398175182608,0.0
1058,-8.462999820749722,0.08373408858809972,81.05892278390195,0.0
1059,-8.088226382949712,0.4898852537370477,80.98587082348837,0.0
1060,-7.849943841728971,0.7382653827877821,80.9148902867324,0.0
1061,-7.728559556780802,0.8521920247066888,80.84604539250697,0.0
1062,-7.701741671903513,0.8607823133836257,80.7794001983765,0.0
1063,-7.745520114972712,0.7953656938803579,80.71501863750105,0.0
1064,-7.835099403069117,0.6866960480870923,80.65296455648814,0.0
1065,-7.945791264535704,0.5629630744575816,80.59330175420472,0.0
1066,-8.054216923868118,0.44848026450800205,80.53609402156343,0.0
1067,-8.139686448209755,0.3628848757342835,80.48140518230066,0.0
1068,-8.185525468729274,0.320703546324028,80.42929913476623,0.0
1069,-8.180106480048133,0.3311868241340503,80.37983989474768,0.0
1070,-8.117416267706076,0.39836965802845026,80.33309163935519,0.0
1071,-7.997096079260585,0.5213536061752806,80.28911875199542,0.0
1072,-7.823982170885001,0.6948212628068748,80.24798586846671,0.0
1073,-7.607232985637742,0.9097846076281779,80.20975792421058,0.0
1074,-7.359159139699389,1.1545434362153928,80.17450020275771,0.0
1075,-7.093885554933582,1.415797477370323,80.14227838541116,0.0
1076,-6.825979522599967,1.6798259651623209,80.11315860221151,0.0
1077,-6.569174490288168,1.9336289773976283,80.08720748423347,0.0
1078,-6.335303618451755,2.1659203718336224,80.06449221726744,0.0
1079,-6.133529166754457,2.3678739912039557,80.0450805969427,0.0
1080,-5.969918424270697,2.5335514762502025,80.02904108535385,0.0
1081,-5.847380587627231,2.659977914632452,80.01644286925645,0.0
1082,-5.765943276620067,2.7468757295599886,80.00735591990193,0.0
1083,-5.723308906295501,2.796112121388616,80.0018510545873,0.0
1084,-5.715590531713439,2.8109554014374702,80.0,1.0
1085,-5.738096421958627,2.7952654365183225,80.0065453221818,0.0
1086,-5.786031229642917,2.7527585482606365,80.02592040831324,0.0
1087,-5.85501706692653,2.6864838574079215,80.05774262428199,0.0
1088,-5.941394619683813,2.5986236130630935,80.10163994717398,0.0
1089,-6.042311728029485,2.490683396649397,80.15724980134667,0.0
1090,-6.155621898369176,2.364070446189864,80.2242179494907,0.0
1091,-6.279600909865038,2.220974497382408,80.30219743386917,0.0
1092,-6.4124714499904165,2.065375331808359,80.39084756341039,0.0
1093,-6.5517343599549935,1.9039205130927652,80.48983294277723,0.0
1094,-6.693361692756793,1.746366819828348,80.59882253994954,0.0
1095,-6.831015264438078,1.6052831643315904,80.71748878923766,0.0
1096,-6.955594210616051,1.4947912036960382,80.84550672700216,0.0
1097,-7.0555327053942785,1.428280750536926,80.98255315768748,0.0
1098,-7.118281960925881,1.4152693964390175,81.12830584809184,0.0
1099,-7.133237718641641,1.4578440783275723,81.2824427480916,0.0
1100,-7.095983680029409,1.5473681607217138,81.44464123632136,0.0
1101,-7.013168534328986,1.6622887710379008,81.61457738958032,0.0
1102,-6.906769310734681,1.767866962067434,81.79192527499539,0.0
1103,-6.816130070109519,1.818434584208731,81.97635626422131,0.0
1104,-6.7962200788593154,1.7623592348537582,82.16753836920176,0.0
1105,-6.911171831237034,1.5493325473514554,82.36513559925123,0.0
1106,-7.223316841426494,1.1390015552877366,82.56880733944953,0.0
1107,-7.779394836213694,0.5094845128705752,82.77820775056664,0.0
1108,-8.596924636084106,-0.3359060533577636,82.99298519095869,0.0
1109,-9.654369224793287,-1.3652729790091431,83.21278166109495,0.0
1110,-10.88831290965238,-2.519109102583246,83.43723227159066,0.0
1111,-12.199346158513974,-3.715874172229964,83.66596473583304,0.0
1112,-13.466105418062629,-4.86149628804884,83.89859888849591,0.0
1113,-14.564648946124086,-5.861297824321778,84.13474623144253,0.0
1114,-15.388827719490845,-6.63231731176586,84.37400950871631,0.0
1115,-15.867038214748263,-7.113897623054323,84.6159823125119,0.0
1116,-15.971777573231469,-7.274764349217963,84.86024872220825,0.0
1117,-15.720380852957518,-7.11553960384702,85.1063829787234,0.0
1118,-15.16756834263913,-6.666549166180324,85.35394919662262,0.0
1119,-14.39231264820501,-5.981668117632776,85.6025011165699,0.0
1120,-13.482569316982003,-5.129613452880017,85.85158190086109,0.0
1121,-12.521408301483607,-4.184401583850773,86.10072397490794,0.0
1122,-11.577163103495044,-3.216610806027088,86.34944891765842,0.0
1123,-10.698764763192663,-2.2866864943072573,86.59726740403383,0.0
1124,-9.915941793647184,-1.440933030208582,86.84367920253739,0.0
1125,-9.24286323371371,-0.7102125007447841,87.0881732312373,0.0
1126,-8.683300085628582,-0.1108613022451661,87.33022767534939,0.0
1127,-8.23548451657085,0.35296310615924886,87.56931016963401,0.0
1128,-7.895405639860496,0.6863535361245905,87.80487804878048,0.0
1129,-7.658066581485665,0.9008474716103811,88.03637866887144,0.0
1130,-7.516992768969853,1.0121808112821473,88.26324980290158,0.0
1131,-7.46281294185462,1.0387372427292139,88.48492011316378,0.0
1132,-7.481906534335738,1.000581115557547,88.70080970310886,0.0
1133,-7.555922157951301,0.9188168821185482,88.91033075103213,0.0
1134,-7.662539884318576,0.8149907591604706,89.11288822763622,0.0
1135,-7.7773615667614955,0.7103200526519107,89.30788069916463,0.0
1136,-7.876448001633138,0.6246613155869714,89.49470121739388,0.0
1137,-7.938884858337751,0.5752637451713767,89.6727382973109,0.0
1138,-7.948852614597087,0.575461023070394,89.84137698278771,0.0
1139,-7.896912846770103,0.6335114826712456,89.99999999999999,0.0
1140,-7.780480022121255,0.7517986605023805,90.14798899771598,0.0
1141,-7.6036204381842305,0.9265606465565424,90.28472587291625,0.0
1142,-7.376363869075212,1.1482424902694504,90.40959417949085,0.0
1143,-7.113652932857946,1.4024773757815698,90.52198061700639,0.0
1144,-6.833961942679488,1.6716130510353433,90.62127659574467,0.0
1145,-6.557570915446351,1.9366208064490582,90.70687987339352,0.0
1146,-6.3045276161560935,2.179163957223424,90.7781962579286,0.0
1147,-6.092457774553006,2.3835691947767788,90.83464137036783,0.0
1148,-5.934524113954202,2.5384441154389057,90.87564246021962,0.0
1149,-5.8379059516861345,2.637721684650281,90.90064026559163,0.0
1150,-5.803122301718925,2.680986219172938,90.9090909090909,1.0
1151,-5.824360760243431,2.6730377878002685,90.89628539885673,0.0
1152,-5.890758542610805,2.622768217654862,90.8582599758248,0.0
1153,-5.9883814000529485,2.5415331236552974,90.79563134980441,0.0
1154,-6.102514624860013,2.4412906605980416,90.70905365122894,0.0
1155,-6.2198439612053855,2.3328222967129046,90.59921507645224,0.0
1156,-6.330162116938793,2.224343549141926,90.46683449588978,0.0
1157,-6.427362981024395,2.120751340116231,90.31265805068837,0.0
1158,-6.5096363501645875,2.023646040800136,90.13745576232023,0.0
1159,-6.578906596294546,1.9321246089235482,89.94201817800314,0.0
1160,-6.6396477435216,1.8441867573051933,89.72715307317985,0.0
1161,-6.697263837657861,1.758453220934059,89.4936822304878,0.0
1162,-6.756270497994784,1.6757903153620417,89.24243831274845,0.0
1163,-6.818564721221284,1.6003936258189508,88.97426184553922,0.0
1164,-6.882120125203573,1.5399264669509924,88.68999832291523,0.0
1165,-6.940476655749937,1.5044461640745834,88.39049544784943,0.0
1166,-6.983383829679789,1.5040776698198137,88.07660051699041,0.0
1167,-6.998870537829679,1.5456831672073925,87.74915795741897,0.0
1168,-6.976806055278033,1.629079418608634,87.40900702123976,0.0
1169,-6.913651111468303,1.7436047876479646,87.05697964209162,0.0
1170,-6.817596527108251,1.8659611525251665,86.6938984560138,0.0
1171,-6.712767227555647,1.9601891461269347,86.3205749875768,0.0
1172,-6.640840332226901,1.9803469544813526,85.93780800078463,0.0
1173,-6.658528776372248,1.875972354619976,85.54638201298611,0.0
1174,-6.830086422875294,1.5997929786726734,85.14706596889764,0.0
1175,-7.2152793875424,1.1165408569667423,84.74061207084141,0.0
1176,-7.854858639750551,0.4112798644227027,84.32775476043777,0.0
1177,-8.756934261771312,-0.5044899864167904,83.9092098462561,0.0
1178,-9.888183479519185,-1.5904470220714648,83.48567377132026,0.0
1179,-11.173104877355215,-2.779661590581519,83.05782301387457,0.0
1180,-12.50259185259176,-3.9854124005448037,82.62631361444011,0.0
1181,-13.750501277245563,-5.111664340271997,82.19178082191782,0.0
1182,-14.794542016758934,-6.065480749082998,81.75483885131767,0.0
1183,-15.536558191841713,-6.7692120763228525,81.3160807456044,0.0
1184,-15.917556753283948,-7.1703359880378335,80.8760783341372,0.0
1185,-15.924449536187689,-7.247312492571927,80.43538228023999,0.0
1186,-15.58779556182482,-7.010638217506939,79.99452221055655,0.0
1187,-14.972045862559554,-6.499235238164607,79.55400691901687,0.0
1188,-14.1613007809175,-5.773169295186485,79.11432463845604,0.0
1189,-13.244125334316381,-4.90427495227782,78.67594337318056,0.0
1190,-12.300588959407992,-3.96646778133005,78.23931128605982,0.0
1191,-11.393659772228734,-3.0273421031798535,77.80485713402715,0.0
1192,-10.565737313223947,-2.1421731826147132,77.37299074619965,0.0
1193,-9.839809989665666,-1.350809636758932,76.94410353916359,0.0
1194,-9.223776396672026,-0.6773159447574413,76.51856906431641,0.0
1195,-8.716052669954404,-0.13174238076182943,76.09674358250625,0.0
1196,-8.310718700448241,0.2868575930903903,75.67896666155778,0.0
1197,-8.001005717475604,0.58705830640605,75.26556179261947,0.0
1198,-7.780679967995479,0.7820548763435875,74.85683702160699,0.0
1199,-7.643598756526352,0.8874341846532805,74.45308559234951,0.0
1200,-7.582216248695566,0.9198214445899647,74.05458659836782,0.0
1201,-7.58599264338152,0.8962422922430304,73.66160564052414,0.0
1202,-7.640511880782962,0.8338933401515698,73.27439548808194,0.0
1203,-7.727736986702697,0.7499897681723657,72.89319674099967,0.0
1204,-7.827384331756506,0.6614351848876789,72.51823849155443,0.0
1205,-7.919036101971246,0.5841939432302581,72.14973898364879,0.0
1206,-7.984437697443339,0.532391037593059,71.7879062683992,0.0
1207,-8.009461281912834,0.5172794976427203,71.43293885483342,0.0
1208,-7.985396609001087,0.5462762596632937,71.0850263547419,0.0
1209,-7.90945494148634,0.6222698182947818,70.74435012093102,0.0
1210,-7.784552715268386,0.7433565907110011,70.41108387831747,0.0
1211,-7.618536027612094,0.9030865095846328,70.08539434748157,0.0
1212,-7.4230222795798255,1.0912123762139165,69.76744186046511,0.0
1213,-7.212007991412307,1.294859196221512,69.45738096875688,0.0
1214,-7.000361635040077,1.4999705908618657,69.1553610435555,0.0
1215,-6.802311591736735,1.692854970785704,68.86152686853914,0.0
1216,-6.630053253406232,1.8616452507614807,68.57601922550141,0.0
1217,-6.492616334046314,1.9975001122616796,68.29897547333681,0.0
1218,-6.395126171111335,2.0954081053533367,68.03053012097715,0.0
1219,-6.338545544059289,2.154503386378975,67.77081539499231,0.0
1220,-6.319907041923082,2.177858596223538,67.5199618026779,0.0
1221,-6.3329716954409525,2.1717814019823676,67.27809869155755,0.0
1222,-6.369204968862439,2.1447018499941652,67.04535480633116,0.0
1223,-6.418949054968677,2.1057931855970744,66.82185884440271,0.0
1224,-6.472672286890073,2.0635139801031404,66.6077400112239,0.0
1225,-6.522174840268423,2.0242881249088875,66.403128576794,0.0
1226,-6.561623882084427,1.9915443818514762,66.20815643476192,0.0
1227,-6.588290953137216,1.9653114041153927,66.02295766568623,0.0
1228,-6.602874882349143,1.9425017840596857,65.84766910612414,0.0
1229,-6.609312012265126,1.9179183930581147,65.6824309253401,0.0
1230,-6.614003328749893,1.8858840358057407,65.5273872115539,0.0
1231,-6.624440449653194,1.8422469514492255,65.38268656978474,0.0
1232,-6.647309914383068,1.7863760017490309,65.24848273349623,0.0
1233,-6.686303804434146,1.7226646057233794,65.12493519240795,0.0
1234,-6.740043248962196,1.6610479587461318,65.01220983901344,0.0
1235,-6.800684129881638,1.6161332647529085,64.91047963653676,0.0
1236,-6.853858869931135,1.6047592752278566,64.81992531126953,0.0
1237,-6.880541318118286,1.642123368190254,64.74073607246198,0.0
1238,-6.861134759888346,1.7369927937171479,64.67311036319785,0.0
1239,-6.781549873003993,1.8868725201330068,64.61725664596578,0.0
1240,-6.640325376510561,2.074239073035354,64.57339422695517,0.0
1241,-6.455129566029346,2.2649766878300177,64.54175412345282,0.0
1242,-6.266529680340296,2.409910455574898,64.52257997910685,0.0
1243,-6.1369923959517845,2.4498204760470914,64.51612903225806,1.0
1244,-6.1438442520632846,2.3236134038788165,64.55623716151493,0.0
1245,-6.366341850616736,1.9785635513049205,64.67459192409717,0.0
1246,-6.86879399054446,1.3808974803280107,64.86863151893321,0.0
1247,-7.683323419523441,0.5246641576479498,65.13626597308605,0.0
1248,-8.796729743735051,-0.5630666326966267,65.47582044591904,0.0
1249,-10.14552099456165,-1.8220740992091105,65.88598635954189,0.0
1250,-11.62141369884366,-3.1643910309650805,66.36577870512559,0.0
1251,-13.086886855421222,-4.484607361347862,66.91449814126393,0.0
1252,-14.397574763654497,-5.67341777975901,67.53169670090514,0.0
1253,-15.426359237394681,-6.632069445211945,68.2171460717405,0.0
1254,-16.08362651045176,-7.285176413824074,68.97080752197901,0.0
1255,-16.329363037386326,-7.589721901273052,69.7928026172301,0.0
1256,-16.17508378952381,-7.538875647504674,70.68338392098738,0.0
1257,-15.676211714109309,-7.160310095900232,71.64290489590945,0.0
1258,-14.91768063188812,-6.5097527827554,72.6717882298671,0.0
1259,-13.996711014209925,-5.661326993831919,73.77049180327869,0.0
1260,-13.00675436263277,-4.696648147278664,74.93947149620769,0.0
1261,-12.02567078685083,-3.694609288614951,76.17914000892723,0.0
1262,-11.109668413593395,-2.7233670356218482,77.48982084262613,0.0
1263,-10.292875483026773,-1.8353747757799987,78.87169656305628,0.0
1264,-9.591096194347632,-1.0655859598491926,80.32475045594494,0.0
1265,-9.007621461241055,-0.4323372027760173,81.84870068740119,0.0
1266,-8.53899250234308,0.05996432054192735,83.44292611597896,0.0
1267,-8.179198100741564,0.4173389595932522,85.1063829787234,0.0
1268,-7.921648975910322,0.6527807716145155,86.83751180753657,0.0
1269,-7.759120408400338,0.7834279972124372,88.63413414376117,0.0
1270,-7.682456066978926,0.8285928126415025,90.4933389302521,0.0
1271,-7.679060051568335,0.8085854166517362,92.41135889619765,0.0
1272,-7.732070502416327,0.7440735978773299,94.38343783684138,0.0
1273,-7.820711944652761,0.6556541634396587,96.4036904537752,0.0
1274,-7.921833406581936,0.5633613918681064,98.46495738366986,0.0
1275,-8.012229867553067,0.48595840446303473,100.55865921787709,0.0
1276,-8.071139219461864,0.43999951656056435,102.67465470132605,0.0
1277,-8.0823396932666,0.4387714853486092,104.80110987286497,0.0
1278,-8.035484717384627,0.49129215252250424,106.9243866147282,0.0
1279,-7.9265869628985435,0.6015588263988478,109.0289608177172,0.0
1280,-7.757784275255968,0.768204297836925,111.09738199067557,0.0
1281,-7.536619490599899,0.9846528782927504,113.11028743955423,0.0
1282,-7.275043057595409,1.239791017973418,115.04648484678256,0.0
1283,-6.988254512175864,1.5190920914739579,116.88311688311687,0.0
1284,-6.693409078049101,1.8060726572562902,118.59592004812811,0.0
1285,-6.40818594509053,2.0839132358601766,120.15958695141984,0.0
1286,-6.149260078832815,2.3370532657100855,121.54823648887024,0.0
1287,-5.930807288077923,2.5525694078422836,122.73598977200085,0.0
1288,-5.763243391198981,2.721170312213098,123.69764140971826,0.0
1289,-5.6524041916656325,2.837689401690922,124.40940630146602,0.0
1290,-5.599305878509005,2.9010272288273895,124.84971229429631,0.0
1291,-5.600517770482951,2.9135793174626308,125.0,1.0
1292,-5.64907425980419,2.880272457809067,124.96805120153563,0.0
1293,-5.735774074939142,2.807407119925716,124.87360443661458,0.0
1294,-5.850661752263681,2.7015497312615615,124.71889055472265,0.0
1295,-5.984451911885267,2.568721623260661,124.5062985906124,0.0
1296,-6.129645868206676,2.4140824179072986,124.23835427480955,0.0
1297,-6.2811146427106355,2.242204163134024,123.91769853831116,0.0
1298,-6.435990364810128,2.0578896448833075,123.54706628574964,0.0
1299,-6.59281885874636,1.8673272708060074,123.12926568538772,0.0
1300,-6.750077701559671,1.6792295891530031,122.66715819547487,0.0
1301,-6.904351387766388,1.5055124335447085,122.16363951579183,0.0
1302,-7.048653915874799,1.3610740544521602,121.62162162162161,0.0
1303,-7.171539445299873,1.262352928652712,121.04401600582031,0.0
1304,-7.257659522325898,1.2245806768828944,120.43371822390678,0.0
1305,-7.290238849609769,1.2579735875660585,119.79359380781423,0.0
1306,-7.255529622167284,1.3634618289760594,119.12646558668219,0.0
1307,-7.1487156723841485,1.5288545373510882,118.43510242822116,0.0
1308,-6.98008885943045,1.7264892257234608,117.722209392029,0.0
1309,-6.779785729015159,1.9133393941891734,116.99041926694208,0.0
1310,-6.599163391929197,2.0342207277058604,116.2422854481233,0.0
1311,-6.507207974248564,2.028171393677723,115.48027609609377,0.0
1312,-6.581306579448341,1.8373813547822104,114.70676950919982,0.0
1313,-6.893179703689052,1.417360689983591,113.92405063291137,0.0
1314,-7.492426174488913,0.7465429882477221,113.13430862366953,0.0
1315,-8.391443725991017,-0.16662930127501618,112.339635381499,0.0
1316,-9.555894170955263,-1.2808102406262014,111.54202496403448,0.0
1317,-10.904030395438719,-2.5240272557777192,110.74337379471012,0.0
1318,-12.316157924352263,-3.801135636396313,109.94548157938212,0.0
1319,-13.652810441497337,-5.005413997502655,109.15005284834348,0.0
1320,-14.777743038160464,-6.032399520875783,108.35869904431954,0.0
1321,-15.580446341751651,-6.793587364985593,107.57294108138689,0.0
1322,-15.993051648765324,-7.227651044298135,106.79421230464744,0.0
1323,-15.998156993270117,-7.307368158143075,106.02386178573957,0.0
1324,-15.626656340154172,-7.041322592381748,105.26315789473685,0.0
1325,-14.947226922291819,-6.470480127108957,104.51329209454094,0.0
1326,-14.050925788217906,-5.6606579544721,103.77538290941854,0.0
1327,-13.034931700402634,-4.692532632543979,103.05048002477547,0.0
1328,-11.98888090138022,-3.651049914061009,102.33956848054062,0.0
1329,-10.985891918320846,-2.6159176205745123,101.64357292559374,0.0
1330,-10.0787984979751,-1.6543784898575757,100.96336190548433,0.0
1331,-9.300773395194174,-0.8168300310355963,100.29975216022507,0.0
1332,-8.668706410509536,-0.13524818142684403,99.6535129131952,0.0
1333,-8.187488366010491,0.37608808243625447,99.02537013615058,0.0
1334,-7.853687099223978,0.7183138832061116,98.41601077901379,0.0
1335,-7.657799801622517,0.904899162927645,97.82608695652175,0.0
1336,-7.585065835415227,0.9583876237163534,97.25622008695333,0.0
1337,-7.615453978749739,0.9073391337353038,96.7070049810687,0.0
1338,-7.723706193750857,0.7836339734006434,96.17901388208658,0.0
1339,-7.880182161353275,0.62013457455725,95.6728004600345,0.0
1340,-8.052816767300474,0.44862806145643774,95.18890376615586,0.0
1341,-8.209986984408864,0.29798251077736293,94.72785215527807,0.0
1342,-8.323699133675177,0.19250939281431356,94.29016718617171,0.0
1343,-8.372382986167512,0.15059438993286356,93.87636751199021,0.0
1344,-8.342723359485884,0.18370578976916108,93.48697277491407,0.0
1345,-8.23027570074435,0.295896609863621,93.1225075211642,0.0
1346,-8.038954338676527,0.48388327548889265,92.78350515463917,0.0
1347,-7.779721235086439,0.73772229621815,92.47051194960784,0.0
1348,-7.468872803036949,1.0420343661137963,92.18409114520206,0.0
1349,-7.126236336517629,1.3776584813401043,91.92482714694619,0.0
1350,-6.77342348030579,1.723567581938469,91.69332986329051,0.0
1351,-6.432146096250743,2.0588469310202626,91.49023920813858,0.0
1352,-6.122552779059064,2.364528586480219,91.31622980374517,0.0
1353,-5.8616039629379815,2.625090557233581,91.17201592218527,0.0
1354,-5.661620984204744,2.8294682661394646,91.05835670794279,0.0
1355,-5.5292420157754645,2.9714884603173317,90.97606172914514,0.0
1356,-5.4650320309395015,3.049717943064954,90.92599691068698,0.0
1357,-5.46390411870261,3.0668118439245697,90.9090909090909,1.0
1358,-5.516340521705867,3.0285325329241437,90.91108762644554,0.0
1359,-5.610207969753329,2.942670323769028,90.91699421965316,0.0
1360,-5.73280386987754,2.818110859286547,90.926686058329,0.0
1361,-5.872694260871429,2.664248388753811,90.94003937182694,0.0
1362,-6.020931543977344,2.490838734692106,90.95693114734075,0.0
1363,-6.171364968995418,2.3082369060059964,90.97723903181203,0.0
1364,-6.319961017284938,2.1278047433858944,91.00084123753331,0.0
1365,-6.463311164984866,1.962147767148823,91.02761645134527,0.0
1366,-6.596787794925028,1.8247933961586644,91.05744374733838,0.0
1367,-6.713053840713568,1.728989810612304,91.09020250297907,0.0
1368,-6.801742224969054,1.6854967520035466,91.12577231859073,0.0
1369,-6.850994118611347,1.6995334803640878,91.16403294012909,0.0
1370,-6.851123617899986,1.7673857164487328,91.20486418520049,0.0
1371,-6.799998681405857,1.8734651594015141,91.24814587228006,0.0
1372,-6.708943724371983,1.98876503423483,91.2937577530948,0.0
1373,-6.607318339879667,2.0715832195352633,91.34157944814463,0.0
1374,-6.543687224634396,2.0710563519323992,91.39149038534171,0.0
1375,-6.581900395411221,1.9334957075162498,91.44336974175508,0.0
1376,-6.791525068026437,1.6108416821649238,91.49709638845499,0.0
1377,-7.233728016954212,1.0699163241623832,91.55254883845683,0.0
1378,-7.9454372303569825,0.300728704264112,91.60960519777154,0.0
1379,-8.925786462340724,-0.6779790771966296,91.66814311957403,0.0
1380,-10.128910906434644,-1.8174003287102467,91.72803976150747,0.0
1381,-11.465899662722796,-3.0422623226049286,91.78917174614557,0.0
1382,-12.816396122749133,-4.259098645986785,91.85141512464024,0.0
1383,-14.047681136052187,-5.367958518508086,91.91464534358596,0.0
1384,-15.036956949309422,-6.275566883474776,91.97873721513658,0.0
1385,-15.69167214111196,-6.907619470966098,92.04356489041363,0.0
1386,-15.963340288254004,-7.2180710497907885,92.10900183624895,0.0
1387,-15.85214941468621,-7.193908147311774,92.17492081530698,0.0
1388,-15.40210978667554,-6.854830122084356,92.24119386963507,0.0
1389,-14.688796584421775,-6.248266147945576,92.3076923076923,0.0
1390,-13.803278517533382,-5.440996450875191,92.37428669490873,0.0
1391,-12.83623563233859,-4.509146102835785,92.44084684782956,0.0
1392,-11.865576975009676,-3.5283987732042092,92.50724183189821,0.0
1393,-10.949422292385535,-2.5659656580004118,92.57333996293451,0.0
1394,-10.124645056562837,-1.6752616512589933,92.63900881236299,0.0
1395,-9.40979274492637,-0.8935566028232562,92.70411521624735,0.0
1396,-8.810418941884976,-0.2422544610919648,92.7685252881853,0.0
1397,-8.324754567291427,0.27096508433108624,92.83210443611749,0.0
1398,-7.948095363889758,0.649069737077353,92.89471738310259,0.0
1399,-7.675063540062235,0.9025083452857805,92.95622819210803,0.0
1400,-7.499749308296766,1.0465464347353062,93.01650029486355,0.0
1401,-7.414411750225373,1.0993664158952812,93.07539652482161,0.0
1402,-7.407756062448464,1.0808920343972388,93.13277915426467,0.0
1403,-7.463763221535805,1.0120906421321911,93.18850993559542,0.0
1404,-7.561707246779,0.9144306413881917,93.24245014684139,0.0
1405,-7.677513877034639,0.8092167613764581,93.29446064139943,0.0
1406,-7.786167072159809,0.7166539332385842,93.34440190204032,0.0
1407,-7.864585323944756,0.6546485043204049,93.39213409918733,0.0
1408,-7.89431915483992,0.6374930390504817,93.43751715347484,0.0
1409,-7.863538507020737,0.6746628724091013,93.48041080258653,0.0
1410,-7.7680084725720455,0.7699649052161224,93.52067467236392,0.0
1411,-7.611005004089506,0.9212280225658143,93.55816835216793,0.0
1412,-7.402326574555742,1.12063037234202,93.59275147446618,0.0
1413,-7.156675045004793,1.3556480506908,93.62428379861026,0.0
1414,-6.891708560210585,1.6105074958000778,93.65262529875567,0.0
1415,-6.626037593631597,1.86794839113317,93.67763625586771,0.0
1416,-6.377376520620553,2.1110646367604216,93.69917735374456,0.0
1417,-6.161001218106255,2.324989289924176,93.71710977897771,0.0
1418,-5.988606056454766,2.498220712176023,93.73129532475785,0.0
1419,-5.867601787429693,2.6234437128492285,93.74159649842181,0.0
1420,-5.800853685269557,2.6977725115810753,93.74787663262366,0.0
1421,-5.7868350732605105,2.722423344158447,93.75,1.0
1422,-5.8201657534143525,2.701905289875637,93.74623592309776,0.0
1423,-5.892502971414726,2.6428898193362587,93.73509453641226,0.0
1424,-5.99373126454686,2.552972991376741,93.71680455835384,0.0
1425,-6.113344274462033,2.4395685099598183,93.6915976963271,0.0
1426,-6.241837242727686,2.3091548031281004,93.65970830233834,0.0
1427,-6.371863201061817,2.1670381731219472,93.62137303724782,0.0
1428,-6.498882545903987,2.017687487313067,93.57683054436887,0.0
1429,-6.621081426540893,1.8655552937149364,93.52632113305243,0.0
1430,-6.738464130939845,1.7161495624695442,93.47008647283043,0.0
1431,-6.851234722249245,1.5769940403833038,93.40836929862921,0.0
1432,-6.957839135279633,1.4580527656140863,93.34141312750175,0.0
1433,-7.053270710784179,1.3712300786149518,93.26946198726792,0.0
1434,-7.128360247129436,1.3287096370983917,93.192760157392,0.0
1435,-7.1706997496636955,1.3401560753467279,93.1115519223723,0.0
1436,-7.167552458496507,1.4091305338262772,93.02608133786136,0.0
1437,-7.110599900436267,1.5293961194878576,92.93659200968521,0.0
1438,-7.0017467218507194,1.6820233870313857,92.84332688588007,0.0
1439,-6.8585846827907275,1.8342636133844485,92.74652806181844,0.0
1440,-6.717705000690532,1.9409809446046071,92.64643659845393,0.0
1441,-6.6340614403778195,1.949016149914299,92.54329235367246,0.0
1442,-6.675185436802696,1.8042519938906758,92.43733382670038,0.0
1443,-6.910242625914095,1.4604826029560425,92.32879801548523,0.0
1444,-7.395475409523293,0.8886166642181885,92.21792028693356,0.0
1445,-8.159059480247683,0.0844290002975725,92.10493425986103,0.0
1446,-9.189266735998375,-0.926864966684694,91.99007170048459,0.0
1447,-10.429614349393477,-2.0904688313502704,91.87356243026422,0.0
1448,-11.783241813989472,-3.326751007033078,91.75563424588086,0.0
1449,-13.126399568676037,-4.540356449984775,91.63651285112097,0.0
1450,-14.328371422551307,-5.632250379529184,91.51642180042369,0.0
1451,-15.273266222708884,-6.512628710223693,91.39558245383404,0.0
1452,-15.878578245734603,-7.112439030340278,91.27421394309759,0.0
1453,-16.106412830443084,-7.391552747145711,91.15253314862458,0.0
1454,-15.965418843231612,-7.342336395187609,91.03075468704704,0.0
1455,-15.503988465849291,-6.9883099218408615,90.9090909090909,0.0
1456,-14.797347899566162,-6.378524451055322,90.78775190748443,0.0
1457,-13.932210324792978,-5.579027559991127,90.66694553462678,0.0
1458,-12.992571833173038,-4.663164669271901,90.54687742974403,0.0
1459,-12.049265438060297,-3.7024441758123166,90.42775105526651,0.0
1460,-11.15450000633651,-2.7593251948075594,90.30976774216772,0.0
1461,-10.341237506812908,-1.8826988000641607,90.19312674401526,0.0
1462,-9.626215349406044,-1.106188370252703,90.07802529949421,0.0
1463,-9.014868167557989,-0.4488431607444603,89.96465870317584,0.0
1464,-8.50638088975806,0.08255311349249106,89.85322038431775,0.0
1465,-8.097526530372813,0.4904486584005885,89.74390199349708,0.0
1466,-7.7846223974995254,0.7835481286146004,89.63689349689325,0.0
1467,-7.563647631028275,0.9744225285844879,89.53238327805518,0.0
1468,-7.429104007726598,1.0779182377298284,89.43055824700572,0.0
1469,-7.372459379789714,1.1102955543420692,89.33160395655545,0.0
1470,-7.380980293674229,1.088836909937973,89.23570472571895,0.0
1471,-7.4375082837382775,1.0315953526714212,89.14304377014774,0.0
1472,-7.521373791730688,0.9569972055085092,89.05380333951763,0.0
1473,-7.610286098010054,0.8831345203378631,88.96816486183043,0.0
1474,-7.682777563054014,0.8267356877099905,88.88630909461659,0.0
1475,-7.720668249758982,0.8019402172890732,88.80841628304934,0.0
1476,-7.711059485626748,0.8190925163154997,88.73466632500899,0.0
1477,-7.6475246234432674,0.8837938194429611,88.66523894316376,0.0
1478,-7.530374802164179,0.9964138565288934,88.60031386416226,0.0
1479,-7.366067069969631,1.1521808786120364,88.54007100506405,0.0
1480,-7.165947135743662,1.3418640147442336,88.48469066716594,0.0
1481,-6.94457143578106,1.552959778676249,88.43435373741494,0.0
1482,-6.717852933935445,1.7712143464513266,88.38924189763408,0.0
1483,-6.5012494462632215,1.9822669408237314,88.34953784182322,0.0
1484,-6.308181589217891,2.173191229030707,88.31542550183559,0.0
1485,-6.148836169414256,2.33373811630193,88.28709028177113,0.0
1486,-6.0294748436050805,2.4571368085076872,88.26471930146968,0.0
1487,-5.952314363111981,2.5403808517820856,88.24850164953268,0.0
1488,-5.915963049321945,2.5840005998227205,88.2386286463484,0.0
1489,-5.916295291496826,2.5913927599571474,88.23529411764706,1.0
1490,-5.947554837656137,2.567833241066797,88.23666856014553,0.0
1491,-6.003443748790159,2.519336568032614,88.24074422137367,0.0
1492,-6.078001569594804,2.4515419117799926,88.24744995425532,0.0
1493,-6.166187379628736,2.368802805393975,88.2567150471789,0.0
1494,-6.264188445600198,2.27363597909924,88.26846918222775,0.0
1495,-6.369536790418808,2.1666446651576576,88.28264239470889,0.0
1496,-6.481097798656433,2.0469721248253347,88.29916503394588,0.0
1497,-6.598923684601853,1.913261064048212,88.31796772530485,0.0
1498,-6.723885939019987,1.7649962512951485,88.33898133342488,0.0
1499,-6.856967276551651,1.6040001383436167,88.36213692662669,0.0
1500,-6.998147456330993,1.4357531286016836,88.38736574247667,0.0
1501,-7.144973412340719,1.2701486873974432,88.41459915448411,0.0
1502,-7.291131909928567,1.1213000457166817,88.4437686399137,0.0
1503,-7.425563559461002,1.0061160413285364,88.47480574869601,0.0
1504,-7.5327662825682635,0.9415685540774059,88.5076420734214,0.0
1505,-7.59484489473083,0.9408664495982033,88.54220922040508,0.0
1506,-7.595530750230776,1.0090830138365368,88.57843878181232,0.0
1507,-7.5258450381736886,1.1390800318691932,88.61626230883519,0.0
1508,-7.390405509372166,1.3087428180395295,88.65561128591392,0.0
1509,-7.212749316055984,1.4805065269398785,88.69641710599738,0.0
1510,-7.037699023612749,1.603870271889113,88.73861104683931,0.0
1511,-6.928977880603324,1.6210753223122658,88.7821242483283,0.0
1512,-6.9611302901741,1.4754488265596633,88.82688769085077,0.0
1513,-7.206258306108898,1.1212271360852804,88.87283217468809,0.0
1514,-7.717809140957347,0.5331460496787161,88.91988830045032,0.0
1515,-8.51508894092402,-0.28612123996977146,88.96798645054994,0.0
1516,-9.572736512444614,-1.3023867175438548,89.01705677172087,0.0
1517,-10.818672210719301,-2.4513126430001684,89.06702915858857,0.0
1518,-12.142072366611695,-3.644873423603131,89.1178332382988,0.0
1519,-13.410237422268004,-4.782042924707189,89.16939835621328,0.0
1520,-14.490694994898616,-5.7619553558958865,89.22165356268164,0.0
1521,-15.273383500255946,-6.497268013262434,89.27452760089984,0.0
1522,-15.687812496011185,-6.925422091692395,89.32794889586651,0.0
1523,-15.71163928414988,-7.0159559546278984,89.38184554444885,0.0
1524,-15.369558638191142,-6.77285216809371,89.43614530657109,0.0
1525,-14.72392292756026,-6.231886766037115,89.49077559753881,0.0
1526,-13.86031152919165,-5.453861557293482,89.54566348151303,0.0
1527,-12.87191764384228,-4.515240393919253,89.60073566614854,0.0
1528,-11.846134762172984,-3.497966757258353,89.65591849841165,0.0
1529,-10.85547424717186,-2.4801069834796587,89.7111379615924,0.0
1530,-9.953438243224605,-1.5285292207641665,89.7663196735268,0.0
1531,-9.174656541271485,-0.6942395450765432,89.82138888604521,0.0
1532,-8.537760468547374,-0.010412483183006582,89.87627048566247,0.0
1533,-8.049226293399604,0.5072980212170488,89.93088899552565,0.0
1534,-7.706731729477299,0.8588290666699099,89.98516857863586,0.0
1535,-7.501250414805456,1.0568623800808399,90.03903304235902,0.0
1536,-7.417886995308018,1.1236436338976432,90.09240584424197,0.0
1537,-7.4360505650389745,1.0878506612045304,90.14521009914841,0.0
1538,-7.529793286069583,0.9816938506577321,90.19736858772991,0.0
1539,-7.668979360940288,0.8382898266397919,90.24880376624584,0.0
1540,-7.821523297054536,0.6892894584072071,90.29943777774615,0.0
1541,-7.956452485266945,0.5627545349057954,90.34919246462958,0.0
1542,-8.047201566671681,0.4813327080831543,90.39798938258966,0.0
1543,-8.074442445594602,0.4608387550616886,90.44574981595927,0.0
1544,-8.027889995561413,0.5093797615847397,90.49239479446413,0.0
1545,-7.906808763425044,0.6271459728443418,90.53784511139393,0.0
1546,-7.719257138254865,0.8069288698794519,90.58202134319886,0.0
1547,-7.480341239192807,1.0353384137885842,90.62484387051775,0.0
1548,-7.2098638962959125,1.294594186490751,90.66623290064283,0.0
1549,-6.929753362120939,1.5646820164314499,90.70610849142395,0.0
1550,-6.66158572125049,1.8256150013054704,90.74439057661438,0.0
1551,-6.424424084960652,2.059524419949773,90.78099899265722,0.0
1552,-6.233119961684984,2.2523331621778393,90.81585350691068,0.0
1553,-6.09716855259027,2.3948272741116785,90.84887384730808,0.0
1554,-6.020175250383969,2.483030981535847,90.8799797334458,0.0
1555,-5.999964081464613,2.5178950307080936,90.9090909090909,1.0
1556,-6.029326934264924,2.5044129739792895,90.93729718068454,0.0
1557,-6.097360116809217,2.4503690531636546,90.96572856857726,0.0
1558,-6.1912502347734675,2.3649780983403232,90.99436514032288,0.0
1559,-6.29825977237335,2.257687846486827,91.0231869154762,0.0
1560,-6.40755803676227,2.1373683728490547,91.05217386469155,0.0
1561,-6.511500562245862,2.0120127286353826,91.08130590890767,0.0
1562,-6.606027957839954,1.8889311958264432,91.1105629186196,0.0
1563,-6.690044735678177,1.7752662985768461,91.13992471323841,0.0
1564,-6.763914402920162,1.678524806504608,91.1693710605386,0.0
1565,-6.827500896039177,1.6067573265769353,91.19888167619469,0.0
1566,-6.878418211127721,1.56804878777048,91.22843622340676,0.0
1567,-6.911241436590875,1.569127869924841,91.25801431261634,0.0
1568,-6.9183180872695,1.613145508553537,91.28759550131244,0.0
1569,-6.892467689213995,1.6969659239296293,91.31715929392898,0.0
1570,-6.831301898599936,1.8085862564769384,91.34668514183404,0.0
1571,-6.7422497567161335,1.9254697812889332,91.37615244341147,0.0
1572,-6.64681600319354,2.0145702522407216,91.40554054423544,0.0
1573,-6.582347862140993,2.034602733452762,91.43482873733883,0.0
1574,-6.59982018541571,1.9406936835854118,91.46399626357598,0.0
1575,-6.756949894625652,1.6909940134557582,91.49302231207994,0.0
1576,-7.107222676305514,1.2542867992050843,91.52188602081576,0.0
1577,-7.6868491450078364,0.6172120389299312,91.55056647722947,0.0
1578,-8.502786841547348,-0.2104067050170102,91.57904271899406,0.0
1579,-9.525275489470099,-1.1934426615143754,91.60729373485259,0.0
1580,-10.687550508613374,-2.2733252232911525,91.63529846555896,0.0
1581,-11.893631686850105,-3.3738869128023588,91.6630358049176,0.0
1582,-13.032857340652361,-4.410389324523463,91.69048460092145,0.0
1583,-13.997911449675277,-5.300245360426231,91.71762365698976,0.0
1584,-14.702146281327297,-5.97359054809199,91.74443173330567,0.0
1585,-15.09232887657,-6.3818901624111755,91.77088754825404,0.0
1586,-15.154345406525833,-6.503188258690267,91.79696977996022,0.0
1587,-14.91133770187634,-6.343300260025836,91.82265706793007,0.0
1588,-14.415584896105079,-5.933049780796727,91.84792801479117,0.0
1589,-13.736690270501438,-5.322365875310714,91.87276118813654,0.0
1590,-12.94905933895221,-4.572536857764304,91.89713512246996,0.0
1591,-12.121287859884488,-3.7480799081357046,91.92102832125413,0.0
1592,-11.309142285792342,-2.909534483628083,91.94441925906158,0.0
1593,-10.55264553530452,-2.108098411235699,91.96728638382818,0.0
1594,-9.87672108983535,-1.3825202169680442,91.98960811921006,0.0
1595,-9.294149740142878,-0.7581706439255271,92.01136286704336,0.0
1596,-8.809359314623407,-0.24784672218516424,92.0325290099075,0.0
1597,-8.421760975905991,0.14632768923477313,92.05308491379137,0.0
1598,-8.127835214355171,0.4305454054524458,92.0730089308628,0.0
1599,-7.921781218813323,0.6170048828562666,92.09227940234128,0.0
1600,-7.79509307525888,0.7219325404780343,92.11087466147329,0.0
1601,-7.735764366777002,0.7640121773052956,92.12877303661055,0.0
1602,-7.727869795671815,0.7631385447164216,92.14595285439053,0.0
1603,-7.752046786223685,0.7393424998196498,92.16239244301926,0.0
1604,-7.787009787935019,0.7117509147687416,92.17807013565573,0.0
1605,-7.811829301390962,0.6975192507918525,92.1929642738974,0.0
1606,-7.808437056221214,0.7107697367607717,92.20705321136677,0.0
1607,-7.763756084092476,0.761646195527814,92.2203153173977,0.0
1608,-7.670993899549716,0.8556327121074043,92.23272898082136,0.0
1609,-7.5299023320178256,0.9932697377737907,92.24427261385095,0.0
1610,-7.34609003634454,1.1703461673142612,92.25492465606409,0.0
1611,-7.129676929057022,1.3785681021410507,92.26466357848238,0.0
1612,-6.8936528567308715,1.6066260104167813,92.27346788774706,0.0
1613,-6.65225178884648,1.8415198038843852,92.28131613038929,0.0
1614,-6.419529369708545,2.069966664838886,92.28818689719479,0.0
1615,-6.208205262898382,2.2797122142959507,92.29405882766069,0.0
1616,-6.028757020425181,2.4605888864826,92.2989106145439,0.0
1617,-5.888745166957801,2.6052100853705165,92.30272100849947,0.0
1618,-5.792385315723881,2.7092477284569276,92.30546882280738,0.0
1619,-5.7404191224751955,2.7713067713856696,92.30713293818623,0.0
1620,-5.730338622685664,2.792475294887915,92.3076923076923,1.0
1621,-5.756980239275265,2.775683475352964,92.3076923076923,0.0
1622,-5.813437243458541,2.725038692461127,92.3076923076923,0.0
1623,-5.8921599503111795,2.645306616773808,92.3076923076923,0.0
1624,-5.98603946095322,2.5416716492461324,92.3076923076923,0.0
1625,-6.08922693563527,2.4198333157342504,92.3076923076923,0.0
1626,-6.197454845514524,2.2863867738431694,92.3076923076923,0.0
1627,-6.307719989146205,2.1493155859839708,92.3076923076923,0.0
1628,-6.417357603221226,2.0183235230139207,92.3076923076923,0.0
1629,-6.5227521850690975,1.9046843385747838,92.3076923076923,0.0
1630,-6.6181447250737335,1.820325131920916,92.3076923076923,0.0
1631,-6.695144807332337,1.775996304628977,92.3076923076923,0.0
1632,-6.743562912123237,1.7786108630112514,92.3076923076923,0.0
1633,-6.753966643807392,1.828119573863372,92.3076923076923,0.0
1634,-6.721898641740825,1.9145601444623885,92.3076923076923,0.0
1635,-6.653031886210168,2.01609609865678,92.3076923076923,0.0
1636,-6.567859114380827,2.0988668309566125,92.3076923076923,0.0
1637,-6.5040845787541395,2.1192565066907654,92.3076923076923,0.0
1638,-6.514973731720634,2.0287601473535313,92.3076923076923,0.0
1639,-6.662667064044334,1.7810480220272158,92.3076923076923,0.0
1640,-7.006809310550618,1.3402292711834305,92.3076923076923,0.0
1641,-7.590458134947207,0.6888487079843892,92.3076923076923,0.0
1642,-8.42658677634573,-0.16603678700387192,92.3076923076923,0.0
1643,-9.489013769900483,-1.1901730835944782,92.3076923076923,0.0
1644,-10.710913465556029,-2.3237320818915244,92.3076923076923,0.0
1645,-11.992235344360612,-3.4873375048065745,92.3076923076923,0.0
1646,-13.214914138363966,-4.591677849192054,92.3076923076923,0.0
1647,-14.262513140185852,-5.54911479246311,92.3076923076923,0.0
1648,-15.039693696011046,-6.285246741356091,92.3076923076923,0.0
1649,-15.48704793410033,-6.748381037491111,92.3076923076923,0.0
1650,-15.58824147874426,-6.91530668468903,92.3076923076923,0.0
1651,-15.368534720416486,-6.792532107539635,92.3076923076923,0.0
1652,-14.88588102629754,-6.413069178150321,92.3076923076923,0.0
1653,-14.217359751727907,-5.82968863623707,92.3076923076923,0.0
1654,-13.444387054919433,-5.106156899091516,92.3076923076923,0.0
1655,-12.639932143517727,-4.308179792381317,92.3076923076923,0.0
1656,-11.860031082074386,-3.4956119382604407,92.3076923076923,0.0
1657,-11.140545993829347,-2.7170200868815995,92.3076923076923,0.0
1658,-10.498737860779956,-2.0070563552054934,92.3076923076923,0.0
1659,-9.938157436545294,-1.3864664365051786,92.3076923076923,0.0
1660,-9.454844893208733,-0.8640706971831269,92.3076923076923,0.0
1661,-9.042917684325822,-0.43980177273227117,92.3076923076923,0.0
1662,-8.698194732759424,-0.10788170219670912,92.3076923076923,0.0
1663,-8.419320823474843,0.14056838312821185,92.3076923076923,0.0
1664,-8.206662827019448,0.3158600084840639,92.3076923076923,0.0
1665,-8.059842562390548,0.42903220086935434,92.3076923076923,0.0
1666,-7.9750328422298375,0.49185092667154073,92.3076923076923,0.0
1667,-7.943057295293531,0.5171048148786749,92.3076923076923,0.0
1668,-7.948972158279986,0.5187846984649112,92.3076923076923,0.0
1669,-7.973299579882475,0.5118511696409278,92.3076923076923,0.0
1670,-7.994580490383589,0.5114796458386478,92.3076923076923,0.0
1671,-7.992559158190019,0.5318647817016612,92.3076923076923,0.0
1672,-7.951188687119313,0.5848121334447436,92.3076923076923,0.0
1673,-7.8607688557978985,0.6784125550326129,92.3076923076923,0.0
1674,-7.718829909836258,0.8160778104109303,92.3076923076923,0.0
1675,-7.52974314357194,0.9961315383644531,92.3076923076923,0.0
1676,-7.303350251502957,1.2120296941986823,92.3076923076923,0.0
1677,-7.053072987662714,1.4531637789341225,92.3076923076923,0.0
1678,-6.7939668973323455,1.7061064992457684,92.3076923076923,0.0
1679,-6.541052686859026,1.9561078781698762,92.3076923076923,0.0
1680,-6.308071213018091,2.1886410325456525,92.3076923076923,0.0
1681,-6.106643853150302,2.3908208258192083,92.3076923076923,0.0
1682,-5.945731208991778,2.5525603802658443,92.3076923076923,0.0
1683,-5.831276691708555,2.6673759314073946,92.3076923076923,0.0
1684,-5.765969936769456,2.732790792670602,92.3076923076923,0.0
1685,-5.749131278753383,2.7503218857413962,92.3076923076923,1.0
1686,-5.776774288490136,2.7250603341273436,92.3026693494968,0.0
1687,-5.841929855564335,2.6648863286980182,92.28779412607146,0.0
1688,-5.935298828758466,2.5793920467973,92.26336156815913,0.0
1689,-6.046237279853671,2.4786251190621225,92.22967205443933,0.0
1690,-6.163986580207387,2.3718040993101748,92.18703080726853,0.0
1691,-6.2789763028294105,2.2661871405922525,92.13574730095907,0.0
1692,-6.383985948818636,2.1662838056491243,92.0761346842849,0.0
1693,-6.474961865268054,2.0735767170883888,92.0085092187559,0.0
1694,-6.55133346947946,1.9868580103281643,91.93318973405736,0.0
1695,-6.615737448037386,1.9031860822238513,91.85049710190519,0.0
1696,-6.673131886942668,1.81934105992938,91.76075372942331,0.0
1697,-6.729367945596661,1.73352265839491,91.66428307300761,0.0
1698,-6.789387645026084,1.6469197694586888,91.56140917350268,0.0
1699,-6.855328267986829,1.564719581986739,91.45245621338252,0.0
1700,-6.924926311312082,1.4961454220045503,91.33774809649758,0.0
1701,-6.990706672474111,1.4532364680081662,91.21760805082577,0.0
1702,-7.040473924738586,1.4483094547988205,91.09235825454691,0.0
1703,-7.059525200366977,1.4903468349724327,90.96231948564875,0.0
1704,-7.034711314308851,1.580884074936843,90.82781079516724,0.0
1705,-6.959967196376127,1.7102448562772046,90.68914920406607,0.0
1706,-6.842293008456079,1.8551127532488976,90.54664942366935,0.0
1707,-6.7065778458327365,1.9783605556313977,90.40062359947852,0.0
1708,-6.59737019031639,2.03175037430992,90.2513810781275,0.0
1709,-6.57595068402423,1.9615927917558347,90.09922819716246,0.0
1710,-6.711970854460247,1.7167999181068332,89.94446809727056,0.0
1711,-7.070384456517361,1.2581271286058249,89.78740055652764,0.0
1712,-7.696050498399955,0.5669365911492705,89.62832184618819,0.0
1713,-8.59966378961218,-0.3483229770756384,89.46752460750007,0.0
1714,-9.748998436987089,-1.449462866364955,89.30529774899263,0.0
1715,-11.068516908608466,-2.670624319528526,89.14192636365958,0.0
1716,-12.448346923229545,-3.925064188653277,88.97769166543642,0.0
1717,-13.761076987396502,-5.115686382738085,88.81287094435652,0.0
1718,-14.882632871399768,-6.147558525052696,88.6477375397595,0.0
1719,-15.712418868671534,-6.940227997003581,88.48256083092106,0.0
1720,-16.188255422171128,-7.437696110653549,88.31760624447236,0.0
1721,-16.29320555194336,-7.614409744846891,88.15313527798192,0.0
1722,-16.053564700730675,-7.47645981680175,87.98940553908122,0.0
1723,-15.529403238806504,-7.05813284885645,87.82667079952738,0.0
1724,-14.800556012038813,-6.414822900380595,87.66518106361286,0.0
1725,-13.951567978694982,-5.613891173779265,87.50518265035086,0.0
1726,-13.058811968476943,-4.725255704710701,87.34691828888766,0.0
1727,-12.181992795474379,-3.8132996119064573,87.19062722661896,0.0
1728,-11.36088479029724,-2.931190645692764,87.03654534951411,0.0
1729,-10.616805930340442,-2.118055078850465,86.88490531418343,0.0
1730,-9.957334004072463,-1.3988112084210547,86.73593669125536,0.0
1731,-9.382299358536962,-0.785983570404661,86.58986611966542,0.0
1732,-8.889170122278454,-0.2825746400972673,86.44691747149452,0.0
1733,-8.476479993926846,0.11491670414243793,86.30731202703296,0.0
1734,-8.144750236766225,0.4140185186072607,86.17126865978584,0.0
1735,-7.895192361879739,0.6246987011478813,86.03900403117647,0.0
1736,-7.727114851400145,0.7586619441321809,85.91073279474818,0.0
1737,-7.635234570827234,0.8292519336613196,85.78666780970806,0.0
1738,-7.6079727279126335,0.8515441325289412,85.66702036370225,0.0
1739,-7.6273870031868665,0.8422288082309641,85.55200040476001,0.0
1740,-7.6708296853103475,0.8190199861793221,85.44181678239127,0.0
1741,-7.713911893499166,0.7995275606435313,85.33667749787392,0.0
1742,-7.734031284378185,0.799731810438838,85.23678996381734,0.0
1743,-7.713639030337168,0.8323462606112955,85.14236127314408,0.0
1744,-7.642558504133946,0.9054126684197905,85.05359847768482,0.0
1745,-7.518949750055363,1.0214348064289196,84.97070887664175,0.0
1746,-7.348848289149956,1.177244454578896,84.89390031523314,0.0
1747,-7.144507901330678,1.3646388781055734,84.82338149389552,0.0
1748,-6.92198136065583,1.5716747562529843,84.75936228848454,0.0
1749,-6.69845179008879,1.7843845690652298,84.70205408198382,0.0
1750,-6.48978945880411,1.988620596479358,84.65167010830264,0.0
1751,-6.3086908486239075,2.171735528828724,84.60842580881913,0.0
1752,-6.163601262540843,2.3238685443521447,84.57253920240474,0.0
1753,-6.058461241923623,2.4387017781177747,84.54423126975084,0.0
1754,-5.993171253106041,2.5136594494244866,84.52372635290779,0.0
1755,-5.9645572308790635,2.549616680636724,84.51125257104223,0.0
1756,-5.967561405972588,2.550249633475331,84.50704225352113,1.0
1757,-5.996388830367846,2.5211848583523166,84.50737414231604,0.0
1758,-6.045401027153964,2.4690957577494315,84.50836466584066,0.0
1759,-6.10964077635083,2.400858447672501,84.5100061323622,0.0
1760,-6.184974380348597,2.3228337511871042,84.51229087927163,0.0
1761,-6.267936690430803,2.240302702679381,84.5152112719073,0.0
1762,-6.355444959944964,2.15706169604462,84.51875970239541,0.0
1763,-6.44458320756346,2.0751843667446357,84.52292858850738,0.0
1764,-6.532620648972717,1.994975136382175,84.52771037253372,0.0
1765,-6.617312883567504,1.915160446105105,84.53309752017408,0.0
1766,-6.697380656825495,1.8333700543079379,84.5390825194434,0.0
1767,-6.772931675276341,1.7469360220376344,84.5456578795938,0.0
1768,-6.845542533410562,1.6539731177269819,84.55281613005207,0.0
1769,-6.9177761538299505,1.5546068875526928,84.56054981937238,0.0
1770,-6.992068254807866,1.4521056122422946,84.56885151420435,0.0
1771,-7.069141924304289,1.3535836477539478,84.57771379827584,0.0
1772,-7.1463495263278745,1.2699153441543656,84.58712927139062,0.0
1773,-7.216527704300989,1.2145641413062649,84.59709054844053,0.0
1774,-7.268014111273878,1.2012057719353777,84.60759025843214,0.0
1775,-7.286360172838951,1.2402948832121572,84.61862104352743,0.0
1776,-7.257959117637863,1.3350455143856632,84.63017555809878,0.0
1777,-7.175307049678637,1.477594168895743,84.64224646779769,0.0
1778,-7.042993220877099,1.6463015527874614,84.65482644863725,0.0
1779,-6.882913464787839,1.8051444775637262,84.66790818608843,0.0
1780,-6.736833943680981,1.905904676239163,84.68148437418961,0.0
1781,-6.664543341946433,1.8933830397065896,84.69554771466967,0.0
1782,-6.736582240055101,1.7132288531345865,84.71009091608413,0.0
1783,-7.0218902349816545,1.3213064872052789,84.72510669296467,0.0
1784,-7.57236345821011,0.6929925476251241,84.74058776498138,0.0
1785,-8.407749916859665,-0.1694380811821028,84.7565268561183,0.0
1786,-9.504951793033092,-1.2330171596864257,84.77291669386138,0.0
1787,-10.795246195907014,-2.4349929174206317,84.78975000839944,0.0
1788,-12.171155703716313,-3.6886880582509205,84.80701953183785,0.0
1789,-13.502148842979471,-4.893563319060422,84.82471799742454,0.0
1790,-14.655841544845401,-5.947875359484021,84.84283813878874,0.0
1791,-15.519774676823985,-6.761778643802366,84.86137268919202,0.0
1792,-16.018727236456716,-7.268642631671526,84.88031438079193,0.0
1793,-16.1239141188024,-7.432750803152562,84.89965594391768,0.0
1794,-15.852791675097409,-7.252308805657475,84.91939010635839,0.0
1795,-15.260714379606414,-6.757620175194591,84.93950959266336,0.0
1796,-14.427533153368554,-6.005165205461159,84.96000712345474,0.0
1797,-13.442907943760076,-5.068950595833891,84.98087541475225,0.0
1798,-12.393604342164947,-4.030774697562777,85.00210717730995,0.0
1799,-11.354746396152041,-2.9709664860477405,85.02369511596548,0.0
1800,-10.385483506620206,-1.9607862009902979,85.04563192900096,0.0
1801,-9.528308635504164,-1.0571567809602347,85.06791030751633,0.0
1802,-8.81061632801631,-0.29987250434740764,85.09052293481453,0.0
1803,-8.247037698191106,0.28898044127246414,85.11346248579898,0.0
1804,-7.841485764313338,0.703896364804381,85.13672162638288,0.0
1805,-7.588459702496435,0.9536851807715234,85.16029301291074,0.0
1806,-7.473754295054733,1.0585727841767305,85.18416929159207,0.0
1807,-7.475108367602396,1.047035538938518,85.20834309794698,0.0
1808,-7.563400287581467,0.9526011401224171,85.23280705626397,0.0
1809,-7.704775758687747,0.810752151299697,85.25755377906995,0.0
1810,-7.863697548706852,0.6560284183371228,85.28257586661229,0.0
1811,-8.00651544860533,0.5194298492588333,85.30786590635311,0.0
1812,-8.10492152630548,0.4262457562577082,85.33341647247586,0.0
1813,-8.138651395308996,0.394452547713402,85.35922012540397,0.0
1814,-8.096987846684266,0.43380780708638544,85.385269411332,0.0
1815,-7.9789202994735575,0.5457194554504768,85.4115568617691,0.0
1816,-7.792099038471901,0.7238912810827518,85.43807499309466,0.0
1817,-7.550917445601867,0.955657227081897,85.46481630612665,0.0
1818,-7.274131480747234,1.2238355682722684,85.4917732857024,0.0
1819,-6.982400124053213,1.5088762483625908,85.51893840027164,0.0
1820,-6.6960417330625885,1.7910491296839153,85.54630410150263,0.0
1821,-6.43319069568069,2.0524292119843985,85.57386282390063,0.0
1822,-6.20843940628517,2.278472629993096,85.60160698443906,0.0
1823,-6.031981241243245,2.459036874069482,85.62952898220377,0.0
1824,-5.909234049995023,2.588771910066529,85.65762119804984,0.0
1825,-5.84091205230578,2.66688813540218,85.68587599427167,0.0
1826,-5.823513364721873,2.6963856685100076,85.71428571428572,1.0
1827,-5.850186625301641,2.682900581627931,85.7452640768072,0.0
1828,-5.91191923608485,2.6333795084162466,85.78112709371125,0.0
1829,-5.998940895687807,2.554825229836938,85.82172137945736,0.0
1830,-6.102162909874985,2.4533524337874786,85.86689453612016,0.0
1831,-6.214402910892752,2.333746865677959,85.9164949836794,0.0
1832,-6.331118519826775,2.1996301107751677,85.97037179632862,0.0
1833,-6.450426355929785,2.054203050063313,86.02837454459623,0.0
1834,-6.572318327564032,1.90139179982758,86.09035314309696,0.0
1835,-6.697177341748898,1.7470797365638666,86.15615770375602,0.0
1836,-6.82389752974198,1.6000138863717042,86.22563839437016,0.0
1837,-6.948089964623635,1.471958787616592,86.29864530239233,0.0
1838,-7.060966412680646,1.3767609938150072,86.3750283038468,0.0
1839,-7.149498861866901,1.3281878322816143,86.45463693730193,0.0
1840,-7.198306567511347,1.3366929265286984,86.53732028284668,0.0
1841,-7.193396184885743,1.4055873978316094,86.62292684603561,0.0
1842,-7.127387174305329,1.5273853122805812,86.71130444678431,0.0
1843,-7.005269326341726,1.6812610912703776,86.80230011321495,0.0
1844,-6.849207087478579,1.832532585280541,86.89575998046706,0.0
1845,-6.7006274797004615,1.934827748341358,86.99152919450515,0.0
1846,-6.618012328616205,1.9351199986958938,87.08945182096909,0.0
1847,-6.669585832114966,1.781203449808337,87.18937075912835,0.0
1848,-6.921384938770087,1.4305533433613737,87.29112766101383,0.0
1849,-7.422721748229711,0.8590351660038928,87.39456285581535,0.0
1850,-8.192301141150356,0.06773126195971135,87.49951527964438,0.0
1851,-9.208721429197753,-0.9136662176995005,87.60582241077375,0.0
1852,-10.40843489377247,-2.0278933217202506,87.71332021047698,0.0
1853,-11.69253101638179,-3.1957523970904145,87.82184306960033,0.0
1854,-12.941397725453093,-4.325596844784063,87.93122376100996,0.0
1855,-14.034151948294454,-5.32510822297945,88.04129339806565,0.0
1856,-14.868427793470941,-6.113326758547485,88.1518813992801,0.0
1857,-15.376080916995601,-6.630846953127147,88.26281545933037,0.0
1858,-15.53157260341909,-6.846486056581057,88.3739215265931,0.0
1859,-15.351799326744832,-6.759473962597915,88.48502378738166,0.0
1860,-14.888289248540397,-6.397116011997751,88.59594465706631,0.0
1861,-14.2143760064748,-5.808731859733439,88.70650477826155,0.0
1862,-13.41077165248744,-5.057286468800216,88.81652302626748,0.0
