,PPG_Raw,PPG_Clean,PPG_Rate,PPG_Peaks
0,-0.034980202284683126,0.0018861711649422984,95.6937799043062,0.0
1,-0.0309535157854694,0.005705548450350106,95.6937799043062,0.0
2,-0.027089627275129008,0.009363074303254053,95.6937799043062,0.0
3,-0.023543154969939632,0.012708556850205992,95.6937799043062,0.0
4,-0.02044835498874619,0.015615389458654833,95.6937799043062,0.0
5,-0.017908771907896658,0.017989356870105024,95.6937799043062,0.0
6,-0.01598752001579078,0.019774131410811795,95.6937799043062,0.0
7,-0.014700881403526385,0.020952927573847414,95.6937799043062,0.0
8,-0.014018172254175745,0.021546278017376005,95.6937799043062,0.0
9,-0.013869380194563461,0.021606434122578365,95.6937799043062,0.0
10,-0.014159312687150424,0.021209370482586705,95.6937799043062,0.0
11,-0.014784311802468317,0.020445666801701862,95.6937799043062,0.0
12,-0.015646546117183496,0.019411570823822454,95.6937799043062,0.0
13,-0.01666216150736247,0.018201305218090914,95.6937799043062,0.0
14,-0.01776248352902042,0.016901248388047678,95.6937799043062,0.0
15,-0.018890434815036317,0.015586131956082161,95.6937799043062,0.0
16,-0.0199958700069327,0.014317001575655474,95.6937799043062,0.0
17,-0.021033082550191845,0.013140480875656111,95.6937799043062,0.0
18,-0.021961859667905394,0.012088879119136076,95.6937799043062,0.0
19,-0.022751314215341857,0.011180832620471074,95.6937799043062,0.0
20,-0.02338433093194236,0.010422365163929543,95.6937799043062,0.0
21,-0.0238602736883872,0.009808393442176135,95.6937799043062,0.0
22,-0.024194460089264354,0.00932473175464232,95.6937799043062,0.0
23,-0.024414300405754555,0.008950566581075719,95.6937799043062,0.0
24,-0.024553283444002396,0.008661226677076313,95.6937799043062,0.0
25,-0.024644667872183106,0.008430940958440242,95.6937799043062,0.0
26,-0.02471663014696671,0.00823521791551382,95.6937799043062,0.0
27,-0.02478991323465267,0.008052526594675289,95.6937799043062,0.0
28,-0.02487808278684532,0.007865099484052148,95.6937799043062,0.0
29,-0.024989676068077477,0.007658869163040953,95.6937799043062,0.0
30,-0.025131051424028734,0.007422737655415767,95.6937799043062,0.0
31,-0.025308713917565534,0.007147512012275619,95.6937799043062,0.0
32,-0.025530280327628094,0.006824895317205102,95.6937799043062,0.0
33,-0.02580389443040125,0.006446897556854483,95.6937799043062,0.0
34,-0.02613654804822986,0.006005942224110234,95.6937799043062,0.0
35,-0.02653212709720608,0.005495814458590856,95.6937799043062,0.0
36,-0.026989926254166085,0.004913441927279763,95.6937799043062,0.0
37,-0.027503944392512938,0.0042613278337177984,95.6937799043062,0.0
38,-0.028062790591485073,0.0035502689793399734,95.6937799043062,0.0
39,-0.02864978916589326,0.0028017998974348623,95.6937799043062,0.0
40,-0.029242945028724293,0.0020496344456727026,95.6937799043062,0.0
41,-0.029814720737620662,0.001339280357498137,95.6937799043062,0.0
42,-0.030331928270052832,0.0007250491862500277,95.6937799043062,0.0
43,-0.030756315027430457,0.00026394187342583704,95.6937799043062,0.0
44,-0.03104663555471447,6.398078029751404e-06,95.6937799043062,0.0
45,-0.031163239835831053,-1.5364223182896992e-05,95.6937799043062,0.0
46,-0.03107631484413861,0.00020017507030289147,95.6937799043062,0.0
47,-0.03077837079940267,0.0006129487280577403,95.6937799043062,0.0
48,-0.030299900404712497,0.0011349011132292374,95.6937799043062,0.0
49,-0.029724525763707703,0.001630910074466847,95.6937799043062,0.0
50,-0.029197427712919142,0.0019290538491285084,95.6937799043062,0.0
51,-0.028919987326612523,0.0018406733845394803,95.6937799043062,0.0
52,-0.02912563477780003,0.0011885620327538966,95.6937799043062,0.0
53,-0.030037065199948816,-0.00016061457818284438,95.6937799043062,0.0
54,-0.031811904706248784,-0.0022653283339654634,95.6937799043062,0.0
55,-0.0344900347189092,-0.005086018858986879,95.6937799043062,0.0
56,-0.0379583133366477,-0.008475462532347709,95.6937799043062,0.0
57,-0.04194564625890327,-0.012186292519516317,95.6937799043062,0.0
58,-0.046053621929181957,-0.015896107869299993,95.6937799043062,0.0
59,-0.049817779085751496,-0.019247060014177038,95.6937799043062,0.0
60,-0.05278570358708671,-0.02189371942830581,95.6937799043062,0.0
61,-0.054593708628510866,-0.023551156084865098,95.6937799043062,0.0
62,-0.05502509850528842,-0.024034967926273316,95.6937799043062,0.0
63,-0.05403897104369577,-0.023286495869197385,95.6937799043062,0.0
64,-0.05176665269817358,-0.021379293155370363,95.6937799043062,0.0
65,-0.04848035092282327,-0.01850640169364929,95.6937799043062,0.0
66,-0.044543461111200965,-0.014951358512887607,95.6937799043062,0.0
67,-0.04035359151540096,-0.011048436197982141,95.6937799043062,0.0
68,-0.03628837957885981,-0.007138976432508081,95.6937799043062,0.0
69,-0.03266169641681228,-0.0035306745261802015,95.6937799043062,0.0
70,-0.029694872119800438,-0.0004654731296211017,95.6937799043062,0.0
71,-0.02750469756474675,0.001900303823955631,95.6937799043062,0.0
72,-0.026107371503461357,0.0035023235286849455,95.6937799043062,0.0
73,-0.02543533271318405,0.004362123619529049,95.6937799043062,0.0
74,-0.02536221622661931,0.004571248350923573,95.6937799043062,0.0
75,-0.025730347288709644,0.004269407559194913,95.6937799043062,0.0
76,-0.026375587717894,0.003620651707211503,95.6937799043062,0.0
77,-0.0271460055915652,0.0027910983852277586,95.6937799043062,0.0
78,-0.02791324011689083,0.0019308175548493434,95.6937799043062,0.0
79,-0.028577656272262168,0.0011613463250462102,95.6937799043062,0.0
80,-0.029069548268945516,0.0005692011213680773,95.6937799043062,0.0
81,-0.029348422011408217,0.00020485873930644466,95.6937799043062,0.0
82,-0.029401186007681678,8.607221060975877e-05,95.6937799043062,0.0
83,-0.02923884708067865,0.00020407890288912903,95.6937799043062,0.0
84,-0.02889093235935241,0.000531205329472035,95.6937799043062,0.0
85,-0.028397628387122273,0.0010285188426301102,95.6937799043062,0.0
86,-0.027801034529691043,0.0016524675233154473,95.6937799043062,0.0
87,-0.027137988326295718,0.0023598376080794393,95.6937799043062,0.0
88,-0.02643680451063283,0.003110788307784391,95.6937799043062,0.0
89,-0.025718825295546373,0.0038701285888134845,95.6937799043062,0.0
90,-0.025003540538738545,0.004607303350494785,95.6937799043062,0.0
91,-0.024314292952074254,0.005295695608240507,95.6937799043062,0.0
92,-0.02368122216248086,0.0059118068998464425,95.6937799043062,0.0
93,-0.023139456327169693,0.00643468903152394,95.6937799043062,0.0
94,-0.022723033423969117,0.0068457564068907,95.6937799043062,0.0
95,-0.02245732534961207,0.0071289168735691015,95.6937799043062,0.0
96,-0.022353572356190687,0.007270898308751962,95.6937799043062,1.0
97,-0.02240806239689886,0.007261728982504412,95.60230921482508,0.0
98,-0.022606153210620733,0.007095486784702073,95.51386335087378,0.0
99,-0.022929017796680336,0.006771550493988145,95.42838085346523,0.0
100,-0.023359820597671242,0.006296552133350842,95.3458011728123,0.0
101,-0.023886405728094338,0.00568698683208348,95.26606463281449,0.0
102,-0.02449915214261711,0.004972020979577583,95.18911239667668,0.0
103,-0.02518468201387867,0.004195577670250591,95.11488643361875,0.0
104,-0.025917857969249447,0.003416452664971373,95.04332948663608,0.0
105,-0.0266554517922002,0.0027052023804297488,94.97438504127348,0.0
106,-0.027334771222227612,0.0021369584620752466,94.90799729537696,0.0
107,-0.02787943363627762,0.0017801573525557369,94.84411112978879,0.0
108,-0.028212668306033965,0.0016822922959107195,94.78267207995435,0.0
109,-0.028276466860785228,0.0018549510202765418,94.72362630840944,0.0
110,-0.028053053020791155,0.0022612853647635623,94.6669205781188,0.0
111,-0.027583861213061132,0.002809372067515155,94.61250222663882,0.0
112,-0.026980716725233514,0.003354461283828546,94.5603191410771,0.0
113,-0.026424362847667998,0.003711825207235485,94.51031973382484,0.0
114,-0.026147069461655525,0.003679965975950951,94.46245291903769,0.0
115,-0.026398915647968715,0.0030716669699475266,94.41666808984237,0.0
116,-0.027401301194680032,0.0017482621145356162,94.37291509624878,0.0
117,-0.029295590023749606,-0.00034891935704696323,94.33114422374585,0.0
118,-0.032098214449774724,-0.003176264706812171,94.29130617256322,0.0
119,-0.035674496277424854,-0.006580024759718016,94.25335203757982,0.0
120,-0.03974069508810152,-0.010305871821043235,94.2172332888623,0.0
121,-0.04389741770202613,-0.014025704294479,94.18290175281751,0.0
122,-0.047689224189400484,-0.017378211149748485,94.15030959394278,0.0
123,-0.050677946771374494,-0.020016940489997196,94.11940929716037,0.0
124,-0.05251362559683654,-0.021658029781074558,94.09015365072169,0.0
125,-0.052988210354890285,-0.022119704762749506,94.06249572966888,0.0
126,-0.05206240584588718,-0.02134713133116609,94.03638887984116,0.0
127,-0.04986305804427356,-0.019418855178992167,94.01178670241488,0.0
128,-0.046654950825281455,-0.01653429582881684,93.98864303896612,0.0
129,-0.042795209019242365,-0.012984906986154227,93.96691195704615,0.0
130,-0.03868008891396392,-0.009114090924830974,93.94654773625987,0.0
131,-0.03469309859898694,-0.005272379018096102,93.92750485483862,0.0
132,-0.031161080295149583,-0.0017746308285357918,93.90973797669909,0.0
133,-0.02832226439569793,0.0011348411949902576,93.89320193898048,0.0
134,-0.02630819966536507,0.003304979097406644,93.87785174005258,0.0
135,-0.02514003333088491,0.004686406818636626,93.86364252798853,0.0
136,-0.02473847648516039,0.0053256933789107164,93.85052958949558,0.0
137,-0.02494551892368395,0.005347564802548271,93.83846833929832,0.0
138,-0.025554516108824647,0.004928689232469745,93.8274143099692,0.0
139,-0.026344040835516735,0.004267521621134271,93.81732314220106,0.0
140,-0.02711035271549202,0.003554842316607386,93.80815057551773,0.0
141,-0.027693734602132536,0.00294909312953908,93.79985243941822,0.0
142,-0.02799519769872032,0.002559531345159215,93.79238464495087,0.0
143,-0.027981872770888806,0.0024387841110111415,93.78570317671415,0.0
144,-0.027681404669300098,0.0025848311185197163,93.77976408528097,0.0
145,-0.02716746919238539,0.002951014792334141,93.77452348004392,0.0
146,-0.02653981587574031,0.0034615827051157335,93.7699375224787,0.0
147,-0.025902807181362498,0.004029649831062195,93.76596241982385,0.0
148,-0.02534622192998912,0.004574387527611901,93.76255441917463,0.0
149,-0.024931226895945437,0.0050346731403952995,93.75966980198969,0.0
150,-0.024683155264276623,0.0053772642800908495,93.75726487900869,0.0
151,-0.024591405674068832,0.005598637716771925,93.75529598557982,0.0
152,-0.02461567675502654,0.005720772861614007,93.75371947739626,0.0
153,-0.024696994653658606,0.00578218615927378,93.7524917266405,0.0
154,-0.024771520085692864,0.005826284503416451,93.75156911853604,0.0
155,-0.02478482549647429,0.005889495526602995,93.75090804830539,0.0
156,-0.024704187016961386,0.005991596744426657,93.75046491853482,0.0
157,-0.024526562414446812,0.006130210182171327,93.75019613694455,0.0
158,-0.024280504716243385,0.006280621295634635,93.75005811456468,0.0
159,-0.02402134647066423,0.006401043870555631,93.75000726431665,0.0
160,-0.023820391139004575,0.006442352822204013,93.75,1.0
161,-0.023750171552905854,0.006360333463433857,93.85216341549639,0.0
162,-0.023868668703530282,0.0061278324893340695,94.1519988405305,0.0
163,-0.024205525267296153,0.005743990595994031,94.64119307134493,0.0
164,-0.024752861335453277,0.005238073798824307,95.31336143271265,0.0
165,-0.025462636624022948,0.004666299734117093,96.16373066679127,0.0
166,-0.026251842102474256,0.004101378727367863,97.18887093922419,0.0
167,-0.027016058381014188,0.0036160609405626663,98.38646202282567,0.0
168,-0.027650753236793384,0.0032635199338208005,99.75508140169751,0.0
169,-0.028077868840208044,0.0030585791357688294,101.29400382810614,0.0
170,-0.028272976816519815,0.002964278489195814,103.00300300300302,0.0
171,-0.028286294499779697,0.0028878459420815907,104.88214671432468,0.0
172,-0.028250187386151537,0.002688709937710167,106.93157709215943,0.0
173,-0.028367293628698467,0.002198918069361485,109.1512677458322,0.0
174,-0.02887733570266312,0.0012536060630105549,111.54074955383699,0.0
175,-0.030006384126027352,-0.0002734319277003872,114.09879691744746,0.0
176,-0.03190830608049547,-0.002435843534953505,116.82306652716017,0.0
177,-0.03461236917555253,-0.005189770001657065,119.70968133724904,0.0
178,-0.037991634769368635,-0.008384046148179914,122.75275376537213,0.0
179,-0.0417629823273615,-0.011769159456667627,125.94384446706293,0.0
180,-0.04552204685591463,-0.015024973687932212,129.2713567839196,0.0
181,-0.04880726562184716,-0.017803369904490062,132.7198725889223,0.0
182,-0.051179544454899834,-0.01977873666469426,136.26944322609762,0.0
183,-0.05230011231271293,-0.020697409745027307,139.89485997190684,0.0
184,-0.05198984538269087,-0.020417159962444004,143.5649421387242,0.0
185,-0.05025815787054536,-0.018929664212642333,147.24189740287616,0.0
186,-0.047296934652505916,-0.01636215039882092,150.88082731374064,0.0
187,-0.04344288521910919,-0.012958348485931415,154.4294694049558,0.0
188,-0.039118079032524004,-0.009042649600283663,157.82828282828282,0.0
189,-0.034761810762612824,-0.004974198635600334,161.0109925600091,0.0
190,-0.030766952237912138,-0.0010990051298153695,163.90570245301055,0.0
191,-0.0274312675866501,0.0022921132519581793,166.4366638134667,0.0
192,-0.02493000983173028,0.004993648452755091,168.5267389208,0.0
193,-0.023311556012684427,0.006900147877369136,170.10052627019965,0.0
194,-0.022513574781695432,0.008005169802489089,171.0880200477251,0.0
195,-0.022393785737587074,0.008386759768647192,171.42857142857144,1.0
196,-0.022767327283783587,0.008183708435419209,171.32920653469418,0.0
197,-0.023442565112604213,0.007567743042154098,171.03478939940416,0.0
198,-0.024248882297517517,0.006716615618239884,170.55178266505612,0.0
199,-0.02505303295375532,0.005791985345901182,169.88780204557926,0.0
200,-0.025764025719836048,0.004924406668091009,169.0514696434356,0.0
201,-0.026329205283778183,0.004206037404163427,168.05225820716115,0.0
202,-0.02672553759995356,0.0036902328307777356,166.90033082836356,0.0
203,-0.026949946727236433,0.00339623121897531,165.60638033095407,0.0
204,-0.02701130951779224,0.0033167487126279467,164.1814722105205,0.0
205,-0.02692512696929472,0.003426429339776775,162.63689447535086,0.0
206,-0.026710665194952365,0.0036895835946302662,160.98401716172697,0.0
207,-0.026389829336302337,0.0040663003011953795,159.23416368252612,0.0
208,-0.02598705331252506,0.004516648693151432,157.398495554004,0.0
209,-0.02552964645129642,0.005003168699673643,155.48791145959908,0.0
210,-0.025048044448731602,0.005492112307492406,153.5129610740428,0.0
211,-0.02457532529373266,0.005953948395422743,151.48377360166361,0.0
212,-0.0241454605842067,0.006363530517006616,149.41000058883552,0.0
213,-0.02379026475812715,0.006700135442707626,147.30077225564418,0.0
214,-0.02353572717618959,0.006947399294571288,145.16466635488638,0.0
215,-0.023398949663233037,0.007093078112041139,143.00968840267214,0.0
216,-0.023386890051221517,0.007128572473325023,140.8432620267704,0.0
217,-0.023497467878225962,0.007048266447769153,138.67222813745207,0.0
218,-0.023722619144916024,0.006848884460535221,136.50285163123723,0.0
219,-0.0240520704509964,0.006529189876233833,134.34083438092563,0.0
220,-0.02447632477371387,0.006090366762695261,132.19133333635438,0.0
221,-0.024987711381439886,0.005537302763419509,130.05898265112143,0.0
222,-0.025579148395439025,0.004880732920035156,127.9479188537371,0.0
223,-0.026241130694820924,0.004139863769559746,125.86180819120268,0.0
224,-0.02695804660900309,0.003344759183565029,123.80387538390036,0.0
225,-0.02770507995306799,0.0025375320779333103,121.77693313907668,0.0
226,-0.028446727474844016,0.00177133807786603,119.78341187326697,0.0
227,-0.029137561370210407,0.0011063689349123849,117.82538918977778,0.0
228,-0.02972551626346226,0.0006025121550016707,115.9046187445849,0.0
229,-0.03015781196111286,0.00030904213156276615,114.0225582120865,0.0
230,-0.030389594958499213,0.0002525403416062631,112.1803961309057,0.0
231,-0.0303952334250988,0.00042505266647838245,110.37907746955668,0.0
232,-0.030181549919711594,0.0007750813737403958,108.6193278027144,0.0
233,-0.029800919799112202,0.0012041670518824171,106.90167603167372,0.0
234,-0.029360420354792423,0.0015713717324021806,105.22647561806545,0.0
235,-0.02902198318134235,0.0017068624884645784,103.59392432878045,0.0
236,-0.028988865612146756,0.0014341091783622128,102.00408251311491,0.0
237,-0.029476364693760793,0.0005982292962988908,100.45688995114517,0.0
238,-0.030669282164997515,-0.0009038298219479651,98.95218132598525,0.0
239,-0.03267394917386199,-0.003096789104423416,97.48970038253829,0.0
240,-0.035476707340672244,-0.005909881944470422,96.06911284222294,0.0
241,-0.03892166030396308,-0.009173587492708685,94.69001814747958,0.0
242,-0.04271710522467215,-0.012632504051702655,93.35196011210937,0.0
243,-0.046472773256159707,-0.015973580194820917,92.05443655408683,0.0
244,-0.049761124707857,-0.01886581102727856,90.7969079867678,0.0
245,-0.052188778525500475,-0.02100504961058866,89.57880544269177,0.0
246,-0.05346150483883594,-0.022156372154550227,88.39953750170459,0.0
247,-0.05342890519270005,-0.02218676247797377,87.25849659211706,0.0
248,-0.052101428001818856,-0.021082664590224162,86.15506463024073,0.0
249,-0.04963977718250771,-0.018949773064296137,85.08861806004667,0.0
250,-0.046322359368481836,-0.015995659499724167,84.058532350991,0.0
251,-0.04249900733851693,-0.012498796386901084,83.06418600833211,0.0
252,-0.038539361329481714,-0.008769673782988638,82.10496414660182,0.0
253,-0.034783359358658096,-0.005110660201248965,81.1802616733377,0.0
254,-0.031500306390953345,-0.0017809444010809046,80.28948612678086,0.0
255,-0.028862017871754273,0.0010285373898257138,79.43206020801786,0.0
256,-0.02693390063909544,0.003207483184903768,78.60742404502415,0.0
257,-0.025684938326166175,0.004725701320201001,77.81503722325486,0.0
258,-0.025013559384150855,0.005621742205103802,77.05438061484483,0.0
259,-0.024782404074704553,0.005984367538108722,76.3249580361183,0.0
260,-0.024852674579119646,0.005931224924790597,75.62629776097873,0.0
261,-0.025109286012491554,0.005588794319642107,74.95795391584367,0.0
262,-0.025471552217721186,0.005076567679273258,74.31950778010993,0.0
263,-0.025889428625388587,0.004496883256175694,73.7105690146769,0.0
264,-0.026330342111726586,0.003930305894300416,73.13077683981653,0.0
265,-0.02676437885244878,0.003435313780607696,72.57980118265667,0.0
266,-0.027155037235907016,0.003050542765205389,72.05734381373702,0.0
267,-0.02745926721455973,0.0027979552367191226,71.56313949150682,0.0
268,-0.02763577672639351,0.0026858514649605006,71.09695713325539,0.0
269,-0.027656783448936694,0.0027113328500254063,70.65860103081569,0.0
270,-0.027517172121339077,0.0028623769121273374,70.24791212944984,0.0
271,-0.027236674858353845,0.003119922402959916,69.86476938863574,0.0
272,-0.02685412291377213,0.0034602739490458174,69.50909124402799,0.0
273,-0.026416251750325942,0.0038578375993915826,69.18083719068899,0.0
274,-0.025965495150648485,0.004287874753979789,68.88000950879048,0.0
275,-0.025531105597797598,0.004728776326980698,68.60665515440705,0.0
276,-0.02512616882147181,0.005163393453124445,68.36086783978321,0.0
277,-0.024750596558960107,0.00557919409928649,68.14279032960698,0.0
278,-0.024398024772850663,0.005967344807921551,67.9526169824013,0.0
279,-0.024063468889533497,0.006321112442635497,67.79059656921865,0.0
280,-0.023748850277168946,0.006634136885296057,67.65703540545982,0.0
281,-0.023464816064379238,0.006899099453836518,67.55230083592063,0.0
282,-0.02322893638400826,0.007107130940415745,67.47682511820568,0.0
283,-0.023061643355805867,0.0072480455483971366,67.43110975555688,0.0
284,-0.022981751045735466,0.007311245680128149,67.41573033707866,1.0
285,-0.023003068827179837,0.007286990942652547,67.43152387714098,0.0
286,-0.023132786633230762,0.007167695269905123,67.47826113218032,0.0
287,-0.023371382121374504,0.006948996828323858,67.55503685564044,0.0
288,-0.023713208819488508,0.0066304923061945974,67.6610188482266,0.0
289,-0.02414698137495292,0.006216183089716111,67.79544017577523,0.0
290,-0.024656026292339223,0.005714792667951059,67.95759199287674,0.0
291,-0.025218892701811685,0.00514014397731718,68.14681688149756,0.0
292,-0.02581103672478378,0.004511712807772227,68.36250262460516,0.0
293,-0.026407550330004047,0.0038553010490481408,68.60407634394076,0.0
294,-0.026985798106658992,0.0032035304623016527,68.87099893888124,0.0
295,-0.027526289131195494,0.0025956055365391178,69.16275977001466,0.0
296,-0.028010795379047337,0.002075626241244454,69.47887153681374,0.0
297,-0.02841846110078264,0.001688756229212461,69.81886530379795,0.0
298,-0.028722496256647898,0.0014748563906400946,70.1822856339634,0.0
299,-0.02889087525375355,0.0014597981417289589,70.56868579216257,0.0
300,-0.02889358035183818,0.0016454928516767026,70.97762298463712,0.0
301,-0.028716471170426902,0.0020005210379664697,71.4086536041503,0.0
302,-0.028378736220734148,0.0024538508414854833,71.86132845322014,0.0
303,-0.02794835660755201,0.002894232675670991,72.33518792090663,0.0
304,-0.027549154766867787,0.003177269053603283,72.82975709153612,0.0
305,-0.027354265275701343,0.0031408769022038827,73.34454076673123,0.0
306,-0.027563979425902264,0.0026280794756242637,73.87901838523098,0.0
307,-0.028370060133494718,0.0015141615815342211,74.43263882830618,0.0
308,-0.029912728856813918,-0.00026633168002360586,75.00481510217458,0.0
309,-0.03223953611195147,-0.00269802646981737,75.59491889276659,0.0
310,-0.03527637463747498,-0.0056735121491552805,76.20227499256079,0.0
311,-0.0388194371057319,-0.00899593362539118,76.8261556040616,0.0
312,-0.04255290924713979,-0.012396425997999094,77.46577452989683,0.0
313,-0.046091262013825705,-0.01556461299284469,78.1202812655288,0.0
314,-0.04903858948427538,-0.01818776948067279,78.78875501724796,0.0
315,-0.051052527048557304,-0.019992426712732558,79.47019867549669,0.0
316,-0.0518987394100745,-0.020781597584969846,80.1635327816763,0.0
317,-0.0514845772929653,-0.020461547917852152,80.86758953543188,0.0
318,-0.0498664048125626,-0.01905394761034368,81.58110689897225,0.0
319,-0.047232068575766555,-0.016691853443783374,82.30272286522104,0.0
320,-0.04386546134234889,-0.013600726849569984,83.03096996743255,0.0
321,-0.040102468491068806,-0.010068025805193703,83.76427011922208,0.0
322,-0.036286730546165914,-0.006406435366087617,84.50092988558674,0.0
323,-0.03273098125431459,-0.002916341282610483,85.23913629721012,0.0
324,-0.02968701066491611,0.00014725336229817147,85.97695333186788,0.0
325,-0.02732562769758893,0.0025993162756377686,86.71231919773665,0.0
326,-0.025727277068954814,0.004338432114947409,87.44304456344032,0.0
327,-0.02488344273893729,0.005348822748405427,88.16681188825969,0.0
328,-0.024708062382132853,0.0056917099095488526,88.88117601253464,0.0
329,-0.02505695268975889,0.0054883208999412765,89.58356617228797,0.0
330,-0.025752207451436283,0.004897710521558687,90.27128960283785,0.0
331,-0.026608073108697675,0.004092917470929939,90.94153689294531,0.0
332,-0.0274549128410264,0.0032387943508601176,91.59138924316407,0.0
333,-0.028158285724928383,0.002474216703455449,92.21782776884099,0.0
334,-0.028630776555249378,0.0019004143631366978,92.81774496903584,0.0
335,-0.028835176950986283,0.0015760464182667316,93.38795845697176,0.0
336,-0.02877911712110515,0.0015185481206580116,93.92522701512874,0.0
337,-0.028503088535871312,0.0017103948315085045,94.42626899859428,0.0
338,-0.028065345147954127,0.0021083934823509947,94.88778306389025,0.0
339,-0.02752770391791671,0.0026539926669583414,95.30647114761956,0.0
340,-0.026945472730493168,0.00328287507727751,95.67906356068974,0.0
341,-0.026362942072681916,0.003932651788300449,96.00234600073473,0.0
342,-0.025813859985814477,0.004548151204338759,96.27318821923741,0.0
343,-0.0253248491580158,0.005084409352141818,96.48857401271086,0.0
344,-0.024919237483959265,0.005507882937153819,96.64563214146104,0.0
345,-0.02461921870781303,0.005796555427490392,96.74166771754375,0.0
346,-0.024445302935011255,0.00593950763834416,96.7741935483871,1.0
347,-0.024413249485053946,0.0059362669449668755,96.76993724059686,0.0
348,-0.024529726530609513,0.005795959092944966,96.75734423701873,0.0
349,-0.024788500394945154,0.005536083519728029,96.73668144487245,0.0
350,-0.02516882543097741,0.005180693819175355,96.70821944964463,0.0
351,-0.02563693106472934,0.0047579012775805524,96.67223207576609,0.0
352,-0.026150436904826265,0.004296877718015317,96.62899595866709,0.0
353,-0.026664661169724317,0.0038248144170943688,96.57879012918559,0.0
354,-0.02713942719767789,0.0033644823391963106,96.52189561120865,0.0
355,-0.027545034333919766,0.002933041373787311,96.45859503333655,0.0
356,-0.02786623104320094,0.0025425179861105376,96.38917225526755,0.0
357,-0.028103157068673792,0.0022019339118440505,96.31391200951249,0.0
358,-0.02826851437504576,0.0019205152686262912,96.23309955896174,0.0
359,-0.028381016519479052,0.001710890022067485,96.1470203707436,0.0
360,-0.02845647280336384,0.0015908661310138985,96.0559598067316,0.0
361,-0.028499209987860107,0.0015824276567484139,95.9602028309822,0.0
362,-0.028497216474076246,0.00170707611792917,95.86003373430987,0.0
363,-0.028423941149996166,0.0019775504484064307,95.75573587613776,0.0
364,-0.028248099470472087,0.002387119517854915,95.64759144369656,0.0
365,-0.027950519920170544,0.0028987791556665567,95.53588122858305,0.0
366,-0.027544540115253896,0.0034374642938507184,95.42088442063395,0.0
367,-0.027094311837973714,0.0038884962341976517,95.3028784190176,0.0
368,-0.026724254388598892,0.0041047384763560225,95.18213866039953,0.0
369,-0.0266135034535562,0.003923348787215366,95.0589384639937,0.0
370,-0.026972006085790368,0.003190846481808297,94.93354889327405,0.0
371,-0.02799972635507525,0.0017929295081625433,94.80623863408525,0.0
372,-0.029836136357816602,-0.00031634306036784046,94.67727388886303,0.0
373,-0.03251189728740737,-0.003092195135453636,94.54691828664788,0.0
374,-0.0359164016670179,-0.006389243620705309,94.41543280855501,0.0
375,-0.03979242996060457,-0.009967773527613872,94.28307572834552,0.0
376,-0.04376280143543256,-0.01351688721950061,94.15010256773007,0.0
377,-0.047385399145614404,-0.016691835080189354,94.01676606602652,0.0
378,-0.05022514940326804,-0.019159804599629984,93.88331616378618,0.0
379,-0.051927063457349695,-0.020646506729970007,93.75,0.0
380,-0.05227458766395394,-0.020975517790755696,93.6170619224968,0.0
381,-0.05122181123222468,-0.020093601554919543,93.48474351114723,0.0
382,-0.0488948216669962,-0.018077848664680318,93.35328361349451,0.0
383,-0.0455645076347123,-0.015123829443527425,93.22291839244055,0.0
384,-0.04159855106205409,-0.011517325602109644,93.09388138562753,0.0
385,-0.03740323027612228,-0.007594897784480566,92.96640357616819,0.0
386,-0.03336593026920964,-0.003700071929520373,92.84071347439433,0.0
387,-0.029807531305335026,-0.00014209059183336887,92.71703721031032,0.0
388,-0.026950906923956748,0.002836919996318736,92.59559863645849,0.0
389,-0.024908256864913218,0.005082521032668607,92.47661944092522,0.0
390,-0.023686434202530294,0.006534847295201882,92.36031927023946,0.0
391,-0.023206309091462728,0.007222714342194623,92.24691586194149,0.0
392,-0.02333012509836236,0.007247665951361753,92.13662518662599,0.0
393,-0.023890253564352325,0.006761724718304823,92.02966159929183,0.0
394,-0.024713891960535278,0.005942829960974138,91.92623799986187,0.0
395,-0.025640684826084954,0.00497147440833241,91.82656600276643,0.0
396,-0.02653306068765473,0.004011133915268134,91.73085611551804,0.0
397,-0.027281204877249124,0.0031940091260837054,91.6393179262387,0.0
398,-0.027805307523036234,0.002612607736544156,91.55216030013815,0.0
399,-0.028057022853501527,0.0023169368103485863,91.46959158497744,0.0
400,-0.028020586967645474,0.0023165819126143923,91.39181982559336,0.0
401,-0.02771265990993808,0.002586673732651368,91.31905298759865,0.0
402,-0.02717937753165534,0.003076597185851946,91.251499190416,0.0
403,-0.026489539057367614,0.003720211052969718,91.18936694984926,0.0
404,-0.025724051130263253,0.004446293782515826,91.13286543044052,0.0
405,-0.024963140869714098,0.00518794081605679,91.08220470791193,0.0
406,-0.024273872302652773,0.005889768205794292,91.0375960420419,0.0
407,-0.023700791375194867,0.006512076783012399,90.99925216037869,0.0
408,-0.02326198527291224,0.007031608416457772,90.96738755325225,0.0
409,-0.02295158227223109,0.007439126300415478,90.94221878060445,0.0
410,-0.022748016103592048,0.007734661983443599,90.92396479122091,0.0
411,-0.02262567473484792,0.007921749887215244,90.91284725501572,0.0
412,-0.02256640568843134,0.008002184250957691,90.9090909090909,1.0
413,-0.02256726579810725,0.00797270734228826,90.9751685172848,0.0
414,-0.022642079913479926,0.007824577709498763,91.16947645928143,0.0
415,-0.022816489767794358,0.007546265234529047,91.48686162898075,0.0
416,-0.023118416159008774,0.007128729968283488,91.92302978306165,0.0
417,-0.023567262049174816,0.006572039133230468,92.47441300421433,0.0
418,-0.024165171088739508,0.005891613069831503,93.13805388036417,0.0
419,-0.024892390415521628,0.005122263814657656,93.91150210469371,0.0
420,-0.025707082277359933,0.004318432134345445,94.7927199191102,0.0
421,-0.02654874301077518,0.0035496151319135494,95.77999335526296,0.0
422,-0.027344251034325102,0.002890837637075603,96.87184661957616,0.0
423,-0.028016299316023195,0.002409050992739169,98.06695725812958,0.0
424,-0.02849480631029422,0.0021473994266530097,99.36406995230524,0.0
425,-0.02873191221848234,0.0021101920811588356,100.76190696107336,0.0
426,-0.028719793202755275,0.0022519396918278915,102.25907336236355,0.0
427,-0.02850799718700831,0.002473741966083373,103.85395537525355,0.0
428,-0.028214420961809834,0.00262949306791163,105.54461018857305,0.0
429,-0.028022968323003848,0.0025427986275464226,107.32864590379104,0.0
430,-0.028162622143261654,0.0020333608503998227,109.20309044745966,0.0
431,-0.02886737617728489,0.0009492912007789418,111.16424865126501,0.0
432,-0.030323060848060624,-0.0008001005003130321,113.20754716981132,0.0
433,-0.03261323392274573,-0.0032174605300388194,115.32736754471638,0.0
434,-0.03567930434342418,-0.006202541696518807,117.51686856717559,0.0
435,-0.03930809096808747,-0.00955361130542877,119.76780017740607,0.0
436,-0.04315319255946345,-0.012986451119654413,122.0703125,0.0
437,-0.04678710664069104,-0.01616883454078044,124.41276526810302,0.0
438,-0.04977242651658847,-0.018765182098910673,126.7815448331238,0.0
439,-0.05173569172651642,-0.02048392418469953,129.16089815259554,0.0
440,-0.05242784104322851,-0.021119443180471185,131.53279551034726,0.0
441,-0.051759924074214876,-0.02058145763049147,133.87683609988886,0.0
442,-0.04980960864951879,-0.01890709200349778,136.17021276595747,0.0
443,-0.04680068703225254,-0.01625409049956427,138.3877538370167,0.0
444,-0.04306251168074931,-0.012876983582379688,140.50206069689023,0.0
445,-0.03897841189374239,-0.009090833145926522,142.48375907777387,0.0
446,-0.03493200597146521,-0.005228968541768075,144.30187953198092,0.0
447,-0.0312589305056055,-0.0016016335949799944,145.92437773133196,0.0
448,-0.028209854929690324,0.0015382872421640355,147.31879787860933,0.0
449,-0.025929082324203098,0.004018058555218973,148.45307259200612,0.0
450,-0.02445114439805578,0.005754357981628835,149.29644052403052,0.0
451,-0.023715013138235225,0.006749449499108876,149.82044955498642,0.0
452,-0.023591986645979838,0.00707681660147625,150.0,1.0
453,-0.02392006239046576,0.006860189822196245,149.93214605116228,0.0
454,-0.024536219673433,0.006250358648955741,149.73084407730605,0.0
455,-0.025299419656084968,0.0054037020355532945,149.3999927050785,0.0
456,-0.02610089186458474,0.0044652236385169745,148.94411722453668,0.0
457,-0.02686282957870417,0.003557395241938862,148.36830019251707,0.0
458,-0.02753008996590413,0.0027746891755758654,147.67810787424284,0.0
459,-0.028060688829989567,0.002182641119089737,146.8795142266066,0.0
460,-0.02841972972633839,0.0018198003271812405,145.97882405947286,0.0
461,-0.0285787980407933,0.0017009880117917838,144.98259689693822,0.0
462,-0.028520039878806247,0.001820740420974872,143.897572908173,0.0
463,-0.028242183574525823,0.0021564272270071135,142.7306020974054,0.0
464,-0.02776517835079196,0.002671080358167515,141.4885777450258,0.0
465,-0.02713089940939109,0.0033162891507839748,140.17837488639788,0.0
466,-0.026399041560623365,0.004035565926960458,138.80679441050958,0.0
467,-0.02563916943967286,0.004768410512898328,137.3805131645145,0.0
468,-0.02492117930336215,0.005455010965013773,135.90604026845637,0.0
469,-0.024306707864730562,0.006041229486244712,134.38967968142725,0.0
470,-0.023843301445365086,0.006483325797226859,132.83749891896565,0.0
471,-0.02356184550246935,0.006751804648740374,131.2553037031469,0.0
472,-0.023476477379170642,0.006833834841284971,129.64861823183693,0.0
473,-0.023585552565934854,0.0067338447817641926,128.02267068126648,0.0
474,-0.02387249880073041,0.00647212252214729,126.38238350495357,0.0
475,-0.024306394755671847,0.006081513693633852,124.73236806003827,0.0
476,-0.024843238230540486,0.005602601157275294,123.07692307692308,0.0
477,-0.02542937587779917,0.005078038255497228,121.42003648720112,0.0
478,-0.02600801315265281,0.0045469426233861795,119.76539013564287,0.0
479,-0.026528284555597553,0.004040365562793123,118.11636692203433,0.0
480,-0.026954767657722402,0.003578755265990529,116.47605994562652,0.0
481,-0.02727442974778751,0.0031719840274790096,114.84728325680331,0.0
482,-0.027498302569266116,0.0028219299531947175,113.2325838555105,0.0
483,-0.027656607421229898,0.002526898010445005,111.6342546124803,0.0
484,-0.02778809386245685,0.002286513907297099,110.05434782608695,0.0
485,-0.027926381209321775,0.0021053402697363325,108.49468916377508,0.0
486,-0.028087519560451267,0.0019935295485219618,106.95689177165406,0.0
487,-0.0282633070621804,0.001963425294192386,105.44237036848705,0.0
488,-0.028423774634046182,0.002022089942222074,103.95235517054684,0.0
489,-0.028529751493501246,0.002161054080387003,102.48790552143336,0.0
490,-0.028553193901065015,0.0023458116920030726,101.04992312584214,0.0
491,-0.02850001789856615,0.002508351813705862,99.63916480843301,0.0
492,-0.0284284845540993,0.002546008775608524,98.2562547384382,0.0
493,-0.028456277408847992,0.002328986181884831,96.90169607759239,0.0
494,-0.02875133562488148,0.0017171525366334245,95.57588202352062,0.0
495,-0.02950497889355428,0.0005844505995067481,94.27910623307265,0.0
496,-0.030890370994584644,-0.0011529734615258825,93.011572620436,0.0
497,-0.03301410468483451,-0.003510442467921428,91.77340453340305,0.0
498,-0.03587241150320918,-0.006416255205844205,90.5646533181053,0.0
499,-0.039324681732656096,-0.009706181594692548,89.3853062880565,0.0
500,-0.04309441663828458,-0.01313388969317963,88.23529411764707,0.0
501,-0.04680139764527644,-0.016397124195752705,87.11449768347423,0.0
502,-0.05002038608803164,-0.019176109210583575,86.02275437923274,0.0
503,-0.05235392515174674,-0.021177874841353778,84.95986393146792,0.0
504,-0.053502586591559334,-0.02217869717193323,83.92559374443492,0.0
505,-0.05331668555833402,-0.022056986750575776,82.91968380272485,0.0
506,-0.05181860631920109,-0.02081074608829315,81.94185116030943,0.0
507,-0.049192539557552886,-0.01855672425118718,80.9917940443046,0.0
508,-0.04574617559887752,-0.01551192305356374,80.06919560113677,0.0
509,-0.04185459781681604,-0.011961355392309457,79.17372731197206,0.0
510,-0.03789910632805164,-0.00821823076254725,78.3050521032965,0.0
511,-0.034212965380575416,-0.004583624284864519,77.4628271774571,0.0
512,-0.031042965141442284,-0.0013121011740967864,76.64670658682635,0.0
513,-0.02853137477039261,0.0014120184914087298,75.8563435740708,0.0
514,-0.02671833948413234,0.0034855541514289875,75.09139269981007,0.0
515,-0.02556077085393602,0.004884892482307214,74.35151177776837,0.0
516,-0.024960889729692303,0.0056544304052670675,73.63636363636365,0.0
517,-0.024796361361233595,0.0058887731026042115,72.9456177245609,0.0
518,-0.024944802981796986,0.0057126981111042694,72.27895157874924,0.0
519,-0.025298249852579998,0.0052622975482316875,71.63605216639162,0.0
520,-0.025767104260587557,0.004669551061044889,71.01661712125157,0.0
521,-0.026276729485863414,0.004051261275783154,70.42035588412276,0.0
522,-0.026761770444021723,0.003502170193900342,69.84699076218305,0.0
523,-0.02716285223611245,0.00309140910963799,69.29625791936198,0.0
524,-0.0274280306382496,0.0028612780654087657,68.76790830945558,0.0
525,-0.02751853498110155,0.002827598153211709,68.26170856314346,0.0
526,-0.027416249176726762,0.0029813190678354695,67.77744183956135,0.0
527,-0.02712967301199199,0.003291461301335681,67.31490865266099,0.0
528,-0.026695678407302574,0.003709649804714516,66.87392768224565,0.0
529,-0.0261756853736327,0.004176381643058976,66.45433657930903,0.0
530,-0.025646398448434204,0.004628806681753178,66.0559927751258,0.0
531,-0.025186630060035308,0.005009319045241031,65.67877430344878,0.0
532,-0.024862778004271717,0.005273829778792844,65.3225806451613,0.0
533,-0.024716020274593117,0.005398375272290152,64.98733360481906,0.0
534,-0.02475408365080989,0.005382808618839582,64.6729782286977,0.0
535,-0.02494952186117243,0.005250732367322524,64.37948377424568,0.0
536,-0.025244999215493814,0.005045482810054843,64.10684474123539,0.0
537,-0.025564489642905936,0.0048227233477262325,63.855081975416525,0.0
538,-0.025828016382263192,0.00464087521061455,63.62424385611519,0.0
539,-0.02596691722745293,0.00455105218992959,63.41440758000339,0.0
540,-0.025936698798881413,0.004588271409752793,63.22568055420041,0.0
541,-0.0257251511023556,0.004765462122104364,63.058201912979854,0.0
542,-0.025354280151835825,0.0050712482165283165,62.91214417366372,0.0
543,-0.024875679424800647,0.005471762531022493,62.78771504881352,0.0
544,-0.024360221684277587,0.005916022039223912,62.68515943360862,0.0
545,-0.02388430105674083,0.006343808544649481,62.60476158937022,0.0
546,-0.02351586116296335,0.006694673107426319,62.54684754658361,0.0
547,-0.02330352957046453,0.006916656434872897,62.51178775354857,0.0
548,-0.023271076398074464,0.00697355367380812,62.5,1.0
549,-0.023417504147334116,0.00684994641088311,62.51817574320342,0.0
550,-0.02372122999095447,0.006553643724489434,62.57196148185013,0.0
551,-0.02414588127133716,0.00611550142472552,62.660330358006775,0.0
552,-0.024645509351035357,0.005586764715095004,62.782359870213114,0.0
553,-0.02516821006918351,0.005034119922704061,62.93722096709518,0.0
554,-0.025658516041422188,0.0045326253727075915,63.12416812346452,0.0
555,-0.026059848007556667,0.004156728566566213,63.34253024172965,0.0
556,-0.026318486427898427,0.003969757615451626,63.59170224115544,0.0
557,-0.026390035163752882,0.004012631391637886,63.87113721386255,0.0
558,-0.026248486595201577,0.004293015189583851,64.18033904004943,0.0
559,-0.025897041608539447,0.0047766277983951186,64.51885536622703,0.0
560,-0.025378911303419925,0.0053827020510378186,64.88627085968069,0.0
561,-0.024785429029835517,0.005985532012940902,65.28220066024909,0.0
562,-0.024258041598477238,0.006423479467046023,65.70628395711925,0.0
563,-0.02398057853131372,0.006515743256874295,66.1581776239269,0.0
564,-0.024159309741242325,0.006085743754131637,66.63754985023401,0.0
565,-0.024991105213566428,0.0049884091643330975,67.14407371162935,0.0
566,-0.02662403969638563,0.0031373335495853178,67.67742062443759,0.0
567,-0.029118583231100233,0.0005270794006480501,68.2372536345016,0.0
568,-0.03241925870005121,-0.002753906967413844,68.82322049288423,0.0
569,-0.03634519309709719,-0.006523129306306644,69.43494647478788,0.0
570,-0.040603651121660075,-0.010517997371692695,70.07202690167836,0.0
571,-0.04482503851683053,-0.014422837123245012,70.73401933070149,0.0
572,-0.048612970317679145,-0.01790549310318595,71.42043538017731,0.0
573,-0.05160011113094938,-0.020658216837465417,72.1307321654415,0.0
574,-0.05349986652794757,-0.022436629538394256,72.8643033257795,0.0
575,-0.05414523316853719,-0.023090764598899378,73.62046963087921,0.0
576,-0.053508719314941014,-0.022583481494869967,74.39846916433365,0.0
577,-0.05170086288917239,-0.020993629147059406,75.19744709248366,0.0
578,-0.04894896970811026,-0.018503810181435116,76.01644503952852,0.0
579,-0.04556129880790574,-0.015374995997463536,76.85439010456966,0.0
580,-0.04188391840836543,-0.011912153449379185,77.71008357329234,0.0
581,-0.03825734478952428,-0.00842617957171983,78.5821893965058,0.0
582,-0.03497842727888166,-0.005197676560255149,79.46922252988165,0.0
583,-0.03227097557487817,-0.002447471591837869,80.36953725401514,0.0
584,-0.030267261294164974,-0.00031746052294582064,81.28131562135636,0.0
585,-0.029001785456990083,0.001136419147538448,82.20255620647752,0.0
586,-0.028417931444348125,0.0019392114387418238,83.13106336826432,0.0
587,-0.02838671140221199,0.0021818784703127193,84.06443726647713,0.0
588,-0.028734767199006948,0.0019994521980179853,85.0000649100347,0.0
589,-0.029276734418208307,0.001546472303645731,85.93511254940026,0.0
590,-0.029845865855854727,0.0009738234263676239,86.86651975938639,0.0
591,-0.030317042960388983,0.00041041224965520295,87.79099559003485,0.0
592,-0.030618081848170345,-4.811653319479773e-05,88.70501719015259,0.0
593,-0.030728141590706633,-0.00034297608125628343,89.60483132847125,0.0
594,-0.03066525882408556,-0.00044902875911980496,90.48645924884902,0.0
595,-0.03046762145393507,-0.0003668551230280393,91.34570529583159,0.0
596,-0.03017438530692436,-0.0001128113423295796,92.17816973249037,0.0
597,-0.029811314807116115,0.0002902514239618349,92.97926614101902,0.0
598,-0.029384555029004247,0.0008195709462859592,93.74424374552406,0.0
599,-0.02888314276417184,0.0014553625678043322,94.46821492360648,0.0
600,-0.02828831669004243,0.0021801610336952605,95.14618807714277,0.0
601,-0.027585997994594103,0.002975729301468089,95.77310591247308,0.0
602,-0.026778333009676455,0.0038192071364153467,96.34388903650593,0.0
603,-0.025890877605492597,0.004680219997183119,96.85348460999448,0.0
604,-0.02497348432699711,0.005520237363943969,97.29691961601507,0.0
605,-0.024094676364246143,0.0062947107105496575,97.6693581058476,0.0
606,-0.023330788492728984,0.0069576595506208845,97.96616158317362,0.0
607,-0.022752230720648813,0.007467647307269251,98.18295148959683,0.0
608,-0.02240989921610602,0.007793688543051506,98.31567257014349,0.0
609,-0.022324979162014404,0.0079196538376878,98.36065573770492,1.0
610,-0.022484919595678235,0.007846170213052535,98.35714974479333,0.0
611,-0.022846977238777356,0.007589723095042037,98.34678084966961,0.0
612,-0.023348568937741072,0.007179440815933836,98.3297746921912,0.0
613,-0.02392143931432981,0.0066526521638647675,98.30635935262445,0.0
614,-0.024505327359080377,0.006050562576061973,98.27676505148511,0.0
615,-0.02505709040756282,0.0054152077559485035,98.24122385795478,0.0
616,-0.02555303037802137,0.004788259421767347,98.19996940740903,0.0
617,-0.02598462957800082,0.004211445791818044,98.15323662853856,0.0
618,-0.02634997805359845,0.0037275585141808825,98.10126148049288,0.0
619,-0.026644194091094482,0.0033805090595623983,98.04428070042458,0.0
620,-0.026852105872723044,0.003212871578390012,97.9825315617623,0.0
621,-0.026945812088820013,0.003259887889047081,97.91625164349176,0.0
622,-0.026888853762022668,0.0035399460003624926,97.84567861067777,0.0
623,-0.02664762304255288,0.004042860323529082,97.77105000641505,0.0
624,-0.026209060768287204,0.004718549491687218,97.69260305535346,0.0
625,-0.0256015378557493,0.0054695480382291935,97.6105744789019,0.0
626,-0.024913443338223085,0.006150863867255368,97.52520032217721,0.0
627,-0.024302319290208294,0.006579807673387209,97.43671579272893,0.0
628,-0.023987534324619628,0.006556601717946444,97.3453551110359,0.0
629,-0.02422231350605601,0.005894118451957457,97.25135137274145,0.0
630,-0.025246398311370006,0.004452536890464651,97.1549364225633,0.0
631,-0.02722741863431976,0.0021726986877359856,97.05634073979,0.0
632,-0.03020489129773471,-0.0008988819421026171,96.95579333525083,0.0
633,-0.03405304864402168,-0.004599658575040569,96.85352165962544,0.0
634,-0.03847581903154694,-0.008659322294571186,96.74975152294078,0.0
635,-0.043039509846159674,-0.01272718484628998,96.64470702508629,0.0
636,-0.04723843047210065,-0.016415256741469007,96.53861049716467,0.0
637,-0.05057936386903515,-0.019350212081606845,96.43168245348318,0.0
638,-0.05266563337490251,-0.021225383447129,96.32414155398176,0.0
639,-0.05326204270201736,-0.021843729790196244,96.21620457688616,0.0
640,-0.05232761940068773,-0.021144415462266426,96.1080864013691,0.0
641,-0.05001167903708373,-0.01920881382279678,96.0,0.0
642,-0.046617462937136867,-0.01624565128736187,95.89215644076064,0.0
643,-0.042544123189054144,-0.012558756648549035,95.78476489840699,0.0
644,-0.03822082287266365,-0.008503695620471624,95.67803267495721,0.0
645,-0.034046053270794026,-0.004440951332233999,95.57216522909167,0.0
646,-0.030341780963179854,-0.000693125799376468,95.46736621425507,0.0
647,-0.02732717014086185,0.002487893240900454,95.36383752525876,0.0
648,-0.025111927513870435,0.004940255192152343,95.26177935318866,0.0
649,-0.023705891464996864,0.006597096200206499,95.16139024843567,0.0
650,-0.023039680827980188,0.007478666464296621,95.06286719167504,0.0
651,-0.022990766306660818,0.007674928608510544,94.96640567263523,0.0
652,-0.023409787857773055,0.007322792613881912,94.8721997765093,0.0
653,-0.024143033666721398,0.006582163096054869,94.78044227787763,0.0
654,-0.025048596458917594,0.005614296360420481,94.69132474202661,0.0
655,-0.026005630218247387,0.004564866879880569,94.60503763356523,0.0
656,-0.026917902949801936,0.0035529145191551077,94.52177043225966,0.0
657,-0.02771389198924808,0.0026657276730015335,94.44171175602558,0.0
658,-0.028345591036275562,0.0019588683868266774,94.36504949103862,0.0
659,-0.02878710629178617,0.0014600205433075533,94.29197092894435,0.0
660,-0.02903271784199017,0.001175120137475253,94.2226629111725,0.0
661,-0.029093315929868576,0.0010952456465590657,94.1573119803839,0.0
662,-0.02899055989576622,0.0012029417656749398,94.09610453910278,0.0
663,-0.028749506327244986,0.0014769753079308767,94.03922701561486,0.0
664,-0.02839186970965586,0.001894948799504314,93.98686603723682,0.0
665,-0.02793250462816384,0.0024336936204828207,93.93920861109413,0.0
666,-0.027380729104297293,0.003067874513281659,93.89644231257145,0.0
667,-0.026746166292743404,0.0037676732510659693,93.85875548163432,0.0
668,-0.02604681055253155,0.004496677282310415,93.82633742725146,0.0
669,-0.02531594610192224,0.0052110928791474515,93.7993786401838,0.0
670,-0.02460481240089997,0.005861100519895076,93.77807101444212,0.0
671,-0.023979336974334464,0.006394620664887237,93.76260807775398,0.0
672,-0.023511196764051192,0.006763085430026271,93.7531852314223,0.0
673,-0.02326519255571498,0.006928188564558734,93.75,1.0
674,-0.02328595354373256,0.0068681862171946426,93.7906393939898,0.0
675,-0.023587209967655367,0.006582268846987408,93.91031740742598,0.0
676,-0.0241463782992792,0.006091857968497271,94.10594703113165,0.0
677,-0.02490613353344767,0.005438335636387312,94.37476352368353,0.0
678,-0.025783127613537217,0.004677534453133591,94.7142764340313,0.0
679,-0.026682274659585118,0.003872091798638189,95.12222618891039,0.0
680,-0.02751347703597585,0.003083292784533909,95.59654429201645,0.0
681,-0.028206839490425,0.0023641365545842147,96.13531632607129,0.0
682,-0.028722688506026942,0.001755006562964706,96.736747065652,0.0
683,-0.029054067098908898,0.0012825786142529345,97.39912710430212,0.0
684,-0.029221401846871026,0.0009616468872754769,98.12080047909151,0.0
685,-0.02926114018248188,0.0007986470070299881,98.90013284363522,0.0
686,-0.029211775052506883,0.0007950735991475225,99.73547980016785,0.0
687,-0.029101425895567083,0.0009489305052437617,100.62515505568018,0.0
688,-0.028940867785553864,0.0012528921061117067,101.56739811912225,0.0
689,-0.028724665385074004,0.001688911113321859,102.56034130881065,0.0
690,-0.028441118664262445,0.0022203422466590215,103.60197589385245,0.0
691,-0.028089371474842195,0.002783910383961438,104.69011725293133,0.0
692,-0.027699609068826545,0.0032846505880079896,105.82236900042328,0.0
693,-0.027350242184572625,0.003596966880019937,106.99608610567515,0.0
694,-0.027175041292504237,0.003574043195312946,108.20833711839862,0.0
695,-0.027354151123573263,0.0030660770915907805,109.45586571331792,0.0
696,-0.028086272465698427,0.00194553302090933,110.7350518819288,0.0
697,-0.02954471585131859,0.00013536812728348418,112.04187322946177,0.0
698,-0.031826133022167837,-0.0023654104270068015,113.37186698115654,0.0
699,-0.03490535595862888,-0.005464911496800232,114.72009346304239,0.0
700,-0.03861072802799819,-0.008975266333248258,116.08110199659495,0.0
701,-0.04263040630221099,-0.01262590167746717,117.44890033029615,0.0
702,-0.04655200917105478,-0.016092542915853197,118.81692891868228,0.0
703,-0.049928274072599144,-0.019037929324850066,120.17804154302671,0.0
704,-0.052353624941125894,-0.021157551871683302,121.52449393688907,0.0
705,-0.053533583574740654,-0.022222432573196373,122.84794222113574,0.0
706,-0.05333160893625066,-0.022111377267473146,124.13945305076538,0.0
707,-0.05178477545010642,-0.020827144399456012,125.38952741162993,0.0
708,-0.049087960353360334,-0.018494086641180185,126.58813995890372,0.0
709,-0.04555320516358508,-0.015338306412002374,127.72479564032697,0.0
710,-0.041554977071294255,-0.011654449885751556,128.78860507630858,0.0
711,-0.0374728559549291,-0.007765329699166057,129.768379759598,0.0
712,-0.03364148321175741,-0.003981279982716725,130.65274757889168,0.0
713,-0.03031465563505972,-0.0005655005602888978,131.43028846153848,0.0
714,-0.027647179441370323,0.002290079801654653,132.08968908007836,0.0
715,-0.02569485472323513,0.004476227489625738,132.61991459932412,0.0
716,-0.024429777625048964,0.005965330443038591,133.0103943943691,0.0
717,-0.023765354303854562,0.00680004245165429,133.25121760051786,0.0
718,-0.023583845221907106,0.007075127160039838,133.33333333333334,1.0
719,-0.023759762004008936,0.006916395673912069,133.33054862288063,0.0
720,-0.02417512663333748,0.006460275809779803,133.32231823584175,0.0
721,-0.024726415243200347,0.005836666367731976,133.3088287212349,0.0
722,-0.025326153361036188,0.005156620092482481,133.29026775257705,0.0
723,-0.025903128241094375,0.004505338346271247,133.26682398311746,0.0
724,-0.026403798727178632,0.003940125489680735,133.2386869058204,0.0
725,-0.026794841770150155,0.003492400142046169,133.20604671824816,0.0
726,-0.027064625027364484,0.0031725620026610574,133.16909419247645,0.0
727,-0.027221032025277928,0.0029763991141203605,133.12802055016087,0.0
728,-0.027284631239049575,0.0028917391311999406,133.0830173428574,0.0
729,-0.027278688916549224,0.0029041854770108506,133.03427633768553,0.0
730,-0.027219507637106163,0.003001047455868656,132.98198940840868,0.0
731,-0.02711089876776808,0.0031729760943485933,132.92634843199335,0.0
732,-0.026945044812584133,0.0034133167526651013,132.86754519069575,0.0
733,-0.026709327095214282,0.0037156960723994043,132.80577127971247,0.0
734,-0.026396187615953467,0.00407075509253022,132.7412180204201,0.0
735,-0.026011936618383302,0.004463115353270454,132.6740763792187,0.0
736,-0.025581068119308756,0.004869569322473322,132.60453689198303,0.0
737,-0.025144662398064687,0.0052591480795687135,132.53278959411662,0.0
738,-0.02475379859712409,0.0055952360243349845,132.45902395619464,0.0
739,-0.024460518549063063,0.0058394082560179784,132.38342882517406,0.0
740,-0.02430921561979212,0.00595628511670337,132.30619237114178,0.0
741,-0.02433048945481049,0.005918507343546325,132.2275020395648,0.0
742,-0.0245381343577837,0.005710949642279273,132.14754450900114,0.0
743,-0.0249287588342842,0.005333472619725823,132.06650565422393,0.0
744,-0.025483036877246547,0.004801796583739202,131.9845705147076,0.0
745,-0.02616777071429181,0.00414639739785486,131.90192326842052,0.0
746,-0.02693843701815596,0.0034096218463355032,131.81874721086513,0.0
747,-0.027742275873350444,0.0026414657452661183,131.73522473930453,0.0
748,-0.028522067817837185,0.001894634759707776,131.6515373421119,0.0
749,-0.029220595019444247,0.001219602813235578,131.56786559317823,0.0
750,-0.029785557915144884,0.000660381598178329,131.48438915131223,0.0
751,-0.030174506973007633,0.0002516012705614881,131.40128676456771,0.0
752,-0.030359157564992953,1.7267929157487993e-05,131.31873627943202,0.0
753,-0.030328304600516113,-2.878177760465934e-05,131.23691465481184,0.0
754,-0.030088532993334242,0.00011887722618622045,131.15599798075297,0.0
755,-0.02966214955728475,0.00045952184849147246,131.0761615018337,0.0
756,-0.02908231468467617,0.0009879690481677653,130.99757964517258,0.0
757,-0.028386213371259426,0.0016945666273384193,130.92042605299594,0.0
758,-0.027608135491047056,0.0025626589995458504,130.8448736197132,0.0
759,-0.02677520122945838,0.0035633572169958888,130.77109453345176,0.0
760,-0.02590862769479824,0.004648382184452412,130.69926032200846,0.0
761,-0.025032328975864285,0.00574277325774216,130.62954190317924,0.0
762,-0.024188094000392523,0.006740066140219424,130.56210963943383,0.0
763,-0.023453149600394987,0.007502820135010781,130.49713339690842,0.0
764,-0.02295289564060977,0.007870863474393086,130.43478260869566,1.0
765,-0.022860601696764973,0.007678254039074375,130.37482671556512,0.0
766,-0.023378042411653966,0.006777902313430385,130.31683326323196,0.0
767,-0.02469644613180256,0.005070512367564317,130.2606690362339,0.0
768,-0.026944339598599293,0.002532575183053928,130.20620142663267,0.0
769,-0.030135376098682578,-0.0007627848929339489,130.1532983979559,0.0
770,-0.03413227093599866,-0.004637825346072525,130.10182845193788,0.0
771,-0.03864068714402283,-0.008818797012736699,130.0516605980236,0.0
772,-0.04323939730628324,-0.012961753549864407,130.0026643256026,0.0
773,-0.04744259522395881,-0.016692574936692208,129.95470957894287,0.0
774,-0.05078055971881398,-0.019655057477136268,129.90766673479558,0.0
775,-0.0528794909571578,-0.021558980910750654,129.86140658264577,0.0
776,-0.053522006886398875,-0.022219836358132544,129.81580030758354,0.0
777,-0.05267589799527165,-0.021583435651684843,129.7707194757735,0.0
778,-0.05048780834272215,-0.019731526582767424,129.72603602250084,0.0
779,-0.04724733090137869,-0.016868098184220234,129.6816222427742,0.0
780,-0.04333288867468802,-0.01328945991202499,129.6373507844653,0.0
781,-0.03915245735207911,-0.009343718295343539,129.59309464396696,0.0
782,-0.03509011404457948,-0.005386529531297916,129.54872716435148,0.0
783,-0.03146527576349335,-0.001739889962953929,129.50412203601144,0.0
784,-0.02850730827755112,0.001340545933891277,129.45915329976444,0.0
785,-0.02634521699970881,0.0036861447422601506,129.41369535240509,0.0
786,-0.025010531206949144,0.0052227682727075155,129.36762295468466,0.0
787,-0.02445066163380906,0.00596593367136064,129.32081124170023,0.0
788,-0.024549358407062735,0.006006145472814584,129.27313573567395,0.0
789,-0.02515037184704136,0.005487817986618628,129.22447236110156,0.0
790,-0.026080444101747428,0.004585461433007288,129.17469746224856,0.0
791,-0.027168690954528316,0.0034804877465500293,129.12368782297182,0.0
792,-0.028261076188440207,0.0023412799099476003,129.07132068884178,0.0
793,-0.02923029719588428,0.0013082612733984512,129.0174737915393,0.0
794,-0.029982191328218128,0.00048477324310826223,128.96202537549973,0.0
795,-0.03045944765144894,-6.625741640394899e-05,128.9048542267744,0.0
796,-0.030642422545657844,-0.00032054321190615664,128.8458397040774,0.0
797,-0.030546128740495324,-0.00028671150791223466,128.7848617719836,0.0
798,-0.030212747007406372,1.9211636755167138e-06,128.7218010362416,0.0
799,-0.029700337705180775,0.0004965329782153562,128.65653878116177,0.0
800,-0.02907008343605963,0.0011415016882734387,128.5889570090381,0.0
801,-0.028375362894978006,0.0018814963834956028,128.51893848155808,0.0
802,-0.02765558232810033,0.0026662854430335916,128.4463667631543,0.0
803,-0.026936047891284506,0.0034531327811884666,128.37112626624491,0.0
804,-0.026232964079272034,0.004207161273689174,128.29310229831046,0.0
805,-0.025560828538321936,0.004900413876397066,128.2121811107487,0.0
806,-0.024938782503384004,0.005510456963542297,128.12824994944683,0.0
807,-0.024393118338308394,0.006019233706719589,128.0411971070067,0.0
808,-0.023954867671503257,0.0064125534889936855,127.95091197655555,0.0
809,-0.02365349355092238,0.006680220723472416,127.85728510706988,0.0
810,-0.02350930940063765,0.006816502854933632,127.76020826013847,0.0
811,-0.023527679613049232,0.006820517711698807,127.65957446808511,1.0
812,-0.02369720544802301,0.006696216570064891,127.52798823667555,0.0
813,-0.023992447523778486,0.00645189860675008,127.33967245136458,0.0
814,-0.02438006112452469,0.006099497190731809,127.0970439683277,0.0
815,-0.024826159322043417,0.005654088974547179,126.80263076710503,0.0
816,-0.025302501017757103,0.005134081866043255,126.45905229335122,0.0
817,-0.025789599164888568,0.004562296594717004,126.06900024855645,0.0
818,-0.026275803715568133,0.003967717055968405,125.63522002536698,0.0
819,-0.02675261544613534,0.0033871767207624606,125.16049296041739,0.0
820,-0.027207735242418138,0.0028658502946764695,124.647619549015,0.0
821,-0.027618377290325957,0.002455307920222947,124.09940373836582,0.0
822,-0.027947814913211185,0.002208183367947356,123.51863838897674,0.0
823,-0.028147691817361355,0.002169225522725572,122.90809196799354,0.0
824,-0.02816730008140906,0.002363536417369524,122.2704965140058,0.0
825,-0.027969111024101333,0.0027839244821576434,121.60853689063302,0.0
826,-0.027547828121364554,0.0033802186873329843,120.9248413262557,0.0
827,-0.026948555833022234,0.004053791535949959,120.2219732197307,0.0
828,-0.026278702925853624,0.004660195725535379,119.50242417690194,0.0
829,-0.025708321102916255,0.005021652043770319,118.76860823017985,0.0
830,-0.02545505620309002,0.004949258049735742,118.02285718334473,0.0
831,-0.025752857479472167,0.004272549415686427,117.26741701590782,0.0
832,-0.0268076769442616,0.0028719281807647744,116.50444527568027,0.0
833,-0.028747721001115712,0.0007080211238378047,115.73600938446067,0.0
834,-0.03157919035688182,-0.0021582863394927366,114.96408577975365,0.0
835,-0.035159592975846796,-0.005560332217535065,114.19055981495796,0.0
836,-0.039198630202533204,-0.009237495766433432,113.41722634129414,0.0
837,-0.04329107534403509,-0.012863908542163831,112.64579089667345,0.0
838,-0.046977979302711595,-0.016090155721253756,111.8778714295355,0.0
839,-0.049824264752586105,-0.018591213132128935,111.11500048922017,0.0
840,-0.051495225062381814,-0.02011233229275414,110.35862781851353,0.0
841,-0.05181388805104913,-0.02050478202757545,109.61012328847558,0.0
842,-0.050786151094296655,-0.01974526746307194,108.87078012037264,0.0
843,-0.048589455918814535,-0.017936032189993727,108.14181834439736,0.0
844,-0.045530446838781075,-0.015286355175213045,107.42438844975705,0.0
845,-0.041984249924514994,-0.01207952923233246,106.71957518557444,0.0
846,-0.03833065488070776,-0.008631731548902573,106.02840147680193,0.0
847,-0.034900466956055275,-0.005250056209734874,105.35183242396025,0.0
848,-0.031940182394391566,-0.0021963450320999535,104.69077935992965,0.0
849,-0.029597195412759257,0.000338356996481012,104.04610394122868,0.0
850,-0.027922919975064922,0.0022463457378264504,103.41862225519083,0.0
851,-0.02688849741113125,0.0035029244197952456,102.80910892819252,0.0
852,-0.02640711530969051,0.004155364891868823,102.21830122359222,0.0
853,-0.026357715974678127,0.004304626663360623,101.6469031213217,0.0
854,-0.026606293301694284,0.0040837403339455,101.09558937413613,0.0
855,-0.027022585445559938,0.0036364604654948954,100.56500953839803,0.0
856,-0.027491495716479075,0.0030989728041033926,100.05579197996116,0.0
857,-0.027919774453774825,0.0025863740093651924,99.56854785825665,0.0
858,-0.028239125519065034,0.0021845763847417347,99.10387509409325,0.0
859,-0.028406871916139043,0.001947403031398527,98.66236232899212,0.0
860,-0.02840483240234833,0.0018980209389956185,98.2445928861166,0.0
861,-0.028236552619915107,0.002033523609543416,97.85114874506085,0.0
862,-0.02792288166184441,0.0023313812720871744,97.48261454496189,0.0
863,-0.027496185548426873,0.002756562546567363,97.13958163263621,0.0
864,-0.02699402122335737,0.003268332541437831,96.82265217475387,0.0
865,-0.026453466939175337,0.0038259950804136736,96.53244335549243,0.0
866,-0.025907187838913628,0.0043931292305747875,96.26959168370922,0.0
867,-0.025381668750185524,0.004940140153291521,96.0347574364842,0.0
868,-0.024897203524323123,0.005445177147355499,95.82862926897573,0.0
869,-0.024468704581242767,0.005893652697563982,95.6519290239629,0.0
870,-0.024106493877817353,0.006276721987166092,95.50541677829497,0.0
871,-0.02381680929619756,0.00658915954359472,95.38989616781771,0.0
872,-0.023602331656839975,0.0068271092045338886,95.30622003729206,0.0
873,-0.023463185035819685,0.006986190785128367,95.25529646748201,0.0
874,-0.023398524122064338,0.007060414906305976,95.23809523809524,1.0
875,-0.02340828930298537,0.00704226805336177,95.2965194645018,0.0
876,-0.023494368387330437,0.006924162359750701,95.4683437872485,0.0
877,-0.023660454441374164,0.006701190223633952,95.7489446860593,0.0
878,-0.023910265663507985,0.006374799647496399,96.13434063079227,0.0
879,-0.02424428879242292,0.005956661468666979,96.62109132677534,0.0
880,-0.024655655491518904,0.005471712642812347,97.20620830062967,0.0
881,-0.025126109082678687,0.004959223692832988,97.88707406117759,0.0
882,-0.025623276299490006,0.004470839515901477,98.6613675204295,0.0
883,-0.02610060588727153,0.004064933759443192,99.5269937060054,0.0
884,-0.026501276798712507,0.0037972922930943,100.48201606493427,0.0
885,-0.026766951228878205,0.003709019710928112,101.52458987012788,0.0
886,-0.02685128886946894,0.0038134856513378722,102.65289541159237,0.0
887,-0.026736628219109892,0.004084878225582216,103.86506979871537,0.0
888,-0.02645048121557837,0.004451277122703252,105.15913633031168,0.0
889,-0.026077134755882712,0.004794909460456248,106.53293051733104,0.0
890,-0.025759447694585148,0.004961324331085476,107.98402198087432,0.0
891,-0.025687278616937745,0.004777689530217609,109.50963160733876,0.0
892,-0.026071705872897664,0.004078518346413719,111.10654353557753,0.0
893,-0.027107663806899558,0.002735257126653602,112.77101179098831,0.0
894,-0.028930995808408605,0.0006847514853595416,114.4986616820194,0.0
895,-0.03157843870239327,-0.00204893501875459,116.28438644931992,0.0
896,-0.03496004002673943,-0.005344299349080095,118.12224011956017,0.0
897,-0.038852434471216946,-0.008987015050631701,120.00532807567957,0.0
898,-0.04291797397994807,-0.012690047677683863,121.92569752003688,0.0
899,-0.04674914737757296,-0.016126986857598523,123.87423077741094,0.0
900,-0.04993113183220386,-0.018973641081025724,125.84054525242756,0.0
901,-0.05210967680790003,-0.02095116274533906,127.81290479912693,0.0
902,-0.05304908365895129,-0.021863519098960147,129.7781482403221,0.0
903,-0.05266718087355132,-0.02162312336507578,131.72164173137926,0.0
904,-0.051040465367466634,-0.02026066169121056,133.6272625130751,0.0
905,-0.04838074965985998,-0.01791807694631185,135.47742223151192,0.0
906,-0.04499171820959969,-0.014826635774217976,137.25313828570822,0.0
907,-0.04121738839561034,-0.011274384224887569,138.93416144310424,0.0
908,-0.037393874083790996,-0.007568659893926931,140.49916708088946,0.0
909,-0.03381211272529579,-0.0039995279091544446,141.92601571967754,0.0
910,-0.030694429908297648,-0.0008091745960769436,143.19208590569448,0.0
911,-0.028183992869465956,0.0018292484517950184,144.2746789261615,0.0
912,-0.026344387379828513,0.003821684189337202,145.1514903681281,0.0
913,-0.025166538680556582,0.005152273254556691,145.8011383408909,0.0
914,-0.02458097302400591,0.005873099469631955,146.2037326100092,0.0
915,-0.02447397425837274,0.006087172289807855,146.34146341463415,1.0
916,-0.02470616451880657,0.005927741060330147,146.29507011192896,0.0
917,-0.02513172457822304,0.005537081167135109,146.15752854488068,0.0
918,-0.025616319611089775,0.005047558484897076,145.93153847979224,0.0
919,-0.02605194708697287,0.004567154172579623,145.6200972108816,0.0
920,-0.02636719718481747,0.004170807410017406,145.22646643286657,0.0
921,-0.026531676127300785,0.0038980030713826053,144.7541380720357,0.0
922,-0.026553742442274833,0.003756097554543913,144.20679963396714,0.0
923,-0.026471555177214445,0.0037280536898206588,143.58829959484234,0.0
924,-0.02633883433420357,0.0037826642660995754,142.90261332195797,0.0
925,-0.026208334499063988,0.003885087738660431,142.15380995976693,0.0
926,-0.02611711478253574,0.00400565953372067,141.34602066282153,0.0
927,-0.02607755983220845,0.004125465961322771,140.4834084985472,0.0
928,-0.026076547017607626,0.004237976629892723,139.5701402829013,0.0
929,-0.026082625566442266,0.004346952013292437,138.6103605525268,0.0
930,-0.026058541006419786,0.004461665485560689,137.608167819593,0.0
931,-0.025974891532715767,0.004591012574357934,136.5675932014545,0.0
932,-0.02582066579857873,0.004738206200509962,135.49258146757774,0.0
933,-0.025607753640628027,0.004897463747220164,134.38697450163,0.0
934,-0.025368621430998804,0.005053476554336088,133.25449713766466,0.0
935,-0.025148424707186867,0.005183688843368588,132.09874529619535,0.0
936,-0.024994254426292016,0.005262700804184844,130.92317631863892,0.0
937,-0.02494464860934786,0.005267619884766513,129.73110137695656,0.0
938,-0.025021970354759338,0.00518301465344582,128.52567981902112,0.0
939,-0.025229075488237333,0.005004288349259752,127.30991529887201,0.0
940,-0.025550341814916513,0.004738716420077747,126.08665353409822,0.0
941,-0.025956053242217714,0.004403964392679881,124.85858152958019,0.0
942,-0.02640859708156754,0.004024483585568192,123.6282281071754,0.0
943,-0.02686896838326455,0.0036266520895582876,122.39796558410245,0.0
944,-0.027302493610084275,0.0032338020995629976,121.17001244824031,0.0
945,-0.02768320435028112,0.002862309249372772,119.94643688581932,0.0
946,-0.027996669403814876,0.002519711607293892,118.72916102559027,0.0
947,-0.028241212144149947,0.0022054051080755976,117.51996577311287,0.0
948,-0.028427326538460442,0.0019138869355317563,116.32049611895482,0.0
949,-0.02857493338568495,0.0016398753026983085,115.13226681503197,0.0
950,-0.028708167648572182,0.0013840375578589453,113.95666832380238,0.0
951,-0.02884790585615317,0.001157644513298169,112.79497295533614,0.0
952,-0.02900324515058266,0.000984376260000295,111.6483411172661,0.0
953,-0.0291643037677118,0.0008978420221065433,110.51782761214693,0.0
954,-0.029299455796460108,0.0009341789551726728,109.40438792572547,0.0
955,-0.02935990336834823,0.0011202842828305691,108.30888445799114,0.0
956,-0.029293081504609922,0.0014596020774288846,107.23209265659183,0.0
957,-0.029063920736163453,0.0019186068266183471,106.17470701925451,0.0
958,-0.028679932322613455,0.0024178252752848893,105.13734693824023,0.0
959,-0.02821320776508165,0.0028310872622661657,104.12056236560299,0.0
960,-0.027810810299638812,0.0029955266663535215,103.1248392831372,0.0
961,-0.027685838962519374,0.0027327495600802582,102.15060496541989,0.0
962,-0.02808536226231716,0.0018789217624507403,101.19823302831841,0.0
963,-0.029238037165040403,0.0003189159434473592,100.26804825878283,0.0
964,-0.031291770676764294,-0.001982184587088003,99.36033122471785,0.0
965,-0.034257535383110216,-0.00495738311471601,98.47532266627385,0.0
966,-0.03797679217191214,-0.00843177435914527,97.61322767205255,0.0
967,-0.042125532514254965,-0.012135329494722643,96.77421964553494,0.0
968,-0.046258438720352596,-0.015733697424084026,95.95844406854121,0.0
969,-0.0498849217096612,-0.01887232844144001,95.16602206976988,0.0
970,-0.05255890006069361,-0.021226195843888365,94.39705380746217,0.0
971,-0.053959785380465926,-0.022546048533946983,93.65162167604278,0.0
972,-0.05394489180755036,-0.022692821869764297,92.92979334721583,0.0
973,-0.05256232439545747,-0.021654370139821563,92.23162465648703,0.0
974,-0.05002501234602762,-0.019542388371168482,91.55716234645426,0.0
975,-0.04665681089200223,-0.016571320182639997,90.90644667848986,0.0
976,-0.04282725864494605,-0.013024268712469957,90.27951392464533,0.0
977,-0.038891468310112344,-0.00921277275338545,89.67639875176599,0.0
978,-0.035146771278942175,-0.005437533840889445,89.09713650992401,0.0
979,-0.03181058151468698,-0.0019559686615879335,88.54176543738288,0.0
980,-0.029017257669762382,0.0010396807477375822,88.0103287944056,0.0
981,-0.026827617476267093,0.00343238462968299,87.5028769383324,0.0
982,-0.02524395869855592,0.005179377997875519,87.01946935248911,0.0
983,-0.02422527447975696,0.006302603340083606,86.56017664166188,0.0
984,-0.023700214249360172,0.006873642945193884,86.12508250709881,0.0
985,-0.02357768010210829,0.006996261601176964,85.71428571428572,1.0
986,-0.023756011596355712,0.006789209788549048,85.31577931872447,0.0
987,-0.024131637066269876,0.006371220217008783,84.91761958375311,0.0
988,-0.024607425603322478,0.0058493727445068835,84.52000738944635,0.0
989,-0.025100272622547746,0.005311334468221962,84.12313678632468,0.0
990,-0.02554697827588515,0.0048214562417189044,83.72719509582073,0.0
991,-0.025907369082394445,0.0044203232789841035,83.33236301854758,0.0
992,-0.026163936005154664,0.004127092201010974,82.93881474960864,0.0
993,-0.026317980237901398,0.00394377870745807,82.54671810022117,0.0
994,-0.026383170773857982,0.003860582090635072,82.15623462496042,0.0
995,-0.02637818534835855,0.0038613495100823245,81.7675197539634,0.0
996,-0.026320374172560324,0.003928397916044948,81.38072292946731,0.0
997,-0.026221960770210852,0.004046114435799837,80.99598774608958,0.0
998,-0.026089291593697942,0.004203016794449647,80.61345209429138,0.0
999,-0.025924498954920303,0.004392228993663846,80.23324830649871,0.0
1000,-0.025728199584811734,0.004610567849968402,79.85550330538814,0.0
1001,-0.025501856753047582,0.004856610776213689,79.48033875387584,0.0
1002,-0.025249102831825795,0.005128214425780313,79.10787120637947,0.0
1003,-0.024976192445003983,0.005419987442457277,78.73821226095376,0.0
1004,-0.024692294535121177,0.0057212066003880565,78.37146871192793,0.0
1005,-0.024410243074714084,0.006014616109082833,78.007742702704,0.0
1006,-0.024147757988439003,0.0062764627142259865,77.64713187839962,0.0
1007,-0.023928431628849427,0.00647798101987694,77.28972953804796,0.0
1008,-0.023781410427743902,0.006588341908214803,76.93562478609044,0.0
1009,-0.023738931400092908,0.006578816553817159,76.58490268292309,0.0
1010,-0.023831606234257938,0.006427621101950219,76.23764439428072,0.0
1011,-0.024082218605067193,0.006124651014191163,75.89392733926404,0.0
1012,-0.024499403758476753,0.005675161845876077,75.5538253368367,0.0
1013,-0.025072708722855552,0.005101470955698012,75.21740875063882,0.0
1014,-0.02577028116052963,0.0044419806723841136,74.88474463198199,0.0
1015,-0.02654004854886441,0.003747251822321782,74.555896860909,0.0
1016,-0.0273148559081829,0.0030734298558528685,74.23092628521827,0.0
1017,-0.02802151775373007,0.0024739392310328214,73.9098908573682,0.0
1018,-0.028592904360628477,0.001990878818000156,73.59284576919258,0.0
1019,-0.028981032974605827,0.0016478311942568114,73.27984358437106,0.0
1020,-0.029168074436827444,0.0014457321108075096,72.97093436861265,0.0
1021,-0.029171868914543406,0.001362990104359061,72.66616581752177,0.0
1022,-0.029043467580761956,0.0013602487937255452,72.36558338212885,0.0
1023,-0.02885632173962876,0.0013891888845271945,72.06923039207676,0.0
1024,-0.02868932193216415,0.001403785931428972,71.77714817646593,0.0
1025,-0.02860791246799527,0.0013717069306701587,71.48937618236907,0.0
1026,-0.028648157373516735,0.0012832392190131612,71.20595209103577,0.0
1027,-0.028807744106348072,0.0011554052821200333,70.9269119318152,0.0
1028,-0.029045980075024243,0.001029716377063831,70.65229019383246,0.0
1029,-0.029292667691253528,0.0009632303042102406,70.38211993546139,0.0
1030,-0.02946400999096377,0.0010139892130986948,70.11643289164287,0.0
1031,-0.029482710442929768,0.0012232590285499916,69.85525957910377,0.0
1032,-0.029299121309985972,0.0015980063269866232,69.59862939953751,0.0
1033,-0.0289103359243396,0.0020975018042454323,69.34657074081213,0.0
1034,-0.028374130460884273,0.002627675423083593,69.0991110762766,0.0
1035,-0.027814489157481723,0.003045815972743102,68.85627706224138,0.0
1036,-0.027415381133170037,0.003176489915849831,68.6180946337122,0.0
1037,-0.02740017526900253,0.002837384655688506,68.3845890984615,0.0
1038,-0.02799628497267376,0.0018715367395747134,68.15578522952461,0.0
1039,-0.029388503220352635,0.00018056014057710786,67.9317073562121,0.0
1040,-0.0316692234000378,-0.002247476299890949,67.71237945373277,0.0
1041,-0.034797572783259824,-0.005321598484401904,67.49782523152528,0.0
1042,-0.03858030201890377,-0.008847347706394537,67.28806822039944,0.0
1043,-0.04268370624422066,-0.012543736763988369,67.08313185859144,0.0
1044,-0.04667823222154571,-0.01607601327405439,66.88303957684052,0.0
1045,-0.050107995821592345,-0.01909924774239633,66.68781488259695,0.0
1046,-0.052569573968850196,-0.021305426946019227,66.49748144347568,0.0
1047,-0.053781201628833764,-0.02246589948275596,66.31206317007101,0.0
1048,-0.05362622208531931,-0.02246190793347301,66.13158429825307,0.0
1049,-0.05216228049998114,-0.02129833167643656,65.95606947106842,0.0
1050,-0.04959743263863457,-0.019099063063299206,65.78554382037095,0.0
1051,-0.046242630010397794,-0.01608585596319705,65.62003304831356,0.0
1052,-0.04245438499668363,-0.0125452556856544,65.45956350883307,0.0
1053,-0.03858103970904387,-0.008789807999808007,65.30416228926642,0.0
1054,-0.03492201803433688,-0.005119961471490015,65.15385729223905,0.0
1055,-0.03170388927661867,-0.0017920776317172397,65.00867731797139,0.0
1056,-0.029072176216030466,0.0010038445237072974,64.86865214715348,0.0
1057,-0.02709490479786562,0.003155227909488227,64.73381262454329,0.0
1058,-0.025773119054919868,0.004627192297014754,64.60419074344894,0.0
1059,-0.02505438413144612,0.005453918052558713,64.4798197312611,0.0
1060,-0.024846804587578757,0.005723787276350298,64.360734136208,0.0
1061,-0.025032537933256566,0.005561212339848648,64.24696991551168,0.0
1062,-0.025480705725247826,0.005107829156493075,64.13856452513146,0.0
1063,-0.026059824019933123,0.004505224328489321,64.0355570112881,0.0
1064,-0.026649513615788555,0.003880742152886864,63.93798810397079,0.0
1065,-0.027150665616095776,0.003337291271500588,63.84590031263658,0.0
1066,-0.027492862387471062,0.0029475011869477567,63.75933802432372,0.0
1067,-0.027637970295455002,0.002752088660861637,63.67834760440844,0.0
1068,-0.02757940861724177,0.0027618906975950966,63.60297750024705,0.0
1069,-0.027337389946170236,0.002962713808293807,63.533278347957385,0.0
1070,-0.02695112740338289,0.00332195598825347,63.4693030826058,0.0
1071,-0.02646948155420687,0.0037958988257064206,63.41110705208098,0.0
1072,-0.025941781235722987,0.00433665405867879,63.35874813495009,0.0
1073,-0.025410565391037206,0.004897971925186632,63.31228686261005,0.0
1074,-0.024907607165214684,0.005439439325313472,63.27178654606395,0.0
1075,-0.024453689884578068,0.005928949491735236,63.237313407671834,0.0
1076,-0.02406138678116007,0.006343634490451152,63.20893671824637,0.0
1077,-0.023739050217473183,0.006669649954006028,63.18672893988565,0.0
1078,-0.023493894534874604,0.006901252896628919,63.170765874960495,0.0
1079,-0.02333271068220502,0.007039529626214214,63.16112682169923,0.0
1080,-0.023260131246317556,0.0070909670746511005,63.15789473684211,1.0
1081,-0.02327579663378722,0.007065896876027997,63.1980407571132,0.0
1082,-0.023372476916300768,0.006976750475851665,63.316513866518065,0.0
1083,-0.02353672752928788,0.006836084132761626,63.51076861054688,0.0
1084,-0.023752207791107927,0.006654455338101669,63.77874287963977,0.0
1085,-0.024004216651148574,0.006438405681594639,64.11880036216795,0.0
1086,-0.024283311395022603,0.00618895884450564,64.52968113263034,0.0
1087,-0.024586541104465603,0.005901112194980131,65.01045866256486,0.0
1088,-0.02491636079533858,0.005564746790315451,65.56050182112506,0.0
1089,-0.02527854395536627,0.005167192455855967,66.17944064154419,0.0
1090,-0.02568043465581416,0.004697374850809887,66.86713478390558,0.0
1091,-0.02612971089373955,0.004151072849730831,67.62364373499479,0.0
1092,-0.026632497895284917,0.003536383369740204,68.44919786096257,0.0
1093,-0.027189391728707445,0.0028781140397113867,69.34416947452839,0.0
1094,-0.027789173738522938,0.002219619449913645,70.30904310056911,0.0
1095,-0.02840205486540404,0.0016206921541754944,71.34438412633902,0.0
1096,-0.028975924810080364,0.001150611519396771,72.45080500894454,0.0
1097,-0.029439272359172503,0.000876354887742127,73.62892818662888,0.0
1098,-0.029712940164671627,0.0008471762326926621,74.87934480573296,0.0
1099,-0.029730186657005723,0.0010780185940811775,76.20256833634637,0.0
1100,-0.029461545562168262,0.001535219279642465,77.59898211211735,0.0
1101,-0.028938587742744392,0.002128351469711167,79.06877980039765,0.0
1102,-0.028269553298519136,0.002711571418739523,80.6118977967403,0.0
1103,-0.027640309875012998,0.0030964364731751893,82.22793855408638,0.0
1104,-0.02729634371584661,0.0030759916061182608,83.91608391608393,0.0
1105,-0.027505385271406602,0.0024573913537623013,85.67499764363802,0.0
1106,-0.028505299547944025,0.0010979954675647535,87.502716525548,0.0
1107,-0.03044696387555792,-0.001061646250836338,89.39652977338037,0.0
1108,-0.03334542506693082,-0.00397473901971401,91.35284684652933,0.0
1109,-0.03705299539349361,-0.007480670357485519,93.36705446721069,0.0
1110,-0.04126411678303988,-0.011315851793021522,95.43336439888164,0.0
1111,-0.04555426020186742,-0.015142440526118666,97.54465460432021,0.0
1112,-0.04944598394457646,-0.018590850725990694,99.6923076923077,0.0
1113,-0.05248768098132545,-0.021309137336952277,101.8660521101891,0.0
1114,-0.05432722122597276,-0.023010898059748167,104.0538133243678,0.0
1115,-0.05476469377545317,-0.023513616292121352,106.2415841964619,0.0
1116,-0.05377477550268058,-0.022761266204101162,108.41332580463015,0.0
1117,-0.05149743754017847,-0.02082804857451455,110.55091191107304,0.0
1118,-0.048202992529370665,-0.01790361273490069,112.63413190078244,0.0
1119,-0.04424191066762306,-0.014263293101890324,114.64076800358251,0.0
1120,-0.03999074496286705,-0.01022913747873909,116.54676258992805,0.0
1121,-0.03580351497699736,-0.00612848391766559,118.3264898964051,0.0
1122,-0.03197442069604092,-0.002256513851232927,119.9531433033971,0.0
1123,-0.02871437862521948,0.001152203517503377,121.39924396243887,0.0
1124,-0.02614161960314264,0.003940258467127449,122.6372690497031,0.0
1125,-0.024285449551033116,0.006031440446576629,123.64038838858978,0.0
1126,-0.023101399180930255,0.007423771189924183,124.38328719546756,0.0
1127,-0.02249457883242644,0.008174573117396543,124.8430412279002,0.0
1128,-0.022346247964571186,0.008381393492991381,125.0,1.0
1129,-0.02253753065355139,0.00816257710166628,124.97630866020089,0.0
1130,-0.02296506993575597,0.0076405586377439735,124.90600560177054,0.0
1131,-0.02354639682412493,0.006929770345862779,124.79032169940989,0.0
1132,-0.024216666400379647,0.006129740400612395,124.63058002157057,0.0
1133,-0.024921248436820278,0.005322796231265929,124.42818682497547,0.0
1134,-0.02560908830136042,0.004575007170397376,124.18462240005479,0.0
1135,-0.02622987744888879,0.003938697948739352,123.90143185915677,0.0
1136,-0.02673530355748858,0.0034550033026410627,123.58021595451922,0.0
1137,-0.02708265357777336,0.003155384450599522,123.2226220071119,0.0
1138,-0.027238650654316025,0.0030616230512562244,122.83033502077723,0.0
1139,-0.027182299522671854,0.0031843947364898597,122.40506904879585,0.0
1140,-0.026906729110477687,0.0035209938310757846,121.94855887227638,0.0
1141,-0.026420694401131133,0.004053072809290534,121.46255204179396,0.0
1142,-0.02575021874178747,0.004745349789506417,120.94880132565049,0.0
1143,-0.024940060766249862,0.0055461230516436555,120.40905760015059,0.0
1144,-0.024053816543061886,0.006390129537057396,119.8450632095208,0.0
1145,-0.023171071358273974,0.0072038343811520675,119.25854581565784,0.0
1146,-0.02238044155160265,0.007912711737354186,118.6512127508722,0.0
1147,-0.02176858720734899,0.008449575524273464,118.02474588027437,0.0
1148,-0.02140692837556746,0.008762660286349738,117.38079697448627,0.0
1149,-0.021339177335740006,0.008822041690519297,116.72098358799157,0.0
1150,-0.021573221605878247,0.008623179757448501,116.04688543368613,0.0
1151,-0.022080002093449607,0.008186848168586794,115.3600412400627,0.0
1152,-0.0228000231806872,0.007555383841766818,114.6619460739525,0.0
1153,-0.023655734041833597,0.006785900025812849,113.95404910883776,0.0
1154,-0.024566212215896065,0.005941687478254855,113.23775181641291,0.0
1155,-0.025460144464660335,0.005083350603272208,112.51440655727615,0.0
1156,-0.026284207430647875,0.004261227698803189,111.78531554533879,0.0
1157,-0.02700601422752249,0.0035103458321833355,111.05173015969997,0.0
1158,-0.02761274857365563,0.002848643646047003,110.31485057730963,0.0
1159,-0.028107529863678142,0.0022785716339038115,109.57582569967978,0.0
1160,-0.028505205910574812,0.0017915578093143673,108.8357533471637,0.0
1161,-0.02882818898183804,0.0013742939044789028,108.09568069485078,0.0
1162,-0.029102005885897182,0.0010154177567116042,107.35660492488888,0.0
1163,-0.02935005358212828,0.0007109945921536707,106.61947407099379,0.0
1164,-0.029587710622374853,0.000467283822941646,105.88518803200792,0.0
1165,-0.029817036527728488,0.0002996603718110843,105.15459973258736,0.0
1166,-0.030024182223306474,0.0002272506910222724,104.42851641039728,0.0
1167,-0.030181812395400135,0.00026379115184824034,103.70770101055567,0.0
1168,-0.03025804725262144,0.00040628129787214197,102.99287366945293,0.0
1169,-0.030231712597695373,0.0006239611094158758,102.28471327147638,0.0
1170,-0.03011134992255281,0.0008507131552639457,101.58385906355913,0.0
1171,-0.029953016341343865,0.0009839183661999253,100.89091231384181,0.0
1172,-0.0298701781744666,0.0008919254682826288,100.20643800206581,0.0
1173,-0.03002896407568981,0.0004306637595435144,99.53096653060379,0.0
1174,-0.03062458692619172,-0.0005321984020657147,98.86499544626284,0.0
1175,-0.031840010550887206,-0.002089300832587044,98.20899116416788,0.0
1176,-0.03379469522436974,-0.004267200062660132,97.56339068613919,0.0
1177,-0.036496945109985995,-0.007007426515719457,96.92860330701923,0.0
1178,-0.03981514153209355,-0.010160040363879675,96.30501230337701,0.0
1179,-0.04347937727660295,-0.0134925846421247,95.69297659992253,0.0
1180,-0.047116487308615215,-0.016714299194385444,95.09283240980531,0.0
1181,-0.05031125437071942,-0.01951224849700741,94.5048948457425,0.0
1182,-0.05267862173126787,-0.021593419466470764,93.92945949963628,0.0
1183,-0.05392906796075943,-0.02272550253324944,93.36680398899166,0.0
1184,-0.05391254038486829,-0.022769289074160714,92.81718946904272,0.0
1185,-0.05263366598579263,-0.021697302007582298,92.2808621100397,0.0
1186,-0.05023915784861534,-0.019595970418802875,91.75805453964506,0.0
1187,-0.04698450854233201,-0.01665170719904353,91.24898725083742,0.0
1188,-0.043189785350866414,-0.013123983356174242,90.75386997613326,0.0
1189,-0.0391938259154961,-0.009310401093906968,90.27290302931016,0.0
1190,-0.035313626930023295,-0.005509587086160904,89.80627861615766,0.0
1191,-0.031812757704366895,-0.00198745673846221,89.35418211609473,0.0
1192,-0.028880394696088402,0.001048753008856063,88.91679333678275,0.0
1193,-0.026621435233141078,0.0034659916289012487,88.49428774413141,0.0
1194,-0.025057617488566292,0.005209649815500838,88.08683767034819,0.0
1195,-0.0241388042379904,0.006297523133109322,87.69461350292143,0.0
1196,-0.023762170201822804,0.00680580624032053,87.31778485765892,0.0
1197,-0.023795422264824753,0.0068502468253582,86.95652173913044,1.0
1198,-0.02409937356934299,0.0065657953338473475,86.60169595447462,0.0
1199,-0.024545893300407844,0.0060877489401874275,86.24426966113691,0.0
1200,-0.02502925497382053,0.005536646292519868,85.88454382507734,0.0
1201,-0.025471181450509358,0.005008212722815554,85.52281194520567,0.0
1202,-0.025821316018201264,0.004568678227246279,85.15935998368086,0.0
1203,-0.02605497258084064,0.004254951803557077,84.79446631787859,0.0
1204,-0.02616924085847575,0.004078535931358442,84.42840171284465,0.0
1205,-0.026177712325218563,0.004031742847761884,84.06142931305573,0.0
1206,-0.02610392490780298,0.004094720742059825,83.69380465231716,0.0
1207,-0.02597416829854946,0.004241974758191175,83.32577568064222,0.0
1208,-0.025811057109199634,0.004447420281842326,82.95758280697599,0.0
1209,-0.025629596969140262,0.004687467957595062,82.58945895665069,0.0
1210,-0.02543692061027936,0.004942132550567367,82.22162964248591,0.0
1211,-0.025235556533378733,0.005194593642797303,81.8543130484783,0.0
1212,-0.02502862399612565,0.0054299315701697186,81.4877201250572,0.0
1213,-0.024824524643878472,0.005633857498218201,81.12205469491894,0.0
1214,-0.024639001673068407,0.005792136700389107,80.75751356848993,0.0
1215,-0.024493687215435173,0.005891106586263932,80.3942866681058,0.0
1216,-0.02441175992702842,0.005919298488175254,80.03255716003619,0.0
1217,-0.02441234746509718,0.005869789109859389,79.67250159352258,0.0
1218,-0.024505487532780604,0.005742630673041842,79.31429004604047,0.0
1219,-0.024688957307928593,0.005546602717555204,78.95808627403592,0.0
1220,-0.024947519383126213,0.005299613413494472,78.60404786842987,0.0
1221,-0.025254498078163864,0.0050273315908212135,78.25232641422313,0.0
1222,-0.02557525579577844,0.004759998266265549,77.90306765357668,0.0
1223,-0.02587203522132287,0.004527776521882231,77.55641165178075,0.0
1224,-0.02610962352787109,0.00435537439200359,77.21249296556645,0.0
1225,-0.02626124511017152,0.00425694438532029,76.87144081325096,0.0
1226,-0.026313936687521924,0.00423236444408818,76.53337924624539,0.0
1227,-0.02627244204095742,0.00426589695751413,76.19842732148999,0.0
1228,-0.026160530454165547,0.004327892044960326,75.86669927441676,0.0
1229,-0.026018793517402213,0.004379674014643693,75.53830469207315,0.0
1230,-0.02589853756529561,0.004381095048878061,75.21334868607303,0.0
1231,-0.0258522960977827,0.00429956900700348,74.89193206507241,0.0
1232,-0.02592246599013223,0.004118850548129417,74.57415150649729,0.0
1233,-0.026130290049123678,0.0038455445075678833,74.26009972727954,0.0
1234,-0.02646766232006948,0.003511434139544751,73.94986565338417,0.0
1235,-0.02689401980341456,0.0031702611546973705,73.64353458793703,0.0
1236,-0.02734000539548627,0.0028885464110256095,73.34118837778705,0.0
1237,-0.02771868261707556,0.0027312804715668355,73.04290557836035,0.0
1238,-0.027943793222794538,0.0027446192619822118,72.74876161668568,0.0
1239,-0.027952860089283427,0.002938810610167233,72.45882895249208,0.0
1240,-0.02773107802583947,0.0032751606724457823,72.17317723729896,0.0
1241,-0.027330423268366027,0.003660690722060376,71.89187347143823,0.0
1242,-0.026877903140973845,0.00395312895500496,71.61498215896528,0.0
1243,-0.026567898706537696,0.003977107723351231,71.34256546043254,0.0
1244,-0.026636326671686552,0.0035501760172706788,71.07468334351547,0.0
1245,-0.027318587341976456,0.00251494206633587,70.81139373149477,0.0
1246,-0.028798145619877036,0.0007718652727100178,70.55275264961382,0.0
1247,-0.031156750883153228,-0.0016935930248416125,70.29881436934248,0.0
1248,-0.034339091659757535,-0.004795272254905895,70.0496315505917,0.0
1249,-0.03814276983202881,-0.008346102774828506,69.8052553819346,0.0
1250,-0.042238685219778714,-0.01207465034478315,69.56573571890115,0.0
1251,-0.0462187803331796,-0.015656502270070444,69.33112122042425,0.0
1252,-0.04966052079260341,-0.01875569145317288,69.10145948352474,0.0
1253,-0.052193408727320804,-0.021069393761517063,68.87679717633306,0.0
1254,-0.053553583674715535,-0.022368519406935076,68.65718016955387,0.0
1255,-0.05361722709706276,-0.022527642341152544,68.44265366648953,0.0
1256,-0.05240960318343661,-0.02153973899492364,68.23326233174609,0.0
1257,-0.050091740203484496,-0.019513964005254673,68.02905041875475,0.0
1258,-0.04692984993484131,-0.016657594335521594,67.83006189624922,0.0
1259,-0.04325384395485918,-0.01324577436236742,67.63634057384756,0.0
1260,-0.03941156005659019,-0.009584380375532739,67.44793022689565,0.0
1261,-0.03572510526798765,-0.00597197569872971,67.26487472073647,0.0
1262,-0.032455080334510056,-0.0026664353300764015,67.0872181345782,0.0
1263,-0.02977717920207455,0.00013944935471313933,66.91500488514191,0.0
1264,-0.027773667093630373,0.002330918437228417,66.74827985027797,0.0
1265,-0.02643966950659413,0.003872323859039033,66.58708849274848,0.0
1266,-0.02570145505609003,0.004797803412187978,66.43147698438263,0.0
1267,-0.025441650746450828,0.005194418969307305,66.28149233081999,0.0
1268,-0.025525376303131533,0.00518138072000387,66.137182497067,0.0
1269,-0.025822084553151214,0.004889028837958272,65.99859653410161,0.0
1270,-0.02622016742154217,0.004440686910847359,65.86578470677176,0.0
1271,-0.026634121617111175,0.00393953160814591,65.73879862324422,0.0
1272,-0.027006051450492063,0.003461475537682638,65.6176913662726,0.0
1273,-0.02730379886394551,0.0030539527344833166,65.50251762656575,0.0
1274,-0.027517197411730216,0.0027395889444307526,65.39333383855136,0.0
1275,-0.027652746593876346,0.002523122452102218,65.2901983188438,0.0
1276,-0.027726431481495457,0.0023996485767822573,65.19317140774152,0.0
1277,-0.02775495471413246,0.0023622886596123445,65.10231561409476,0.0
1278,-0.027746920181643733,0.0024077073454951132,65.01769576390403,0.0
1279,-0.02769655542273752,0.002538473666333328,64.93937915302735,0.0
1280,-0.02758253511513276,0.002762003056414871,64.86743570439664,0.0
1281,-0.027373159241982185,0.003086609390708687,64.8019381301658,0.0
1282,-0.02703702369742122,0.003515885250240515,64.74296209923693,0.0
1283,-0.02655624529509844,0.004043056636493866,64.69058641063873,0.0
1284,-0.02593808559912105,0.004647005646417562,64.6448931732587,0.0
1285,-0.02522094953596256,0.005291283411426123,64.60596799246288,0.0
1286,-0.02447222916786469,0.005926714706964939,64.5739001641695,0.0
1287,-0.023777864602202024,0.006497293922317405,64.54878287698074,0.0
1288,-0.023226031092453272,0.006948218929275453,64.53071342301543,0.0
1289,-0.022889206163774278,0.007234332456562098,64.51979341812958,0.0
1290,-0.022809423427219366,0.007327099850760096,64.51612903225806,1.0
1291,-0.022990607193763734,0.007218591430865537,64.56804681102543,0.0
1292,-0.023399802525149827,0.006921669650191973,64.72108986879107,0.0
1293,-0.023976540566914343,0.0064665109147340055,64.97184405964192,0.0
1294,-0.02464734106323528,0.005894471389409446,65.31767323169535,0.0
1295,-0.025341162884784,0.005250904208188814,65.7566223772499,0.0
1296,-0.026001795095428826,0.004578700010888204,66.28733642939851,0.0
1297,-0.02659454946192181,0.0039140184405191515,66.90899113132257,0.0
1298,-0.027106554415199886,0.0032849911874447413,67.62123303330256,0.0
1299,-0.027541701330414944,0.00271328745536755,68.424126123246,0.0
1300,-0.02791232603545719,0.0022175668762785703,69.31810290952018,0.0
1301,-0.028229958548835445,0.0018172224963600627,70.30391797876236,0.0
1302,-0.02849727618950936,0.0015346034863443745,71.38260216668453,0.0
1303,-0.028703139051900476,0.0013941831389863574,72.5554155216553,0.0
1304,-0.028822371491561558,0.0014178779038694811,73.82379722028351,0.0
1305,-0.028821517168107123,0.0016167969196075396,75.18931052044836,0.0
1306,-0.028670774818786854,0.0019808861258474187,76.65358071854332,0.0
1307,-0.02836062347797303,0.0024689453134748474,78.21822392305015,0.0
1308,-0.027919632960819524,0.0030020534748377986,79.88476427692584,0.0
1309,-0.027428327624738652,0.003463312691982726,81.65453707144485,0.0
1310,-0.02702346318774724,0.003705919980731261,83.52857501464312,0.0
1311,-0.026888187308941984,0.0035699885737852165,85.5074747770817,0.0
1312,-0.027226390069535367,0.0029065477093389285,87.5912408759124,0.0
1313,-0.028223720521186373,0.0016051890747017675,89.77910402876844,0.0
1314,-0.030002298013579266,-0.00037960499012178964,92.06931138242312,0.0
1315,-0.0325796483928298,-0.0030088922056346152,94.45888658775625,0.0
1316,-0.03584332602772244,-0.006151185229741275,96.9433586637209,0.0
1317,-0.03955012396965883,-0.009588719890078284,99.51646010007254,0.0
1318,-0.043353029223960844,-0.013038299832433826,102.16979683741876,0.0
1319,-0.04685177379867483,-0.016184082513511108,104.89249578155277,0.0
1320,-0.04965633992648496,-0.018717261079654872,107.67083948470079,0.0
1321,-0.05144926731776246,-0.02037619749922087,110.48790263132523,0.0
1322,-0.052033202374701076,-0.020980486764284715,113.32321096621305,0.0
1323,-0.051354532897799114,-0.020453659517480238,116.1524500907441,0.0
1324,-0.049500623252772755,-0.01883142452109978,118.94725867230672,0.0
1325,-0.046674855266079764,-0.016254968492824914,121.67514727791186,0.0
1326,-0.04315823162228511,-0.012951277945160409,124.29958909226745,0.0
1327,-0.039267490847722,-0.00920424846851447,126.78033067305911,0.0
1328,-0.0353177256446361,-0.005321246636176793,129.07396782040195,0.0
1329,-0.031593798886034294,-0.0015997849606527452,131.13482175707486,0.0
1330,-0.028331186050862656,0.001701740449810524,132.91613268312167,0.0
1331,-0.02570451077112334,0.0043864155993107255,134.3715608800151,0.0
1332,-0.023821369586023274,0.006332668400588627,135.45695094646854,0.0
1333,-0.022719714683977797,0.007499135083039232,136.13227553532246,0.0
1334,-0.022368387409233775,0.007920966915730247,136.36363636363637,1.0
1335,-0.022671668035155915,0.0076987288367156926,136.31136768265645,0.0
1336,-0.023479356049458614,0.006981598381633212,136.1564699194323,0.0
1337,-0.024603510174771283,0.005947000675599291,135.90213461443216,0.0
1338,-0.025841428633731733,0.004779098294034187,135.55195597232657,0.0
1339,-0.02700212331461316,0.003648630278431215,135.10988346328799,0.0
1340,-0.027931417864064948,0.0026963832660308606,134.58017263928852,0.0
1341,-0.02853007261240647,0.002022035470976591,133.9673351250775,0.0
1342,-0.02876069156133285,0.0016792775640410698,133.27608868762653,0.0
1343,-0.02864226693105452,0.0016771161167216339,132.51130821112955,0.0
1344,-0.028234851000635625,0.00198630904917223,131.6779783119739,0.0
1345,-0.027619557277472107,0.002549183653399291,130.78114822440102,0.0
1346,-0.026879874751591343,0.003290801449092797,129.82588947766843,0.0
1347,-0.026088955714431313,0.004129601430271721,128.81725677385404,0.0
1348,-0.02530476889014232,0.004986186466905784,127.7602523659306,0.0
1349,-0.02457196746892707,0.0057896312098392015,126.65979413167571,0.0
1350,-0.023927180104199388,0.006481364793048041,125.52068744296156,0.0
1351,-0.0234038828362177,0.007017138285585438,124.34760084388799,0.0
1352,-0.02303402817343281,0.007367739421830317,123.14504547630445,0.0
1353,-0.022845565079240005,0.007518991530473737,121.91735812812556,0.0
1354,-0.022856986215702313,0.0074712852688002766,120.66868772856385,0.0
1355,-0.023071315948873926,0.00723859527299662,119.40298507462686,0.0
1356,-0.023472132642181592,0.006846764244406338,118.12399554425556,0.0
1357,-0.02402340472657783,0.006330864424984548,116.83525453237039,0.0
1358,-0.0246735708146653,0.00573165725168457,115.54008533572872,0.0
1359,-0.025362983011422834,0.00509147981483641,114.24159920968812,0.0
1360,-0.02603299137860924,0.004450166015508267,112.9426973234902,0.0
1361,-0.026634709860222094,0.003841739696265456,111.64607434934152,0.0
1362,-0.02713572403271374,0.003292519146388984,110.35422343324251,0.0
1363,-0.027523437243374357,0.002820939879974004,109.06944231117454,0.0
1364,-0.02780428801499561,0.0024389052429476393,107.79384035197988,0.0
1365,-0.027998786807346816,0.0021539465576503676,106.52934632725767,0.0
1366,-0.028133322948420886,0.001971084552346052,105.27771672817941,0.0
1367,-0.028230866747405808,0.0018931903133940684,104.04054446873856,0.0
1368,-0.02830361104583105,0.001918946232905657,102.81926783414504,0.0
1369,-0.028350717949882944,0.0020382022112053226,101.61517955151325,0.0
1370,-0.028363319544854618,0.002225481396893961,100.42943587741559,0.0
1371,-0.02833682454372704,0.002433370273541743,99.2630656131079,0.0
1372,-0.028287863457685705,0.002588222381039103,98.11697897316732,0.0
1373,-0.028270624480780722,0.002590723341932363,96.99197624686295,0.0
1374,-0.028385833352470084,0.00232323048092112,95.8887562037951,0.0
1375,-0.028776113752857546,0.0016644305978840306,94.80792420621229,0.0
1376,-0.029604406333077933,0.0005100008299452974,93.75,0.0
1377,-0.03101716468923896,-0.001203947194780224,92.71542516469769,0.0
1378,-0.033099832909548356,-0.0034792746270789375,91.70457021012537,0.0
1379,-0.03583658432073041,-0.006241156714842234,90.71774131337955,0.0
1380,-0.03908740329328355,-0.009334659798610664,89.7551866951819,0.0
1381,-0.04259217494653561,-0.012534906755052963,88.81710263893056,0.0
1382,-0.04600407262716491,-0.015570465613005336,87.90363915940543,0.0
1383,-0.048945623186714596,-0.018156751621340245,87.01490533100578,0.0
1384,-0.05107380230491449,-0.020033970999327164,86.15097428773427,0.0
1385,-0.05213814311074841,-0.021003024210866805,85.31188790896748,0.0
1386,-0.052018821577720746,-0.020953094471989897,84.49766120644036,0.0
1387,-0.050738344070509395,-0.019876271123602858,83.7082864288886,0.0
1388,-0.04844786569712707,-0.017867074734751104,82.94373690149928,0.0
1389,-0.04539472115001356,-0.015107555842832453,82.20397061776877,0.0
1390,-0.04188024759345747,-0.011841117550941596,81.48893360160965,0.0
1391,-0.03821661906288958,-0.008339891755439189,80.79856305762493,0.0
1392,-0.03468922420987299,-0.004871138902929141,80.1327903274187,0.0
1393,-0.03152838189354072,-0.0016677468517203985,79.49154366967076,0.0
1394,-0.02889194530987213,0.0010933199592159338,78.87475088149624,0.0
1395,-0.026859005223638342,0.0033024987774092473,78.28234177837122,0.0
1396,-0.02543415321463387,0.00491878095485131,77.71425054964728,0.0
1397,-0.024560965528299214,0.00596195778902148,77.17041800643086,0.0
1398,-0.02414216416010554,0.006498593606056201,76.65079373837808,0.0
1399,-0.0240625746021361,0.006624958764364921,76.15533819577524,0.0
1400,-0.024210236090365073,0.006450100016165314,75.68402471315092,0.0
1401,-0.024491457987259112,0.006081598631029408,75.23684149061452,0.0
1402,-0.024837361169159734,0.005615554409306619,74.8137935491515,0.0
1403,-0.02520198692643907,0.005131189341510119,74.41490467624271,0.0
1404,-0.025554522638724802,0.004689452162886925,74.04021937842779,0.0
1405,-0.025869731166856133,0.004334336776529583,73.68980485781664,0.0
1406,-0.026120772149541935,0.004095412543441265,73.36375303008698,0.0
1407,-0.026277261716342114,0.003990284328965841,73.06218260220417,0.0
1408,-0.026309120052501123,0.004026221558462079,72.78524122898939,0.0
1409,-0.026194340045279863,0.004200816591958507,72.53310776876106,0.0
1410,-0.025927189778939968,0.004502049200241112,72.30599465961556,0.0
1411,-0.02552318541939521,0.004908402231626509,72.10415043952375,0.0
1412,-0.025018521729552823,0.0053896498661555655,71.92786243534181,0.0
1413,-0.024463944560906243,0.0059086822780146896,71.77745964810754,0.0
1414,-0.023915264664822806,0.006424365706306453,71.6533158646729,0.0
1415,-0.023423853965941297,0.006895105848908115,71.55585302886746,0.0
1416,-0.023030089328893208,0.007282587936125155,71.48554490907034,0.0
1417,-0.022761124311643757,0.007555142934981725,71.44292110337565,0.0
1418,-0.02263241171155656,0.0076903028527457555,71.42857142857143,1.0
1419,-0.022650961008258638,0.007676287010891211,71.47071892816753,0.0
1420,-0.022817960224472723,0.007512334458148688,71.59502467343444,0.0
1421,-0.023129198157974058,0.007207927214176379,71.79867354020095,0.0
1422,-0.023573279555886218,0.00678103910858714,72.07931689313936,0.0
1423,-0.024129169495585877,0.00625562735226671,72.4350133378574,0.0
1424,-0.02476533207983642,0.00565868745371592,72.86417701370777,0.0
1425,-0.025442212478082198,0.00501731376235973,73.36553179817265,0.0
1426,-0.026118250851666892,0.004356302295326223,73.93807005041583,0.0
1427,-0.0267577554781439,0.0036968263675750614,74.58101471643046,0.0
1428,-0.0273377102758998,0.0030565436837473956,75.29378376470612,0.0
1429,-0.027850592363063004,0.002451139649859751,76.0759560298272,0.0
1430,-0.0283016230208614,0.0018968346969335504,76.9272376199036,0.0
1431,-0.02870107468448616,0.0014129147858703383,77.84742809862038,0.0
1432,-0.029054419798531537,0.0010230527924120357,78.8363856892783,0.0
1433,-0.0293543194733218,0.0007542237336709474,79.89399077113328,0.0
1434,-0.02957816003221774,0.0006324510559541671,81.02010695198294,0.0
1435,-0.029693121126368762,0.0006754115364006608,82.21453900966625,0.0
1436,-0.02966826036708444,0.0008829117423054609,83.47698700363102,0.0
1437,-0.029490755810835642,0.0012271847130047382,84.80699587127168,0.0
1438,-0.029182013465584373,0.0016455745686951135,86.20389984849852,0.0
1439,-0.02880911155579673,0.0020382601581654053,87.66676109724676,0.0
1440,-0.0284878551645726,0.002273105921542523,89.19430199299663,0.0
1441,-0.028375177206941903,0.002198552209997087,90.78483063300523,0.0
1442,-0.028650405933486056,0.0016638504167612112,92.43615928261217,0.0
1443,-0.029486855218851842,0.0005442144475427105,94.1455156959822,0.0
1444,-0.031017242853941775,-0.0012330285600239631,95.90944754355002,0.0
1445,-0.03329850312548267,-0.0036660820999148535,97.7237205664273,0.0
1446,-0.03628322996344754,-0.006664898886785921,99.58321157288077,0.0
1447,-0.03980549408281661,-0.010049736138355369,101.4817980063603,0.0
1448,-0.043587262759164275,-0.013563888004469041,103.41224655667689,0.0
1449,-0.04726774097929829,-0.016899932541451775,105.36610415638768,0.0
1450,-0.05045231028633185,-0.01973623674183961,107.33359569216904,0.0
1451,-0.05277213599347394,-0.021778333073983497,109.30353383842561,0.0
1452,-0.053942132686734506,-0.02279859896825611,111.26324753839057,0.0
1453,-0.05380525907899279,-0.022667724989010395,113.19853674057896,0.0
1454,-0.05235487659424674,-0.021372763489796533,115.09366193904276,0.0
1455,-0.04973246310583156,-0.019018846034781444,116.93137772575308,0.0
1456,-0.04620316015528787,-0.015814474856921897,118.69301977473903,0.0
1457,-0.04211502505392969,-0.012043068110287415,120.35865425245494,0.0
1458,-0.037849321803186044,-0.008025641191545346,121.90729739652116,0.0
1459,-0.03376944957661471,-0.0040807464350931764,123.3172107582111,0.0
1460,-0.030175868940919746,-0.00048788526541994337,124.56627425384782,0.0
1461,-0.027273689641409464,0.0025404085597147035,125.63243470647997,0.0
1462,-0.0251579268622753,0.004874488871676893,126.49422211103528,0.0
1463,-0.0238183774958198,0.0064705189205150485,127.13131972382621,0.0
1464,-0.02316186427155071,0.007361689672662991,127.52516774401703,0.0
1465,-0.023045381286830865,0.007640842161058804,127.65957446808511,1.0
1466,-0.023311072857375638,0.007438604718541152,127.63125508378276,0.0
1467,-0.023814257008995227,0.006901225134086756,127.54729854810367,0.0
1468,-0.0244389713991983,0.006171516177026331,127.40931067182925,0.0
1469,-0.02510047823412966,0.005375032498085172,127.21902439842282,0.0
1470,-0.02573868665975362,0.004612144952021299,126.97828611787006,0.0
1471,-0.026308663469194273,0.003955440037496419,126.68904177153935,0.0
1472,-0.026773652978204963,0.0034510895897663474,126.35332290861888,0.0
1473,-0.02710313981169408,0.003122578288824374,125.97323284472122,0.0
1474,-0.02727520169453915,0.0029753535642055083,125.55093306134323,0.0
1475,-0.027280350021484216,0.003001387613133387,125.08862997146294,0.0
1476,-0.027123931857237576,0.0031831143694509003,124.5885621620735,0.0
1477,-0.02682550939828502,0.0034965792164534763,124.05298820931189,0.0
1478,-0.026415348928025783,0.003913855218036183,123.48417514642561,0.0
1479,-0.02592931022703746,0.0044048536511471685,122.88438764948766,0.0
1480,-0.025403738376609888,0.004938650123691523,122.25587799082895,0.0
1481,-0.024871658178062778,0.005484426702657119,121.60087679587484,0.0
1482,-0.02436099396355831,0.006012136166328501,120.92158462566567,0.0
1483,-0.02389486820659886,0.006493030526685552,120.22016439497885,0.0
1484,-0.0234933706403366,0.006900235115941306,119.49873462477639,0.0
1485,-0.023175700625561412,0.007209551845828946,118.7593635177542,0.0
1486,-0.022961473016641216,0.007400610146300296,118.00406383710933,0.0
1487,-0.02287031481396329,0.007458347763361554,117.2347885612719,0.0
1488,-0.022919525639238762,0.0073746255037707605,116.45342728124251,0.0
1489,-0.023120284291629406,0.007149616160166183,115.66180330228923,0.0
1490,-0.023473465123472634,0.006792523026214927,114.86167140800951,0.0
1491,-0.023966466797339114,0.006321228207361303,114.05471624208012,0.0
1492,-0.02457242657178307,0.0057606610111717955,113.24255126129431,0.0
1493,-0.025252661572703897,0.00513998143607977,112.42671821262816,0.0
1494,-0.025962176386676725,0.004489018974731758,111.60868708697672,0.0
1495,-0.026656953558090838,0.0038346923159462646,110.78985650275486,0.0
1496,-0.027301041729934823,0.0031982626432043265,109.97155447366542,0.0
1497,-0.0278715385210038,0.002594175680994787,109.15503951650064,0.0
1498,-0.02836033812409328,0.0020309139214166193,108.34150205677469,0.0
1499,-0.02877251027865397,0.0015137627488125225,107.53206609219922,0.0
1500,-0.029121925096576556,0.0010488012937517645,106.72779107643778,0.0
1501,-0.029425079647035265,0.0006469062239930906,105.9296739881395,0.0
1502,-0.02969420243469874,0.0003262580546097085,105.13865155290173,0.0
1503,-0.029930908890837226,0.00011189439241268608,104.355602588492,0.0
1504,-0.030122086480074684,3.133408287776503e-05,103.58135044633094,0.0
1505,-0.03024010796699062,0.00010618214431346636,102.81666552486291,0.0
1506,-0.030249416552703537,0.0003407880404088636,102.06226783299319,0.0
1507,-0.03012044973859883,0.0007102275707634503,101.31882958422331,0.0
1508,-0.029849545638809167,0.0011507890510758455,100.58697780445783,0.0
1509,-0.02948033954278525,0.0015564330024966828,99.86729693866731,0.0
1510,-0.029119348570721484,0.001784112369159223,99.16033144367292,0.0
1511,-0.028937449394732015,0.0016693265632676075,98.46658835625671,0.0
1512,-0.029150975938098494,0.0010510358823600872,97.78653982760196,0.0
1513,-0.02998142121209587,-0.00019745577515277403,97.12062561672762,0.0
1514,-0.03160004305425548,-0.002137193227265405,96.46925553710544,0.0
1515,-0.03407059874616398,-0.00473851105043919,95.83281185204225,0.0
1516,-0.03730704756675004,-0.007868539437019977,95.21165161567843,0.0
1517,-0.04106124315066629,-0.011295637474869434,94.6061089576053,0.0
1518,-0.04494824955183512,-0.01471189706418261,94.01649731014733,0.0
1519,-0.04850617754044513,-0.01777108834365244,93.44311157829641,0.0
1520,-0.05127712879912936,-0.020136005460309237,92.88623025313629,0.0
1521,-0.05288964769356748,-0.02152697657704698,92.3461174703633,0.0
1522,-0.053123059408683074,-0.02176287722074304,91.82302501620332,0.0
1523,-0.05193991346065452,-0.0207874250826173,91.31719428365606,0.0
1524,-0.049482090789152375,-0.01867645689212366,90.82885818257189,0.0
1525,-0.04603558209551544,-0.015625565445847416,90.35824300759623,0.0
1526,-0.04197547471656084,-0.011921047933990524,89.90557026850635,0.0
1527,-0.03770482029058187,-0.007899829276178088,89.47105848792954,0.0
1528,-0.03359924734635167,-0.0039054016678796346,89.05492497187213,0.0
1529,-0.029965151807097905,-0.00024674873392982206,88.65738755892004,0.0
1530,-0.027014885594208938,0.0028340844951182838,88.27866635439851,0.0
1531,-0.024858720515723718,0.005182215766001818,87.91898545621008,0.0
1532,-0.023510864224869206,0.006736754907230476,87.57857467951666,0.0
1533,-0.022905413992033746,0.007525212888284932,87.25767128789929,0.0
1534,-0.022917748089421427,0.007648083162555265,86.95652173913044,1.0
1535,-0.023387353625724396,0.00725709953760045,86.665231293415,0.0
1536,-0.02413922613241428,0.00653088837842239,86.37384025004063,0.0
1537,-0.025002320120455706,0.005651379846744752,86.08250266776666,0.0
1538,-0.025824584113545088,0.004783616854079266,85.79136874734907,0.0
1539,-0.026484552236043384,0.0040606993226127135,85.50058486633012,0.0
1540,-0.026899324092132755,0.003574686753488037,85.21029361881055,0.0
1541,-0.027028421066191025,0.0033734628387660018,84.92063385986928,0.0
1542,-0.026872925569685128,0.0034629028010492975,84.63174075430555,0.0
1543,-0.026469751914537775,0.0038132062867784504,84.34374582938976,0.0
1544,-0.025881789685292388,0.004367978712903289,84.05677703131909,0.0
1545,-0.025185663138338,0.005054565412278453,83.7709587850863,0.0
1546,-0.024459520226686828,0.00579425660353848,83.48641205748099,0.0
1547,-0.02377323295127053,0.006511256989521941,83.20325442295437,0.0
1548,-0.023182551364759607,0.0071396953729299375,82.92160013209082,0.0
1549,-0.022727392822571208,0.007628359682434749,82.6415601824407,0.0
1550,-0.022433149308416743,0.007943199504713968,82.36324239148153,0.0
1551,-0.022313212980129175,0.008067878798490205,82.08675147148595,0.0
1552,-0.022371062329067107,0.008002762078451707,81.81218910608668,0.0
1553,-0.022601025919381536,0.007762700642880631,81.53965402834088,0.0
1554,-0.022987842006073508,0.007373910995000348,81.26924210010726,0.0
1555,-0.023505959535977516,0.006870178119630385,81.00104639256074,0.0
1556,-0.024119892828529492,0.006288627635579991,80.73515726768105,0.0
1557,-0.024786717608175714,0.0056654077794026534,80.47166246056197,0.0
1558,-0.025461041139493074,0.0050317685862002436,80.2106471623992,0.0
1559,-0.02610175959508094,0.004411144237673121,79.95219410402456,0.0
1560,-0.026679026696844608,0.003817843743055738,79.69638363986529,0.0
1561,-0.027179453400533966,0.003257764896767911,79.44329383221651,0.0
1562,-0.02760778371025703,0.002731151723137114,79.19300053572425,0.0
1563,-0.02798405264794251,0.0022368753899294847,78.94557748198694,0.0
1564,-0.028336323404783644,0.0017771631590429607,78.7010963641911,0.0
1565,-0.028690336716211556,0.001361304050199796,78.45962692170598,0.0
1566,-0.029058607814672704,0.001006796000867395,78.2212370245711,0.0
1567,-0.029432383529181646,0.0007367815217869701,77.98599275781805,0.0
1568,-0.02977999357291668,0.0005734518993574076,77.75395850557574,0.0
1569,-0.030054103058760294,0.0005282499993105863,77.5251970349168,0.0
1570,-0.030208112112755647,0.0005909033488992047,77.29976957940909,0.0
1571,-0.030218840095529876,0.0007202264140970258,77.07773592234436,0.0
1572,-0.030109513925449506,0.0008399063594053218,76.85915447962213,0.0
1573,-0.029965067760233145,0.000841908912275141,76.64408238227429,0.0
1574,-0.02993196524437043,0.0005987001197199193,76.4325755586213,0.0
1575,-0.030197868737438908,-1.6577031541974152e-05,76.22468881605832,0.0
1576,-0.03095226647665412,-0.0011050294523168784,76.02047592247456,0.0
1577,-0.03233610962103716,-0.0027168465530982818,75.81998968731507,0.0
1578,-0.034394026796272084,-0.004831587531696958,75.62328204230069,0.0
1579,-0.03704412056055568,-0.007348903363492691,75.43040412182593,0.0
1580,-0.040076368044790964,-0.010092819504525254,75.24140634306113,0.0
1581,-0.043182210851533155,-0.012829963829431574,75.05633848578987,0.0
1582,-0.046008165469500324,-0.01529915891155199,74.87524977201754,0.0
1583,-0.04821914696517025,-0.017247346029671155,74.69818894539243,0.0
1584,-0.0495554267683004,-0.018465465290190542,74.52520435048534,0.0
1585,-0.04987089893269205,-0.018817968939416358,74.35634401197831,0.0
1586,-0.04914726770433682,-0.018261011986423666,74.1916557138187,0.0
1587,-0.04748561170623758,-0.016846652061473177,74.03118707839864,0.0
1588,-0.045081191413293,-0.01471303238726997,73.87498564582526,0.0
1589,-0.04218883130441518,-0.012062943245037103,73.72309895335205,0.0
1590,-0.03908555999595475,-0.009134911543021642,73.57557461504572,0.0
1591,-0.03603562128757546,-0.006171810380096223,73.4324604017689,0.0
1592,-0.03326139354935263,-0.0033918780186486135,73.29380432156321,0.0
1593,-0.030922640203055435,-0.0009661299723055499,73.1596547005225,0.0
1594,-0.029105820007801243,0.0009953048651953349,73.03006026425146,0.0
1595,-0.027824418528670455,0.0024470838783562823,72.90507022000989,0.0
1596,-0.027029856004629406,0.003403566344542981,72.78473433964864,0.0
1597,-0.026630443489383645,0.003926811816580603,72.66910304344862,0.0
1598,-0.026513868354787116,0.004110499451152258,72.5582274849808,0.0
1599,-0.026567935907902896,0.004062789349327002,72.45215963711064,0.0
1600,-0.026695408308063964,0.003890786095474899,72.35095237927723,0.0
1601,-0.02682131378771345,0.003688507381105892,72.25465958618466,0.0
1602,-0.026893778307497326,0.0035293160538811567,72.16333621804895,0.0
1603,-0.026881030613838442,0.0034628570818539157,72.07703841255328,0.0
1604,-0.02676729700902778,0.0035158195530525928,71.9958235786704,0.0
1605,-0.02654925414267266,0.003695406526756425,71.91975049252096,0.0
1606,-0.026233387820951266,0.0039942489677774,71.84887939544471,0.0
1607,-0.025833722596414567,0.004395591069394603,71.78327209447112,0.0
1608,-0.02536923474039614,0.00487782371418301,71.72299206538614,0.0
1609,-0.0248607388490341,0.00541777432653247,71.668104558603,0.0
1610,-0.02432779049165126,0.005992516377445869,71.61867670805586,0.0
1611,-0.023786703522650623,0.006579798570651877,71.57477764334737,0.0
1612,-0.023250727718964328,0.007157477443094834,71.53647860539547,0.0
1613,-0.022732646496704617,0.007702531294186774,71.5038530658372,0.0
1614,-0.022248850385157316,0.008190300982247177,71.47697685046369,0.0
1615,-0.021822953757565478,0.008594518923123259,71.4559282669759,0.0
1616,-0.021486840129286873,0.008888455712370152,71.4407882373687,0.0
1617,-0.021277832258513537,0.009047179892327601,71.43164043526856,0.0
1618,-0.021232162790016183,0.009050575024903296,71.42857142857143,1.0
1619,-0.02137642748720986,0.008886491840984317,71.4408999588305,0.0
1620,-0.02171962011375119,0.008553318888725764,71.47739137769065,0.0
1621,-0.02224835075452732,0.008061371248242858,71.53733889744562,0.0
1622,-0.022926968825867793,0.007432793841088452,71.62007786818361,0.0
1623,-0.023702846520360733,0.0067000593636995474,71.72498127601794,0.0
1624,-0.024515477595156994,0.005903479685662925,71.85145553577225,0.0
1625,-0.025306821491048313,0.005088319453273862,71.99893653914536,0.0
1626,-0.02602992029365705,0.004302030471624281,72.16688592369856,0.0
1627,-0.026653424755531823,0.0035918291933101864,72.35478753178273,0.0
1628,-0.027161089147555544,0.003002421884974106,72.56214403184042,0.0
1629,-0.02754704206844537,0.0025733119564235406,72.78847367744912,0.0
1630,-0.027809170739525654,0.0023349832080762616,73.03330718208402,0.0
1631,-0.02794385303308728,0.0023034714857405308,73.29618468992241,0.0
1632,-0.027945246335991603,0.002473437206565864,73.5766528251387,0.0
1633,-0.027811215668693653,0.002810715777389767,73.87426180408937,0.0
1634,-0.027555798519504633,0.0032462074275023804,74.1885625965997,0.0
1635,-0.02722529938302362,0.0036735548212845576,74.51910412427128,0.0
1636,-0.026912527447150673,0.003953046007416874,74.86543048536414,0.0
1637,-0.02676235240604583,0.003923393341978673,75.2270781973938,0.0
1638,-0.026962491959883213,0.003421505002851331,75.60357345015136,0.0
1639,-0.02771659797100214,0.002308356775344903,75.99442936342375,0.0
1640,-0.029201879703239668,0.0004970665310561687,76.39914324528489,0.0
1641,-0.031519432143465274,-0.0020221541216715487,76.81719384846687,0.0
1642,-0.03465012373050116,-0.005165841188386218,77.24803862401932,0.0
1643,-0.03843016447179362,-0.00875457379126212,77.69111097324507,0.0
1644,-0.04255695031922044,-0.012526103997258144,78.1458175007711,0.0
1645,-0.04662785793954653,-0.016163599267966653,78.6115352735918,0.0
1646,-0.05020480444368981,-0.01933507295282164,79.08760909301549,0.0
1647,-0.05288930158540534,-0.021737567945955768,79.57334878866041,0.0
1648,-0.05438967153931704,-0.02313847902214265,80.06802654599123,0.0
1649,-0.054565143403095984,-0.02340684735181237,80.57087428135631,0.0
1650,-0.05343910573650885,-0.02252941270686049,81.08108108108108,0.0
1651,-0.05118253189522517,-0.02060917157425348,81.59779072387909,0.0
1652,-0.048075318253149285,-0.017847455555154223,82.12009930864873,0.0
1653,-0.044456341242263143,-0.014513394360340985,82.64705301260632,0.0
1654,-0.04067267600170308,-0.010906508820898414,83.17764600763545,0.0
1655,-0.03703598575892891,-0.007318814703115042,83.71081856567392,0.0
1656,-0.033791024564190246,-0.004002227609883165,84.24545538686202,0.0
1657,-0.031098375763936544,-0.001145506782345505,84.78038418698877,0.0
1658,-0.029031269311071885,0.001137126531621296,85.3143745834259,0.0
1659,-0.02758457508595258,0.0028057574513001213,85.84613732115935,0.0
1660,-0.026692784721925607,0.003884879670799192,86.3743238826271,0.0
1661,-0.02625293772999206,0.00444706007290738,86.89752652675527,0.0
1662,-0.026148070216002153,0.0045939248428236625,87.41427880374471,0.0
1663,-0.02626701437872979,0.004438010819109572,87.9230565926864,0.0
1664,-0.026517413224620444,0.004088202775770442,88.42227970885699,0.0
1665,-0.026830605229930773,0.003640280120538417,88.91031412644196,0.0
1666,-0.027159180999875177,0.003172802810647738,89.3854748603352,0.0
1667,-0.027469819655559974,0.002747441522896883,89.8460295474476,0.0
1668,-0.027734817442483402,0.002412103260884899,90.29020276352094,0.0
1669,-0.027925312252247706,0.0022049245871820864,90.71618110568652,0.0
1670,-0.02800797683691276,0.002157395847422388,91.12211906386261,0.0
1671,-0.027945631141101802,0.0022954418569828003,91.50614569549985,0.0
1672,-0.027701353825874516,0.0026380557190372276,91.86637210814932,0.0
1673,-0.027245259948496754,0.003193877520037129,92.2008997428703,0.0
1674,-0.02656277518136556,0.003956756746178683,92.50782943868948,0.0
1675,-0.02566271236368448,0.004901706815911422,92.78527124429614,0.0
1676,-0.024582936610645204,0.005982684522898303,93.03135492809527,0.0
1677,-0.02339139626221331,0.0071333106880233565,93.24424112188271,0.0
1678,-0.02218116239131904,0.008271065440048927,93.42213301706047,0.0
1679,-0.021059737641126036,0.009304771716626485,93.56328851583538,0.0
1680,-0.020134661205075878,0.010144479574262427,93.66603272365548,0.0
1681,-0.019498567205137048,0.010712327763730831,93.72877065369583,0.0
1682,-0.0192168154625109,0.010952690930236549,93.75,1.0
1683,-0.019319664264262668,0.010839961523880582,93.74553796610684,0.0
1684,-0.019799372897479545,0.010382643186471556,93.73230905301023,0.0
1685,-0.020611520899676716,0.009622978505561387,93.71055253504841,0.0
1686,-0.02167973017032983,0.008632005930138114,93.68051199230877,0.0
1687,-0.02290358156724102,0.007500639616171588,93.64243487930574,0.0
1688,-0.024169924629409787,0.0063279958529134945,93.59657210135828,0.0
1689,-0.025367223687512555,0.005208659330744775,93.54317759974217,0.0
1690,-0.026401140683622513,0.00422081041026897,93.4825079466098,0.0
1691,-0.027208155007425155,0.0034170623302108806,93.41482195058774,0.0
1692,-0.027763745605364824,0.0028194693193236723,93.34038027387862,0.0
1693,-0.028082918477836474,0.0024195061972593496,93.25944506161166,0.0
1694,-0.02821310813145051,0.0021829907335637385,93.17227958410385,0.0
1695,-0.028221637588417028,0.002059066673897552,93.07914789261352,0.0
1696,-0.028181088107987695,0.001991641230254612,92.98031448908901,0.0
1697,-0.028155830279326197,0.001931203257894534,92.87604401033859,0.0
1698,-0.0281919249533088,0.0018448156078301227,92.76660092697396,0.0
1699,-0.028311245489009287,0.0017223007513873204,92.65224925740787,0.0
1700,-0.028509647632054724,0.0015771991810204754,92.53325229711928,0.0
1701,-0.028758739749458737,0.0014419161633409047,92.40987236333325,0.0
1702,-0.02901125843491522,0.0013574948528864976,92.28237055520309,0.0
1703,-0.0292106829081497,0.0013595393149648596,92.15100652952324,0.0
1704,-0.02930569013353591,0.0014627957845228302,92.01603829194858,0.0
1705,-0.029268762867021538,0.0016475839309465752,91.87772200364526,0.0
1706,-0.029115859965160112,0.0018514423516682271,91.7363118032524,0.0
1707,-0.028921551426299458,0.001968850120794263,91.59205964399133,0.0
1708,-0.028822873965793826,0.0018606608464867345,91.44521514572139,0.0
1709,-0.029006542889325925,0.0013730635158845565,91.2960254617062,0.0
1710,-0.02967823174343004,0.00036378228420864793,91.14473515982378,0.0
1711,-0.031018311294677726,-0.0012686936318072367,90.99158611792744,0.0
1712,-0.033133716079451314,-0.003558300924099333,90.8368174330398,0.0
1713,-0.03601837359339913,-0.006452634808694105,90.68066534404392,0.0
1714,-0.03953359917895497,-0.0098067813087642,90.52336316751726,0.0
1715,-0.04341514675631649,-0.013392155201812011,90.36514124634252,0.0
1716,-0.04730672621308942,-0.016919938291457434,90.20622691071802,0.0
1717,-0.050813049508992944,-0.02007585541757858,90.04684445118352,0.0
1718,-0.053560975938211186,-0.02256076079853501,89.8872151032726,0.0
1719,-0.05525619946766359,-0.024130333632565178,89.72755704340138,0.0
1720,-0.05572494247756655,-0.024627337019441444,89.56808539560292,0.0
1721,-0.054934153163381044,-0.02400130842471644,89.40901224872103,0.0
1722,-0.052988439942598144,-0.022312880968351507,89.25054668368071,0.0
1723,-0.0501064231522739,-0.019722667051784312,89.09289481046098,0.0
1724,-0.04658264247011772,-0.016467210004939295,88.9362598144038,0.0
1725,-0.042743050769519515,-0.012826448654106707,88.78084201150419,0.0
1726,-0.03890210808238978,-0.009088141791895751,88.62683891233863,0.0
1727,-0.03532775650746372,-0.005514678585477703,88.47444529430278,0.0
