,PPG_Raw,PPG_Clean,PPG_Rate,PPG_Peaks
0,-1.5041028423876217,0.12304978527511518,94.24083769633508,0.0
1,-1.3868332523938611,0.2309112688118422,94.24083769633508,0.0
2,-1.2725444996082003,0.33661958262382363,94.24083769633508,0.0
3,-1.1637823458376821,0.43805916655043486,94.24083769633508,0.0
4,-1.0625536995317115,0.5332695795527886,94.24083769633508,0.0
5,-0.9702731768123929,0.6204794463406809,94.24083769633508,0.0
6,-0.8878547976519846,0.6981074997559504,94.24083769633508,0.0
7,-0.8159160379831785,0.7647463874016394,94.24083769633508,0.0
8,-0.7550237696545762,0.8191544257591192,94.24083769633508,0.0
9,-0.7058912934172125,0.8602811234726757,94.24083769633508,0.0
10,-0.6694407314392679,0.8873428702186837,94.24083769633508,0.0
11,-0.646678779471528,0.8999477338910871,94.24083769633508,0.0
12,-0.6383919191999662,0.8982477080185449,94.24083769633508,0.0
13,-0.6447349778877756,0.8830794383347238,94.24083769633508,0.0
14,-0.6648409097247335,0.8560465162033618,94.24083769633508,0.0
15,-0.6965957928435387,0.8195016170383846,94.24083769633508,0.0
16,-0.7366884657558771,0.7764051188787868,94.24083769633508,0.0
17,-0.7809659323831024,0.7300643626492548,94.24083769633508,0.0
18,-0.8250298688717634,0.6837873590726743,94.24083769633508,0.0
19,-0.8649314405357524,0.6405084110120963,94.24083769633508,0.0
20,-0.8977899794180099,0.6024540744145865,94.24083769633508,0.0
21,-0.9221857253618786,0.5709127814083226,94.24083769633508,0.0
22,-0.9382454335716909,0.5461513032377966,94.24083769633508,0.0
23,-0.9474250234293862,0.5274910345899431,94.24083769633508,0.0
24,-0.952066818767222,0.513524305263747,94.24083769633508,0.0
25,-0.9548513403724828,0.5024233966670772,94.24083769633508,0.0
26,-0.9582701416482247,0.4922787956196633,94.24083769633508,0.0
27,-0.9642231437975505,0.4814014991899985,94.24083769633508,0.0
28,-0.9738028964051028,0.46853637893531097,94.24083769633508,0.0
29,-0.9872808857393655,0.4529561196745078,94.24083769633508,0.0
30,-1.004267011066248,0.4344325187058406,94.24083769633508,0.0
31,-1.0239801458692708,0.4131079085533358,94.24083769633508,0.0
32,-1.0455512081049996,0.3893089330072988,94.24083769633508,0.0
33,-1.0682837410029387,0.36335445269286704,94.24083769633508,0.0
34,-1.0918190060001898,0.3354078054253614,94.24083769633508,0.0
35,-1.116184847981532,0.3054119401675589,94.24083769633508,0.0
36,-1.1417378663037934,0.2731266372623402,94.24083769633508,0.0
37,-1.1690267659675997,0.2382636277129911,94.24083769633508,0.0
38,-1.1986089086681289,0.20069179494312867,94.24083769633508,0.0
39,-1.2308469113126348,0.16066461673845017,94.24083769633508,0.0
40,-1.2657060963394986,0.11900917278342915,94.24083769633508,0.0
41,-1.3025756880064443,0.07721355743061925,94.24083769633508,0.0
42,-1.3401502319391223,0.03735973932885317,94.24083769633508,0.0
43,-1.3764251053592629,0.0018726631704602537,94.24083769633508,0.0
44,-1.408867378202234,-0.026907784628318554,94.24083769633508,0.0
45,-1.4348090716194812,-0.04728199511570147,94.24083769633508,0.0
46,-1.452067032434746,-0.05878009566362863,94.24083769633508,0.0
47,-1.4597222524692879,-0.06266033654782693,94.24083769633508,0.0
48,-1.4589047419499646,-0.062180116591502355,94.24083769633508,0.0
49,-1.4533565356016658,-0.06252208503697415,94.24083769633508,0.0
50,-1.4495210992006906,-0.0703088753823598,94.24083769633508,0.0
51,-1.455961302356472,-0.0927182108467679,94.24083769633508,0.0
52,-1.4820481016686835,-0.13630147669813925,94.24083769633508,0.0
53,-1.5360662212590352,-0.20569292871066575,94.24083769633508,0.0
54,-1.6230988105077395,-0.30245102511234745,94.24083769633508,0.0
55,-1.7432067949276395,-0.42427956942610057,94.24083769633508,0.0
56,-1.8904389632016239,-0.5648261979294887,94.24083769633508,0.0
57,-2.053058240313376,-0.7141550012487305,94.24083769633508,0.0
58,-2.21507105853238,-0.8598585965768947,94.24083769633508,0.0
59,-2.3587868514151995,-0.9886425007870943,94.24083769633508,0.0
60,-2.467834984266589,-1.0881131612660175,94.24083769633508,0.0
61,-2.5299332771399534,-1.1484558179686426,94.24083769633508,0.0
62,-2.538780726259966,-1.1637109262845227,94.24083769633508,0.0
63,-2.494703035057438,-1.1324423682071503,94.24083769633508,0.0
64,-2.4040188520848154,-1.0577158164411087,94.24083769633508,0.0
65,-2.277405927052406,-0.9464407398319779,94.24083769633508,0.0
66,-2.1277448893852613,-0.8082432044433616,94.24083769633508,0.0
67,-1.967968383796584,-0.6541048818892878,94.24083769633508,0.0
68,-1.8093562410648738,-0.49501569144445234,94.24083769633508,0.0
69,-1.660535940068976,-0.34084714533406657,94.24083769633508,0.0
70,-1.527230066789705,-0.19957680218406396,94.24083769633508,0.0
71,-1.4125997287969039,-0.07690402822723987,94.24083769633508,0.0
72,-1.317914781689499,0.023783658761967086,94.24083769633508,0.0
73,-1.2432622561926006,0.1011890029333212,94.24083769633508,0.0
74,-1.188073513747129,0.1557441314434527,94.24083769633508,0.0
75,-1.1513702692415284,0.18921512578537053,94.24083769633508,0.0
76,-1.1317516839414852,0.20434364476511105,94.24083769633508,0.0
77,-1.1272312188204539,0.20455578978792793,94.24083769633508,0.0
78,-1.1350656649029887,0.19373187331756986,94.24083769633508,0.0
79,-1.151702409053828,0.17600831265008682,94.24083769633508,0.0
80,-1.1729193425214308,0.1555780230224075,94.24083769633508,0.0
81,-1.1941642169781825,0.13646629384200132,94.24083769633508,0.0
82,-1.2110361579855575,0.12227901823443334,94.24083769633508,0.0
83,-1.2198083310526442,0.1159414832061002,94.24083769633508,0.0
84,-1.217878570895708,0.1194616824235456,94.24083769633508,0.0
85,-1.2040559681334007,0.13375785036004184,94.24083769633508,0.0
86,-1.1786368452476699,0.15858458046062002,94.24083769633508,0.0
87,-1.14327611629895,0.19257752719444843,94.24083769633508,0.0
88,-1.100701730307199,0.23341738035427484,94.24083769633508,0.0
89,-1.0543394622149975,0.2780942522463442,94.24083769633508,0.0
90,-1.0079119605785523,0.3232379301831958,94.24083769633508,0.0
91,-0.9650580917734441,0.36547031484675463,94.24083769633508,0.0
92,-0.9289987668979247,0.40173486238262707,94.24083769633508,0.0
93,-0.9022639193717145,0.42956362383746316,94.24083769633508,0.0
94,-0.8864950877814699,0.4472541400845984,94.24083769633508,0.0
95,-0.8823433641660963,0.4539439270199482,94.24083769633508,1.0
96,-0.8894826193148045,0.4495870434033885,94.27587568751265,0.0
97,-0.9067448569009325,0.4348524616395126,94.31111387090525,0.0
98,-0.9323591081883742,0.4109748291440018,94.34655178392232,0.0
99,-0.964247445527463,0.3795923130824218,94.38218896415998,0.0
100,-1.000314415065662,0.34260220778729567,94.41802494937417,0.0
101,-1.0386676140538285,0.3020531516573126,94.45405927745401,0.0
102,-1.0777271490223992,0.2600754564628589,94.49029148639485,0.0
103,-1.1162139515722993,0.2188323806962248,94.52672111427174,0.0
104,-1.1530427798630718,0.18046052572123622,94.56334769921263,0.0
105,-1.1871769010965139,0.14696218304355402,94.60017077937172,0.0
106,-1.217520866740858,0.1200201407257655,94.63718989290294,0.0
107,-1.2429299896878891,0.10072692839849025,94.67440457793313,0.0
108,-1.262396375123622,0.08925261945584301,94.71181437253561,0.0
109,-1.2754295785384202,0.08451104916833388,94.74941881470362,0.0
110,-1.2825861262378448,0.0839136875262162,94.78721744232361,0.0
111,-1.2860246617274094,0.08331273353719237,94.82520979314894,0.0
112,-1.2898933179882024,0.07722181369104297,94.8633954047732,0.0
113,-1.3003255488159213,0.059360834581809255,94.90177381460381,0.0
114,-1.3248625267192187,0.023505516169988513,94.94034455983557,0.0
115,-1.371248014569456,-0.035455555129836516,94.97910717742413,0.0
116,-1.4457350027868945,-0.12042423781693576,95.0180612040596,0.0
117,-1.5512464817692302,-0.23116778428523693,95.05720617614023,0.0
118,-1.6858696459015736,-0.3637764476753027,95.09654162974579,0.0
119,-1.8421660962118493,-0.5106641992330769,95.13606710061141,0.0
120,-2.0076220265813047,-0.6611784844872328,95.17578212410112,0.0
121,-2.166273281553451,-0.8027655924935461,95.21568623518141,0.0
122,-2.3012082613392333,-0.922521621258459,95.25577896839498,0.0
123,-2.3973904168351807,-1.0088739274563756,95.29605985783441,0.0
124,-2.444144288754594,-1.0531060643949708,95.33652843711579,0.0
125,-2.436747559136001,-1.0504688704345484,95.37718423935237,0.0
126,-2.3768277032721223,-1.0007040626637465,95.41802679712836,0.0
127,-2.2715846941487516,-0.9079233313475794,95.45905564247256,0.0
128,-2.1321456741794957,-0.7799070490645568,95.500270306832,0.0
129,-1.9715226290719776,-0.6269845127563891,95.54167032104583,0.0
130,-1.8026579975794315,-0.4607123793709335,95.5832552153189,0.0
131,-1.6369269188497175,-0.29257243619605866,95.62502451919555,0.0
132,-1.4832762467586298,-0.1328699767349255,95.66697776153332,0.0
133,-1.3479869422284985,0.010054273728613783,95.70911447047673,0.0
134,-1.2349010150147914,0.1302621326064357,95.75143417343094,0.0
135,-1.1458841676581397,0.22433484699312084,95.79393639703554,0.0
136,-1.0813030664203678,0.2912399635630439,95.83662066713835,0.0
137,-1.0403651705898302,0.3320336905462667,95.8794865087691,0.0
138,-1.0212704258072827,0.34947514896207843,95.92253344611322,0.0
139,-1.0212236161657782,0.3476058950614133,95.96576100248556,0.0
140,-1.036422437992213,0.33132261268373114,96.00916870030417,0.0
141,-1.0621498108632543,0.3059524107120108,96.05275606106402,0.0
142,-1.0930581616596744,0.27683366176037216,96.09652260531085,0.0
143,-1.1236560658533725,0.24891036044893022,96.14046785261476,0.0
144,-1.1489242462253562,0.22635975036225564,96.18459132154409,0.0
145,-1.1649302279303109,0.21228452262709038,96.2288925296392,0.0
146,-1.1692994392552343,0.2085058132052893,96.27337099338601,0.0
147,-1.1614368874654424,0.21548781166643716,96.31802622819002,0.0
148,-1.1424608217153247,0.2324090802917464,96.36285774834981,0.0
149,-1.1148808905511718,0.2573731884605475,96.40786506703091,0.0
150,-1.082103817427669,0.28772768366878587,96.45304769623957,0.0
151,-1.047868758116443,0.3204418096564689,96.49840514679629,0.0
152,-1.0157074123774261,0.35248448795676574,96.54393692830978,0.0
153,-0.9885043902959101,0.3811471738451023,96.5896425491505,0.0
154,-0.9682122609385151,0.40427063846737665,96.63552151642448,0.0
155,-0.95575446171177,0.4203571862653784,96.68157333594702,0.0
156,-0.9511220080716569,0.4285750319458063,96.72779751221627,0.0
157,-0.953633028463395,0.4286834798236383,96.7741935483871,1.0
158,-0.9622838264418555,0.4209206745227397,96.82173476215624,0.0
159,-0.9760919400607605,0.40589645907492533,96.871334866964,0.0
160,-0.9943311120917623,0.38452074671045794,96.92290386518145,0.0
161,-1.0165905836567142,0.35797577197372116,96.97635160403418,0.0
162,-1.042648007848184,0.32771476930583743,97.03158773864953,0.0
163,-1.072208149670798,0.29544800733542675,97.08852169672514,0.0
164,-1.1046088241604037,0.26306747452303,97.14706264481889,0.0
165,-1.1386177113401046,0.23246919462470916,97.20711945626252,0.0
166,-1.1724336355440323,0.20525808560956238,97.26860068070499,0.0
167,-1.203964512724132,0.18236000464493843,97.33141451529241,0.0
168,-1.2313851642647815,0.1636096246961642,97.39546877749545,0.0
169,-1.253888535172992,0.14741829584029537,97.46067087959652,0.0
170,-1.272448980560245,0.13064011797433847,97.52692780485083,0.0
171,-1.2903447543040958,0.10873773909089879,97.59414608533845,0.0
172,-1.3131759681601622,0.07629962226939749,97.6622317815258,0.0
173,-1.3481939460711454,0.027884614720856515,97.73109046355644,0.0
174,-1.402929779050071,-0.04091653687515065,97.8006271942933,0.0
175,-1.4833355990773125,-0.13238781626721197,97.87074651413585,0.0
176,-1.5918595845155623,-0.24578894687745112,97.9413524276368,0.0
177,-1.7259837473604303,-0.3768685329815448,98.01234839194446,0.0
178,-1.8777046440454086,-0.517944644304538,98.08363730709785,0.0
179,-2.034225241128228,-0.6586017921491584,98.15512150820247,0.0
180,-2.179806317365034,-0.7869259021912686,98.22670275951627,0.0
181,-2.298398656565517,-0.8910808674964423,98.2982822504744,0.0
182,-2.3764518198697298,-0.9609510730785612,98.36976059368365,0.0
183,-2.4052453641384886,-0.9895543347797464,98.44103782491669,0.0
184,-2.3822248726159243,-0.9739744661765897,98.5120134051362,0.0
185,-2.311096615622401,-0.9156611658426212,98.5825862245806,0.0
186,-2.2007524162076493,-0.8200727945128504,98.65265460894051,0.0
187,-2.063368035266615,-0.6957641421409888,98.7221163276568,0.0
188,-1.91217533628949,-0.5531176565748959,98.79086860436963,0.0
189,-1.759420794659785,-0.4029633167840827,98.85880812954687,0.0
190,-1.614903492295453,-0.25532353576669864,98.9258310753201,0.0
191,-1.4852830682443114,-0.11846328897334044,98.99183311255474,0.0
192,-1.3741288576122361,0.001659295661478044,99.05670943017996,0.0
193,-1.2825080531512785,0.10153717424146855,99.1203547568015,0.0
194,-1.209822827052909,0.17992351757634278,99.18266338462044,0.0
195,-1.1546131144434821,0.23742061637331036,99.24352919567707,0.0
196,-1.115124853601086,0.2759737752548122,99.30284569043864,0.0
197,-1.089566609725387,0.2983761169209087,99.36050601874577,0.0
198,-1.0760984110958847,0.30785269093605844,99.41640301313055,0.0
199,-1.0726790716759143,0.30775028388455034,99.470429224517,0.0
200,-1.076922087396212,0.30132483890273504,99.52247696030965,0.0
201,-1.0860764801877436,0.2915986535756484,99.57243832487478,0.0
202,-1.0971781797262041,0.2812559454003103,99.620205262414,0.0
203,-1.1073406075614378,0.272554322855642,99.66566960222659,0.0
204,-1.1140990548374765,0.26724462868395227,99.70872310635278,0.0
205,-1.1157084520806873,0.26650564222050127,99.7492575195864,0.0
206,-1.111316942486011,0.2709081795875364,99.78716462184029,0.0
207,-1.1009826866470809,0.2804231549574017,99.82233628284403,0.0
208,-1.0855478022882132,0.2944811265333974,99.85466451914792,0.0
209,-1.0664153979850455,0.3120798476733582,99.8840415534026,0.0
210,-1.045287532054018,0.3319252903018224,99.91035987587865,0.0
211,-1.0239166995967948,0.3525839618693518,99.93351230818489,0.0
212,-1.0039083030114908,0.37262222810203904,99.95339206913809,0.0
213,-0.9865936343471357,0.3907122386280124,99.96989284273266,0.0
214,-0.9729772177808231,0.4056928418606739,99.98290884815088,0.0
215,-0.9637509984667888,0.4165853700919341,99.99233491175072,0.0
216,-0.9593598507909228,0.4225756387196131,99.99806654095978,0.0
217,-0.9600957492974632,0.4229822360598977,100.0,1.0
218,-0.9661909706266854,0.4172350275572408,99.99785584476828,0.0
219,-0.9778771202385309,0.40488554983568475,99.99148098149055,0.0
220,-0.9953820139453963,0.38566262121676376,99.9809625863956,0.0
221,-1.018852988581048,0.35957332663575947,99.96638880783946,0.0
222,-1.0482189831927102,0.32703396967093723,99.94784869458117,0.0
223,-1.0830256704049355,0.28900082229304913,99.92543212507954,0.0
224,-1.1222897617027223,0.24705998514862992,99.8992297378954,0.0
225,-1.1644177158460993,0.20343247572362314,99.86933286327913,0.0
226,-1.20722365614406,0.16085692741518265,99.83583345601832,0.0
227,-1.2480669209338873,0.12232872587143534,99.79882402961621,0.0
228,-1.2841154875734748,0.09069996303501504,99.75839759186597,0.0
229,-1.3127284657510905,0.06817619414571152,99.71464758188253,0.0
230,-1.3319366971699327,0.055778599272385904,99.66766780864717,0.0
231,-1.3409808262209475,0.05286712599054404,99.61755239111733,0.0
232,-1.340837078110738,0.05683412051074305,99.56439569994843,0.0
233,-1.3346236703998229,0.06307212077520966,99.50829230087024,0.0
234,-1.327746558900656,0.06528974032336599,99.44933689975613,0.0
235,-1.327633547627374,0.05619631199605332,99.38762428941932,0.0
236,-1.3429448785141695,0.028505538377262857,99.32324929816552,0.0
237,-1.3822499337008036,-0.023866751965272937,99.25630674012825,0.0
238,-1.4523139722115401,-0.10459870739131838,99.1868913674079,0.0
239,-1.5563073745743377,-0.21397378244101806,99.11509782403317,0.0
240,-1.6923716298067815,-0.3483188945061252,99.04102060175885,0.0
241,-1.8529874034735208,-0.500023381636305,98.96475399771052,0.0
242,-2.0254533760054096,-0.6581943512334408,98.88639207388377,0.0
243,-2.19351691796018,-0.8098836005054717,98.80602861850194,0.0
244,-2.3398762315228874,-0.9417053876064476,98.72375710923343,0.0
245,-2.44901065886815,-1.0415805555773585,98.63967067826614,0.0
246,-2.5096905203651825,-1.100311897202819,98.55386207923516,0.0
247,-2.5166100682946464,-1.1127265056752254,98.46642365599527,0.0
248,-2.470839805627996,-1.078206213131284,98.37744731322925,0.0
249,-2.3791120218909616,-1.000546754532058,98.28702448887897,0.0
250,-2.2522266983478523,-0.8872120630937574,98.19524612838565,0.0
251,-2.1030180426007656,-0.7481541445190036,98.1022026607221,0.0
252,-1.9443371520115118,-0.5944303966805125,98.00798397619924,0.0
253,-1.7874158133482432,-0.4368597811033268,97.91267940602653,0.0
254,-1.6408317576362652,-0.2849203737580341,97.8163777036049,0.0
255,-1.5101399621433165,-0.14601748354839772,97.71916702752915,0.0
256,-1.3980944197742173,-0.025163694897305466,97.62113492627552,0.0
257,-1.3052779898718772,0.07496949126045965,97.52236832454899,0.0
258,-1.2309010549046686,0.1537277732190474,97.42295351126407,0.0
259,-1.17353488259117,0.21200455422021536,97.32297612913156,0.0
260,-1.1316107443608427,0.251747452759325,97.22252116582354,0.0
261,-1.103619329051669,0.2755321153477762,97.12167294668774,0.0
262,-1.0880515053821738,0.2862508473623325,97.02051512898245,0.0
263,-1.0831964236065166,0.2869194296324067,96.91913069760234,0.0
264,-1.0869366619218723,0.28057192288974847,96.81760196226546,0.0
265,-1.0966542022390464,0.270196682266435,96.71601055613183,0.0
266,-1.109304215189594,0.2586681973239407,96.61443743582353,0.0
267,-1.121651144812923,0.24864496828863195,96.51296288281644,0.0
268,-1.130613984609584,0.24242665212621203,96.41166650617443,0.0
269,-1.1336443126683593,0.24178658419994564,96.3106272465961,0.0
270,-1.1290596379876776,0.24781211524225027,96.2099233817454,0.0
271,-1.1162678971206148,0.2607911510027148,96.10963253283752,0.0
272,-1.0958393831863855,0.28017805886223224,96.0098316724522,0.0
273,-1.069407238417415,0.30465775119143856,95.91059713354646,0.0
274,-1.0394068053541308,0.3323073226488097,95.81200461964096,0.0
275,-1.0086957455439405,0.36083504182985865,95.71412921615297,0.0
276,-0.9801244167042106,0.38786138121860464,95.61704540285183,0.0
277,-0.9561398381882126,0.4111993400873578,95.52082706741182,0.0
278,-0.9384988849231098,0.429092750894256,95.42554752003952,0.0
279,-0.9281369132205809,0.4403805525458115,95.33127950915357,0.0
280,-0.9251960940560819,0.4445694038702872,95.23809523809524,1.0
281,-0.9291781804754509,0.4418128728332419,95.1425776550333,0.0
282,-0.9391624247410931,0.43280934981186564,95.04142828965814,0.0
283,-0.9540265703849262,0.41864049150481175,94.93489689378363,0.0
284,-0.9726245121595197,0.40057668749422076,94.8232331008448,0.0
285,-0.9939000899259759,0.3798765186616382,94.70668616474433,0.0
286,-1.0169427326311538,0.35760508497654886,94.58550471197483,0.0
287,-1.0410088158216624,0.33449306492638875,94.45993650715685,0.0
288,-1.065537408847648,0.31085528132247886,94.33022823208101,0.0
289,-1.0901798936708051,0.2865840215404698,94.1966252782933,0.0
290,-1.1148437897665324,0.26122694610265346,94.05937155321733,0.0
291,-1.1397292231821543,0.23415028615098787,93.91870929976382,0.0
292,-1.1653198541254317,0.20477402689082425,93.77487892933893,0.0
293,-1.1922860562305502,0.17284751137634474,93.62811886812499,0.0
294,-1.221272593404673,0.13871443009033624,93.47866541647582,0.0
295,-1.2525785899258108,0.10350089182782882,93.32675262123652,0.0
296,-1.2857899100576364,0.06915590007633701,93.17261216077186,0.0
297,-1.3194786341184668,0.03828613961046945,93.01647324246245,0.0
298,-1.351117915715691,0.013759514827735214,92.85856251240713,0.0
299,-1.3773491240571747,-0.0018978169015992918,92.69910397705128,0.0
300,-1.394668240481199,-0.0072265413674693635,92.53831893644497,0.0
301,-1.4004759189750373,-0.0025420009957407286,92.3764259288231,0.0
302,-1.3942887543444311,0.009548512881271093,92.21364068618742,0.0
303,-1.3787841636550335,0.02398998706086669,92.05017610056426,0.0
304,-1.3602996984363707,0.03361002568957111,91.88624220060474,0.0
305,-1.3484693685650304,0.02997199806480806,91.72204613819224,0.0
306,-1.3548631749869633,0.0046732276740988204,91.55779218471879,0.0
307,-1.3907666152081155,-0.049105455508579754,91.3936817366947,0.0
308,-1.4645200608237585,-0.13508009412990438,91.22991333035665,0.0
309,-1.579041634207458,-0.25268806412696865,91.06668266494442,0.0
310,-1.7302037099041392,-0.39653370905190133,90.90418263432205,0.0
311,-1.9065871501804095,-0.5566270931666605,90.74260336662657,0.0
312,-2.0908213842600207,-0.7194346087059272,90.58213227163593,0.0
313,-2.262311604419955,-0.8695930776188112,90.4229540955579,0.0
314,-2.4007738896405284,-0.9919978037764113,90.26525098295274,0.0
315,-2.489765404206409,-1.0738944655140357,90.10920254551425,0.0
316,-2.519390939875763,-1.106604698929694,89.95498593744803,0.0
317,-2.4875970166603874,-1.0865951362895816,89.8027759371981,0.0
318,-2.3998579587636164,-1.0157386738590124,89.6527450352902,0.0
319,-2.2674858710980335,-0.9007797787735069,89.50506352807334,0.0
320,-2.1051209541601037,-0.7521634500816596,89.35989961715978,0.0
321,-1.9280868203963144,-0.5824873942036098,89.21741951437903,0.0
322,-1.7502111037687857,-0.4048713080992967,89.07778755207993,0.0
323,-1.5824730990786156,-0.23150636870106386,88.94116629863296,0.0
324,-1.4325471186765124,-0.07256867387501759,88.80771667900368,0.0
325,-1.3050606593555318,0.06442134306967406,88.67759810028711,0.0
326,-1.2022454156895268,0.17480814457085003,88.55096858211361,0.0
327,-1.1246468220370285,0.25666395409286524,88.42798489185571,0.0
328,-1.0716521502168241,0.3104240016289509,88.30880268458772,0.0
329,-1.0417465876960272,0.33841130057261304,88.19357664776965,0.0
330,-1.0325495847221244,0.3443413274328888,88.08246065065026,0.0
331,-1.0407707280236502,0.3328593617987067,87.97560789840513,0.0
332,-1.062234711294651,0.30912835654857607,87.87317109104956,0.0
333,-1.0920703970676697,0.2784621556600866,87.77530258718923,0.0
334,-1.1250745635904793,0.24599080139567928,87.68215457269557,0.0
335,-1.1561872393088475,0.21634936895343848,87.59387923441845,0.0
336,-1.1809801295585178,0.19339372353638082,87.51062893907383,0.0
337,-1.1960669869984322,0.17995945420996742,87.4325564174712,0.0
338,-1.1993790734546566,0.17768879808217922,87.35981495427299,0.0
339,-1.1902869215294143,0.1869516602351325,87.29255858350672,0.0
340,-1.1695747470661937,0.20688028735982364,87.23094229008113,0.0
341,-1.13928279592939,0.23552413771005865,87.17512221758783,0.0
342,-1.1024335219842751,0.27011464388349754,87.12525588270334,0.0
343,-1.0626608093516987,0.3074121507128179,87.08150239654046,0.0
344,-1.023773144668888,0.34409269475141674,87.04402269333347,0.0
345,-0.9892984306403388,0.377123493164157,87.01297976688059,0.0
346,-0.9620712137503467,0.4040752506087377,86.98853891520568,0.0
347,-0.9439250788401613,0.4233276541695527,86.97086799394546,0.0
348,-0.9355417780459526,0.4341410939509146,86.96013767901223,0.0
349,-0.9364861307104042,0.43659037541205464,86.95652173913044,1.0
350,-0.9454245156485825,0.43138110158955856,86.96088920710396,0.0
351,-0.9604883932948326,0.4195916660821938,86.97383533343111,0.0
352,-0.9797097251058056,0.40239852768581585,86.99512929998775,0.0
353,-1.0014332850427607,0.3808457819351408,87.02454472639513,0.0
354,-1.0246118567947966,0.3557101998711718,87.06185923527318,0.0
355,-1.0489169699778225,0.3274908017028063,87.10685403466235,0.0
356,-1.0746427899204467,0.29652147050063504,87.1593135164824,0.0
357,-1.1024303721885735,0.26317223345919105,87.21902486999726,0.0
358,-1.132880850044844,0.22807703508887633,87.28577770934876,0.0
359,-1.166151879638922,0.19231025177152739,87.35936371431012,0.0
360,-1.2016399948094116,0.1574361883755645,87.43957628349258,0.0
361,-1.2378433846478614,0.125377484999123,87.5262101993168,0.0
362,-1.2724761635687978,0.09808772616387582,87.61906130413396,0.0
363,-1.3028666374898306,0.0770641568382735,87.71792618695241,0.0
364,-1.326617854594327,0.0627880364879472,87.82260188029075,0.0
365,-1.342439834389605,0.05422034263444733,87.93288556674364,0.0
366,-1.350986607351268,0.04849706634522931,88.04857429490578,0.0
367,-1.355466629442392,0.04095236060447456,88.16946470435923,0.0
368,-1.3617730494760452,0.025546829344056707,88.29535275948408,0.0
369,-1.3779327079854395,-0.004301701597028057,88.42603349190829,0.0
370,-1.4128140684949013,-0.05458174957559392,88.56130075146332,0.0
371,-1.4742444410544973,-0.12943001774488494,88.70094696556436,0.0
372,-1.5669078190705537,-0.22999250551153722,88.84476290698221,0.0
373,-1.6905460647211175,-0.35365421485899373,88.99253747002246,0.0
374,-1.8389961784260214,-0.49383813641007335,89.14405745517419,0.0
375,-2.000435437020542,-0.6404744012654822,89.2991073623353,0.0
376,-2.1589075204773582,-0.7811093964792103,89.4574691927665,0.0
377,-2.2968561196121815,-0.9024918520236831,89.61892225996846,0.0
378,-2.3981107785821116,-0.9923701496186,89.78324300971877,0.0
379,-2.4506440080810608,-1.0411875943787492,89.95020484954591,0.0
380,-2.448484992316065,-1.0433817525770444,90.1195779879563,0.0
381,-2.3924065313813294,-0.9980749815865155,90.29112928376979,0.0
382,-2.289323676966164,-0.9090655185719849,90.46462210595364,0.0
383,-2.150659065126952,-0.7841621888424755,90.63981620438182,0.0
384,-1.990151830079121,-0.6340201873281286,90.81646759197851,0.0
385,-1.8216564659191312,-0.4707068983952817,90.99432843873691,0.0
386,-1.6573876944041985,-0.306244535231081,91.17314697813339,0.0
387,-1.5068634043270266,-0.1513439678786655,91.35266742648433,0.0
388,-1.3765610053017405,-0.0144765489368818,91.5326299158182,0.0
389,-1.2701148478533433,0.09865091551643329,91.71277044085654,0.0
390,-1.1887947155873486,0.18522822715053228,91.89282082071746,0.0
391,-1.1320244620691904,0.24514560097143773,92.07250867597091,0.0
392,-1.0977945041042434,0.2805618968897543,92.25155742168701,0.0
393,-1.0829413348940564,0.295333865080386,92.42968627712824,0.0
394,-1.0833614100535955,0.29439077933816904,92.60661029273972,0.0
395,-1.094263013117436,0.28311997157786495,92.78204039509303,0.0
396,-1.1105323715553554,0.26681078537219494,92.95568345043372,0.0
397,-1.1272202293799471,0.25019093291885364,93.12724234747314,0.0
398,-1.1400786959312421,0.23707980434841439,93.29641610005105,0.0
399,-1.1460306536339648,0.2301751272510151,93.46289997027347,0.0
400,-1.1434544637452997,0.23097943626653114,93.62638561270516,0.0
401,-1.132212259405098,0.23985965047157343,93.78656124016221,0.0
402,-1.1134205734100329,0.2562177459442981,93.94311181161127,0.0
403,-1.0890312458625526,0.27873628352325736,94.09571924263633,0.0
404,-1.061336932512185,0.30565347676141047,94.24406263888004,0.0
405,-1.032527391023975,0.33502179408657595,94.38781855280715,0.0
406,-1.0043986134837737,0.3649128100296903,94.5266612640699,0.0
407,-0.9782642445420904,0.39354741812633387,94.66026308368038,0.0
408,-0.9550526992905581,0.4193505223141311,94.78829468211251,0.0
409,-0.9355145350206746,0.4409477685768987,94.91042544136748,0.0
410,-0.920433430848166,0.45713410577470037,95.0263238309384,0.0
411,-0.9107427145856696,0.46684722052496913,95.13565780750722,0.0
412,-0.9074946643237597,0.46917303662608006,95.23809523809524,1.0
413,-0.9116931629298998,0.46339778354615957,95.33754630606403,0.0
414,-0.9240551249050947,0.44910534816278774,95.43808850456921,0.0
415,-0.9447898831389295,0.4263035959284023,95.53964037574933,0.0
416,-0.9734700855015282,0.3955519863162295,95.6421197953402,0.0
417,-1.0090224611880225,0.35805657965659465,95.74544395372241,0.0
418,-1.0498160160730916,0.3156977198573956,95.8495293382896,0.0
419,-1.093795565994583,0.270960091072405,95.95429171716701,0.0
420,-1.1386154288587071,0.22674450371505828,96.05964612431193,0.0
421,-1.1817661320965291,0.18605604724599595,96.16550684602811,0.0
422,-1.220731999506155,0.15158433170181534,96.27178740892779,0.0
423,-1.2532403216996195,0.1252173245284574,96.37840056937608,0.0
424,-1.277645661237482,0.10755736590893722,96.4852583044536,0.0
425,-1.2934373269879331,0.09753029400517024,96.59227180447381,0.0
426,-1.3017822809395976,0.09218846919561915,96.69935146709267,0.0
427,-1.3059458925466756,0.08679841240636263,96.80640689304859,0.0
428,-1.3113960827902875,0.07526940659029208,96.9133468835715,0.0
429,-1.32541541896767,0.05092204500480138,97.02007943950018,0.0
430,-1.3561331252581585,0.0075236685015473564,97.1265117621471,0.0
431,-1.4110379545203051,-0.05955434429837614,97.23255025595083,0.0
432,-1.4952105392307558,-0.15225610566361364,97.33810053295502,0.0
433,-1.6096642846856548,-0.2690543800414652,97.4430674191542,0.0
434,-1.7502450254464306,-0.4046460901964077,97.547354962745,0.0
435,-1.9074695174027765,-0.5502444237806109,97.65086644432215,0.0
436,-2.067482397985265,-0.6944731493263228,97.75350438905697,0.0
437,-2.2140309340424387,-0.8247484824669153,97.85517058089626,0.0
438,-2.33108069900858,-0.928929711780063,97.95576607881772,0.0
439,-2.405509716927361,-0.9969575099874155,98.05519123517732,0.0
440,-2.429281471550411,-1.0221949188394963,98.15334571618268,0.0
441,-2.4006205661445827,-1.002242800209863,98.25012852452515,0.0
442,-2.323964246413794,-0.9391063392630828,98.34543802420065,0.0
443,-2.2087682252789342,-0.8387172792615663,98.43917196754903,0.0
444,-2.0675188868514858,-0.7099379063713456,98.53122752453768,0.0
445,-1.9134672407142022,-0.5632599655241323,98.62150131431473,0.0
446,-1.7586104917937306,-0.4094469701146915,98.70988943905256,0.0
447,-1.612314836059458,-0.258347918656773,98.79628752010147,0.0
448,-1.4807539184919853,-0.11804438028167424,98.88059073646875,0.0
449,-1.3671065205361457,0.005598327283256044,98.96269386563664,0.0
450,-1.272279617142099,0.10899706794258934,99.04249132672788,0.0
451,-1.1958365287466615,0.19062590335626295,99.11987722602457,0.0
452,-1.1368217741603137,0.2506280201639709,99.19474540484227,0.0
453,-1.094266866316745,0.29039025382548017,99.26698948975705,0.0
454,-1.0672998202723065,0.31217295334654643,99.33650294517807,0.0
455,-1.0549221103209432,0.31883844920058946,99.40317912825554,0.0
456,-1.055619452271502,0.3136719906422826,99.46691134610684,0.0
457,-1.0670110101858241,0.300253892090698,99.52759291534093,0.0
458,-1.0857115744851862,0.2823289229624397,99.58511722385418,0.0
459,-1.1075002179246314,0.2636292873048801,99.63937779486663,0.0
460,-1.1277864636539197,0.24763464142063,99.69026835316129,0.0
461,-1.1422717447166597,0.2372859770232849,99.73768289348462,0.0
462,-1.1476437052041317,0.2346985090218927,99.78151575105863,0.0
463,-1.1421273294445358,0.2409330950418772,99.82166167415149,0.0
464,-1.1257524545914261,0.255882106041874,99.85801589864462,0.0
465,-1.1002723875114848,0.27830550683674,99.89047422453125,0.0
466,-1.068761707422047,0.30602225866976723,99.91893309427178,0.0
467,-1.0350038424596837,0.3362295959227018,99.9432896729275,0.0
468,-1.0028237478103192,0.36589671109467,99.9634419299867,0.0
469,-0.9755149711029443,0.39216593402877464,99.97928872279047,0.0
470,-0.9554609638416829,0.4126958706533704,99.99072988145984,0.0
471,-0.9439815859943975,0.42589557099503483,99.99766629521856,0.0
472,-0.9413752268254488,0.4310221684676975,100.0,1.0
473,-0.9470933988690539,0.42814085921746325,99.98678693126776,0.0
474,-0.9599809783599268,0.41797018287958787,99.94764224252303,0.0
475,-0.9785313960392431,0.40165334159708765,99.88333626324453,0.0
476,-1.0011271788455254,0.38050557019866804,99.79467430566562,0.0
477,-1.0262509496213346,0.35578778844853026,99.68249280070886,0.0
478,-1.0526565389959823,0.3285485442133156,99.54765545361876,0.0
479,-1.079487104959525,0.2995609865748112,99.3910494457955,0.0
480,-1.106322893465699,0.2693612876442498,99.21358170730846,0.0
481,-1.1331410948966012,0.2383722240443101,99.01617528239413,0.0
482,-1.1601783518536675,0.20707398458144696,98.79976580796253,0.0
483,-1.1877053558506947,0.17616786357414993,98.56529812279105,0.0
484,-1.2157521267920264,0.14667175830710377,98.31372302271441,0.0
485,-1.2438560909919587,0.11989304709846507,98.04599417476068,0.0
486,-1.2709304227132145,0.09724622148872678,97.7630652008676,0.0
487,-1.2953507839192002,0.07991804566408489,97.46588693957115,0.0
488,-1.3153213986500614,0.06842644898292904,97.15540489191137,0.0
489,-1.3295053581731786,0.062161494851598026,96.83255685577372,0.0
490,-1.337805285647345,0.059026110032431134,96.49827075098814,0.0
491,-1.3420891756905493,0.0552999034953717,96.15346263576157,0.0
492,-1.3466069465263137,0.04582441850484602,95.79903491342606,0.0
493,-1.3578635465787483,0.02455255496878099,95.4358747270534,0.0
494,-1.3838155039646753,-0.014572855672577018,95.06485253821748,0.0
495,-1.4324278295983717,-0.07653006498884296,94.6868208850791,0.0
496,-1.5098293775123162,-0.16410682467458215,94.30261331402016,0.0
497,-1.6184773368732177,-0.2769885651882003,93.91304347826086,0.0
498,-1.7558192413882372,-0.41125539481646534,93.5189043962475,0.0
499,-1.9138768340367052,-0.5594337095823619,93.12096786209158,0.0
500,-2.079968713598618,-0.711145882354578,92.71998399996484,0.0
501,-2.2384923354523845,-0.8542821844540375,92.31668095409769,0.0
502,-2.373395644101826,-0.9765106110335012,91.91176470588235,0.0
503,-2.470782005952388,-1.0668688096632633,91.5059190095345,0.0
504,-2.521068195505429,-1.1171651650361603,91.09980543780813,0.0
505,-2.520252550600203,-1.1229569611040389,90.69406352937763,0.0
506,-2.4700946836766366,-1.0839616384009594,90.28931102968873,0.0
507,-2.377279540677107,-1.0038704688205717,89.88614421732473,0.0
508,-2.2518614810444118,-0.8896454586113652,89.48513830822978,0.0
509,-2.105406656562042,-0.7504651923692945,89.08684793046633,0.0
510,-1.9492555491704406,-0.5965272925346741,88.69180766255171,0.0
511,-1.7932272522370916,-0.4379096899573732,88.30053262881283,0.0
512,-1.6449244780855603,-0.2836473361468326,87.91351914561085,0.0
513,-1.509625576361766,-0.14111143410461258,87.53124541271437,0.0
514,-1.3906123343778671,-0.015704483029144733,87.15417224453368,0.0
515,-1.2897075165926284,0.08917563744996412,86.78274383636811,0.0
516,-1.2077924283024208,0.17198394777994264,86.41738856125674,0.0
517,-1.1451347284602273,0.2327763434104711,86.05851979345955,0.0
518,-1.1014591143821297,0.27292674727658883,85.7065367550261,0.0
519,-1.0758061290691867,0.2948519735620107,85.36182538233246,0.0
520,-1.066310907666932,0.30175141041947123,85.02475920988192,0.0
521,-1.0700658064823767,0.29734738284246914,84.69570026906882,0.0
522,-1.0831994420555113,0.28560673428752026,84.375,0.0
523,-1.101223734720106,0.27043441897930326,84.06300017485104,0.0
524,-1.1196013097758744,0.25535006835492596,83.76003383160833,0.0
525,-1.134403935591047,0.24317995322161173,83.46642621741037,0.0
526,-1.142895842055413,0.23581093390309052,83.18249574105621,0.0
527,-1.1438935333782791,0.23405408266984712,82.90855493459436,0.0
528,-1.137816491833065,0.23765227524150406,82.64491142424485,0.0
529,-1.126427146779742,0.24544128524816233,82.39186891124089,0.0
530,-1.1123353610115547,0.2556441437708718,82.14972816350691,0.0
531,-1.098390064274484,0.26625131726979995,81.91878801941974,0.0
532,-1.0870892791944529,0.2754212350635459,81.69934640522875,0.0
533,-1.0801153133267654,0.2818309209238544,81.49170136804646,0.0
534,-1.0780604507592209,0.2849157218862399,81.29615212665915,0.0
535,-1.0803673110508263,0.28495804718010054,81.11300014275888,0.0
536,-1.085476345921875,0.2830130462370201,80.94255021555901,0.0
537,-1.0911491589398923,0.28068860025484993,80.78511160313566,0.0
538,-1.094914189900109,0.27982230914438827,80.64099917423617,0.0
539,-1.0945592972106502,0.28211485881475895,80.5105345947207,0.0
540,-1.0885811169199098,0.28878461766421226,80.39404755325778,0.0
541,-1.076504399790748,0.3003021273270553,80.29187703138449,0.0
542,-1.0590104761637373,0.3162471381564357,80.20437262357414,0.0
543,-1.0378562621438518,0.3353086021691598,80.13189591353446,0.0
544,-1.0156097269824136,0.3554241526970394,80.07482191359605,0.0
545,-0.9952608273658621,0.3740345797373931,80.03354057475227,0.0
546,-0.9797819475410898,0.3884140948409859,80.00845837568842,0.0
547,-0.971710182111872,0.39603044671174936,80.0,1.0
548,-0.9728108987212428,0.39488989006090003,80.01318735865726,0.0
549,-0.9838632551790679,0.38382862504871185,80.05218216318785,0.0
550,-1.0045865904052478,0.36272163797532475,80.11616844424415,0.0
551,-1.0337027384553266,0.33258889769625405,80.20437262357414,0.0
552,-1.0691048975245772,0.2955855713045189,80.31605856379271,0.0
553,-1.1080843592267875,0.25486699833491994,80.45052292839904,0.0
554,-1.147562355280906,0.21432226283067013,80.6070908117246,0.0
555,-1.1842944054824402,0.1781755643866055,80.78511160313566,0.0
556,-1.2150566963403837,0.15046590618568245,80.98395505390495,0.0
557,-1.236870005436774,0.13443536165698539,81.203007518797,0.0
558,-1.247338816919554,0.13188382867259665,81.4416683476579,0.0
559,-1.2451592872155561,0.14257902775715592,81.69934640522877,0.0
560,-1.230775979880802,0.16383575681218285,81.9754567000704,0.0
561,-1.2070625165655768,0.19038696737418973,82.26941710594473,0.0
562,-1.1798014422739713,0.2146509322910738,82.58064516129032,0.0
563,-1.157687624885037,0.22744845968288535,82.90855493459436,0.0
564,-1.1516173874585496,0.21914499137737786,83.2525539455351,0.0
565,-1.173171877146907,0.18109752741947172,83.61204013377926,0.0
566,-1.232439019353183,0.1071968512325261,83.98639886929422,0.0
567,-1.3355785164391212,-0.00476389209588543,84.37500000000001,0.0
568,-1.4827219528662765,-0.1521715047964915,84.7771949345626,0.0
569,-1.6668248608197715,-0.32734985584583953,85.19231376013632,0.0
570,-1.8739099270112367,-0.5181057003988968,85.61966239691452,0.0
571,-2.084797593251296,-0.7090311063120279,86.05851979345957,0.0
572,-2.278018411854965,-0.8833806655394594,86.5081351689612,0.0
573,-2.433275542606881,-1.0252234919722218,86.9677253108291,0.0
574,-2.5346841860359084,-1.1215120419553979,87.43647193835729,0.0
575,-2.5730965384009954,-1.1637260000259415,87.91351914561083,0.0
576,-2.547085195235959,-1.1488353090509855,88.39797093916705,0.0
577,-2.462508767904425,-1.0794604192504083,88.8888888888889,0.0
578,-2.3309119597487826,-0.9632578758341204,89.3852899124976,0.0
579,-2.1672342025453206,-0.8116916178867772,89.88614421732471,0.0
580,-1.9873759431837938,-0.6384379995278512,90.39037342523022,0.0
581,-1.8061050958288123,-0.45770189728186295,90.8968489092378,0.0
582,-1.6356180618883527,-0.2826938607046174,91.40439037291722,0.0
583,-1.4848579483308568,-0.1244486369287724,91.91176470588236,0.0
584,-1.3594959768769628,0.008924243897579676,92.41768515091678,0.0
585,-1.2623475400092066,0.11255364137519583,92.9208108201122,0.0
586,-1.1939491404382276,0.1847448950218979,93.41974659893734,0.0
587,-1.15306891564539,0.22663911212683377,93.91304347826086,0.0
588,-1.1370367807773314,0.24169556073788803,94.3991993549388,0.0
589,-1.1419132048532998,0.2350836039310421,94.87666034155599,0.0
590,-1.1626144807362904,0.21304607234162481,95.3438226251774,0.0
591,-1.1931393488062254,0.18227355194157085,95.79903491342606,0.0
592,-1.2269924465506747,0.14931566713546995,96.24060150375938,0.0
593,-1.2578034088439267,0.12005227240597954,96.6667860083778,0.0
594,-1.2800429377149842,0.09925083817976152,97.07581576268558,0.0
595,-1.2896797305142131,0.09024004669439258,97.46588693957115,0.0
596,-1.2846239434340834,0.09472795104044879,97.83517038493157,0.0
597,-1.2648576141095131,0.11278299115645371,98.18181818181817,0.0
598,-1.2322357563314563,0.14297841491557833,98.50397094132856,0.0
599,-1.1900232173040541,0.1826791196799689,98.79976580796253,0.0
600,-1.1422867659481724,0.22843008114267843,99.06734515567561,0.0
601,-1.0932768190344688,0.2763924319937555,99.30486593843098,0.0
602,-1.0469106859281663,0.3227699279427908,99.51050964583933,0.0
603,-1.0064224173561467,0.36417525212525353,99.68249280070884,0.0
604,-0.9741915862375949,0.3979000781773451,99.8190779212677,0.0
605,-0.9517212261434718,0.42207120140793264,99.91858485678335,0.0
606,-0.9397131345137257,0.43569326730901164,99.97940239163688,0.0
607,-0.9381871535103987,0.43859347270870425,100.0,1.0
608,-0.9466038688729606,0.4312934055793775,99.99523205260917,0.0
609,-0.9639700038819949,0.41483778787781206,99.98110560847452,0.0
610,-0.9889265317952024,0.3906102106380181,99.95789048238699,0.0
611,-1.0198355058293116,0.36016323674373313,99.92586105196929,0.0
612,-1.0548865714730336,0.32508537087355593,99.88529577229605,0.0
613,-1.0922340102369787,0.28692054160602876,99.83647670037764,0.0
614,-1.1301527919549823,0.2471465511249845,99.77968903070496,0.0
615,-1.1671782624182339,0.20720712761348983,99.71522064295378,0.0
616,-1.2021824337694627,0.16857833982103385,99.64336166284804,0.0
617,-1.234349571818756,0.13283629393738036,99.56440403708272,0.0
618,-1.263045369482903,0.10168293177610567,99.47864112310899,0.0
619,-1.287619435090307,0.07688500856961568,99.38636729448775,0.0
620,-1.3072256582862918,0.06009205567732021,99.28787756242397,0.0
621,-1.3207708964899165,0.05252409513526035,99.18346721400137,0.0
622,-1.3270918505229627,0.05455688296092961,99.07343146754972,0.0
623,-1.3254041380519594,0.06527466055612594,98.95806514549035,0.0
624,-1.3159735924802791,0.08209697624623612,98.83766236492465,0.0
625,-1.3008523591243706,0.10060462883477764,98.71251624615273,0.0
626,-1.2844372521303216,0.11467954974996186,98.58291863923534,0.0
627,-1.2735809501060922,0.11702950683594507,98.44915986864464,0.0
628,-1.2770425494653825,0.1000944987681837,98.31152849598351,0.0
629,-1.304206846759137,0.057240701415713365,98.17031110069452,0.0
630,-1.3632083136329507,-0.01593951511088404,98.0257920786246,0.0
631,-1.4588140047540799,-0.12046304584995687,97.87825345826046,0.0
632,-1.5905776283911581,-0.25318112663452935,97.7279747344056,0.0
633,-1.7518053256655546,-0.4066028854688826,97.5752327190278,0.0
634,-1.929735803469392,-0.5694268258511209,97.42030140897062,0.0
635,-2.107053353890435,-0.7277547202066187,97.26345187018983,0.0
636,-2.264500594863109,-0.8668214721826722,97.10495213814967,0.0
637,-2.384050312757428,-0.9729610311725175,96.94506713398924,0.0
638,-2.4519339695372575,-1.035470614771395,96.78405859605165,0.0
639,-2.460858640889172,-1.048048484137181,96.62218502635262,0.0
640,-2.4109570348388454,-1.0095621192918185,96.45970165155444,0.0
641,-2.309334928823029,-0.9240347961070303,96.29686039800302,0.0
642,-2.168411891147476,-0.7998885414050305,96.13390988038195,0.0
643,-2.0035077943891677,-0.6486160689130129,95.9710954035358,0.0
644,-1.8302512374283888,-0.4831448059641729,95.808658977017,0.0
645,-1.662356757936078,-0.3161860655633687,95.64683934191557,0.0
646,-1.510156784981473,-0.15883091157709067,95.48587200953767,0.0
647,-1.3800378200191774,-0.019574867122638062,95.32598931150943,0.0
648,-1.2746921096517125,0.0961504544499707,95.16742046089425,0.0
649,-1.1939225537571687,0.1859634316163809,95.01039162392607,0.0
650,-1.1356676429378207,0.25014020854667085,94.85512600197723,0.0
651,-1.0969458690815603,0.2909910377966647,94.70184392339794,0.0
652,-1.0745256188868624,0.31215630305154907,94.55076294488376,0.0
653,-1.0652615544925974,0.3179462984066667,94.40209796204888,0.0
654,-1.066157174711004,0.31280394391167665,94.25606132890636,0.0
655,-1.0742843902244257,0.3009216674694477,94.1128629859794,0.0
656,-1.0867027741786688,0.2860047232062244,93.97271059679512,0.0
657,-1.1004808819576617,0.2711499001094778,93.83580969253666,0.0
658,-1.112851198537009,0.2588015825525408,93.70236382465926,0.0
659,-1.1214576311890334,0.25075243220734106,93.57257472530382,0.0
660,-1.1246071479525823,0.2481672513332841,93.44664247537156,0.0
661,-1.1214314387083841,0.25161984561250395,93.3247656801545,0.0
662,-1.1118994886065163,0.2611401238930378,93.20714165244888,0.0
663,-1.0966801924586593,0.27627135132061437,93.09396660311091,0.0
664,-1.0769096247462793,0.2961368793816965,92.9854358390496,0.0
665,-1.0539476347237133,0.3195143002076392,92.8817439686854,0.0
666,-1.0292025655652675,0.34491483109913956,92.7830851149411,0.0
667,-1.004065392188144,0.3706673783144888,92.68965313586843,0.0
668,-0.9799417290120905,0.39500910090001334,92.60164185305274,0.0
669,-0.9583240921390741,0.41618543299135874,92.51924528797957,0.0
670,-0.9408271332943989,0.432560716119292,92.44265790658768,0.0
671,-0.9291241090366479,0.4427354494054987,92.37207487227784,0.0
672,-0.9247672659161619,0.44565908574550434,92.3076923076923,1.0
673,-0.9289293336903052,0.4407211245398146,92.2471836200902,0.0
674,-0.9421452547857355,0.42780118427473474,92.18806388355738,0.0
675,-0.9641455592714346,0.4072629976304084,92.1302928361025,0.0
676,-0.9938500035469394,0.37988797877215125,92.07383051842854,0.0
677,-1.0295398789668377,0.34675880773454826,92.01863726249388,0.0
678,-1.0691678883418752,0.30911804749612815,91.96467368047732,0.0
679,-1.1107181174008627,0.2682361809461839,91.91190065413774,0.0
680,-1.1525131798719372,0.2253236209264951,91.86027932456138,0.0
681,-1.193385964378746,0.1815105903030551,91.80977108228768,0.0
682,-1.2326792837924405,0.13789881433709594,91.76033755780712,0.0
683,-1.2700888309665104,0.0956642309118157,91.71194061242396,0.0
684,-1.3054056518400021,0.05616692942644866,91.66454232947669,0.0
685,-1.3382360968409528,0.02101026740376126,91.61810500591037,0.0
686,-1.3677819764000938,-0.008008679470269675,91.5725911441945,0.0
687,-1.3927569528404586,-0.029097579110349103,91.527963444581,0.0
688,-1.4114995834078083,-0.04082247183782764,91.48418479769627,0.0
689,-1.42231678077929,-0.04257782069315112,91.44121827746277,0.0
690,-1.4240495675342855,-0.035087589001394415,91.39902713434485,0.0
691,-1.4167931085091123,-0.02081561170508682,91.3575747889141,0.0
692,-1.4026281144970345,-0.004149658915675258,91.3168248257301,0.0
693,-1.386146317214667,0.008758584254884141,91.27674098753188,0.0
694,-1.374511814455138,0.010562881466233062,91.23728716973642,0.0
695,-1.3768357496458195,-0.006315091176748847,91.19842741524042,0.0
696,-1.4027826793765195,-0.0484419449340211,91.16012590952104,0.0
697,-1.460558397633047,-0.12004665932508193,91.12234697603327,0.0
698,-1.5546823912425334,-0.221866915724661,91.0850550718994,0.0
699,-1.6841225699371192,-0.3504252856406979,91.04821478388843,0.0
700,-1.8413770930526123,-0.4979357873147954,91.01179082468178,0.0
701,-2.0128965017833242,-0.6529308877113378,90.97574802942266,0.0
702,-2.180894609347648,-0.801557416825052,90.94005135254648,0.0
703,-2.3262077716537206,-0.9293495103404055,90.90466586488924,0.0
704,-2.4315599705801034,-1.02318176300926,90.86955675107184,0.0
705,-2.4844767083180193,-1.0730625886065464,90.8346893071575,0.0
706,-2.4791977124212203,-1.0734573206569895,90.80002893858004,0.0
707,-2.417224039563913,-1.0239254104282145,90.76554115834084,0.0
708,-2.3065002111993684,-0.9289926520277116,90.7311915854721,0.0
709,-2.159559508756927,-0.7973249222795517,90.69694594376423,0.0
710,-1.991157401772249,-0.6403915650516312,90.66277006075535,0.0
711,-1.8159458948593343,-0.47087972330283573,90.62862986698079,0.0
712,-1.6466240235077958,-0.3011348585801531,90.59449139548042,0.0
713,-1.4928025555366482,-0.14186156577619696,90.5603207815619,0.0
714,-1.360616868730308,-0.0012387788033781932,90.526084262818,0.0
715,-1.25296225117252,0.11549283216798012,90.49174817939534,0.0
716,-1.170132579270921,0.20600342029058644,90.45727897451359,0.0
717,-1.110617770350403,0.2705049199227686,90.42264319523184,0.0
718,-1.0718484251509257,0.3111726237607598,90.38780749346138,0.0
719,-1.0507516383546804,0.3314909759497484,90.3527386272218,0.0
720,-1.0440767243896119,0.33563344819934954,90.31740346213898,0.0
721,-1.0485352203790608,0.32794878025226853,90.2817689731825,0.0
722,-1.0608500676824222,0.3125860085712256,90.24580224664021,0.0
723,-1.077810666157845,0.29325752921583287,90.2094704823284,0.0
724,-1.0963890081360572,0.2731176589828104,90.1727409960342,0.0
725,-1.1139110122557896,0.25472423915017306,90.13558122218883,0.0
726,-1.1282281444773576,0.24005024856193782,90.09795871676872,0.0
727,-1.1378216433259343,0.23051749898323554,90.05984116042217,0.0
728,-1.1417996601351386,0.22703211099148946,90.02119636181882,0.0
729,-1.1397993594674516,0.23000977276549078,89.98199226121953,0.0
730,-1.1318526211394349,0.23938712807853996,89.94219693426348,0.0
731,-1.1182900681772039,0.2546238122733116,89.90177859596986,0.0
732,-1.0997344764218022,0.2747070201775182,89.86070560495114,0.0
733,-1.0771820669352705,0.2981756036403635,89.81894646783466,0.0
734,-1.0521140708249512,0.3231816438816882,89.77646984388934,0.0
735,-1.0265490882135768,0.34760274686665926,89.7332445498542,0.0
736,-1.002956330113255,0.3692079317631248,89.68923956496522,0.0
737,-0.98399903060191,0.38586587921922205,89.64442403617666,0.0
738,-0.9721459629615676,0.39577016319616487,89.5987672835734,0.0
739,-0.969247905324468,0.3976462556331092,89.55223880597015,1.0
740,-0.9761999776212347,0.39090309441742416,89.50419107862034,0.0
741,-0.9927895452925872,0.37569923956027285,89.45405658570058,0.0
742,-1.0177711130490286,0.35290878222738087,89.40192491199234,0.0
743,-1.0491378109463565,0.32399152676295384,89.34788552429609,0.0
744,-1.0845024502900384,0.29079066410681453,89.29202773367166,0.0
745,-1.1214806507735913,0.25529466580122645,89.2344406595107,0.0
746,-1.1579875461193732,0.21940555882216853,89.17521319544365,0.0
747,-1.1924035094645524,0.1847524616430254,89.1144339770816,0.0
748,-1.2236107453112115,0.1525787222591568,89.05219135159034,0.0
749,-1.2509342116761297,0.12371595152649256,88.9885733490909,0.0
750,-1.2740319249492407,0.09864176218020017,88.92366765587954,0.0
751,-1.292775363518593,0.0776027196921128,88.85756158945654,0.0
752,-1.3071470907743896,0.06077170889981859,88.79034207535224,0.0
753,-1.317165679642279,0.04840077289524712,88.72209562573605,0.0
754,-1.322833613649285,0.040927357901649725,88.65290831979247,0.0
755,-1.3240989858983256,0.03899474926806566,88.58286578584735,0.0
756,-1.320830845718147,0.043357394691732554,88.51205318522456,0.0
757,-1.312827950774316,0.0546595944048571,88.44055519781355,0.0
758,-1.299900458967595,0.07310141144721795,88.36845600932621,0.0
759,-1.2820695245474503,0.09803628495255283,88.29583930022025,0.0
760,-1.259909936671586,0.12757570446709593,88.22278823626652,0.0
761,-1.23501264439995,0.15829991618441475,88.14938546073529,0.0
762,-1.2104741675125312,0.18518127460760922,88.07571308817771,0.0
763,-1.1912474869574532,0.20181097468347603,88.00185269977659,0.0
764,-1.1841447030971384,0.2009770206297564,87.92788534024157,0.0
765,-1.1973004398942324,0.17557456711250208,87.85389151622253,0.0
766,-1.2390095410349347,0.11975014413041733,87.77995119621569,0.0
767,-1.3160350919002661,0.03010631167426618,87.70614381193663,0.0
768,-1.431695351797986,-0.09325652655511782,87.6325482611344,0.0
769,-1.5842034643455976,-0.24609125305524432,87.55924291182151,0.0
770,-1.7657741414026513,-0.41993279661157235,87.4863056078946,0.0
771,-1.9628846747131932,-0.6026951098386394,87.41381367612112,0.0
772,-2.1578021913985794,-0.7799013951587289,87.34184393446861,0.0
773,-2.331144979104449,-0.9363831206415131,87.27047270175198,0.0
774,-2.4649465792685006,-1.0581808507488877,87.19977580857731,0.0
775,-2.545539384582569,-1.1343301678881577,87.12982860955988,0.0
776,-2.5656195243370012,-1.1582322445830395,87.06070599679538,0.0
777,-2.525077213818375,-1.1283877480740057,86.99248241456463,0.0
778,-2.430499408882529,-1.048395892019903,86.92523187525317,0.0
779,-2.293572045153267,-0.9262584296091554,86.85902797646749,0.0
780,-2.1288362718359566,-0.7731497473039248,86.79394391933229,0.0
781,-1.9513357307793349,-0.6018934860623519,86.73005252795305,0.0
782,-1.774629631711231,-0.42540987684995824,86.66742627003059,0.0
783,-1.6094800160962914,-0.25536723283394247,86.6061372786153,0.0
784,-1.4633113786352279,-0.10119948346129713,86.54625737499018,0.0
785,-1.3403453506699232,0.03043925338812367,86.48785809267406,0.0
786,-1.2421777719897338,0.13579939627882653,86.43101070253691,0.0
787,-1.1685165124503292,0.21382168637609117,86.37578623902237,0.0
788,-1.1178380521245275,0.2656994846925246,86.32225552747298,0.0
789,-1.0878247656154139,0.2943347607352831,86.27048921255636,0.0
790,-1.0755692068959963,0.30378249705477806,86.22055778779254,0.0
791,-1.0776301688755214,0.29874375781449275,86.17253162618408,0.0
792,-1.090067952371946,0.2841335267619587,86.12648101195337,0.0
793,-1.1085690075773895,0.26472464707268245,86.08247617339298,0.0
794,-1.128711037829522,0.2448576350650979,86.04058731683814,0.0
795,-1.146347572745994,0.22820648283968145,86.0008846617717,0.0
796,-1.1580335048739059,0.2175979554203884,85.96343847707485,0.0
797,-1.1613885088042224,0.21489030471716697,85.92831911843967,0.0
798,-1.1553087944352058,0.22092184440617618,85.89559706696146,0.0
799,-1.1399807975831087,0.2355380834358789,85.86534296893184,0.0
800,-1.1167049505526094,0.2576985919660958,85.83762767685675,0.0
801,-1.087583726476804,0.28565411994440687,85.8125222917254,0.0
802,-1.0551524933205658,0.3171742078792761,85.79009820656039,0.0
803,-1.0220312301976535,0.34979863016106716,85.7704271512809,0.0
804,-0.9906546177358874,0.381084078595846,85.75358123891607,0.0
805,-0.9631059532144317,0.40882042353008513,85.73963301320649,0.0
806,-0.9410465432146514,0.431197264846558,85.72865549763746,0.0
807,-0.9257066098480613,0.4469093543259092,85.72072224595038,0.0
808,-0.9178945866461341,0.4551971813501425,85.71590739418193,0.0
809,-0.9179924834007258,0.4558257557240102,85.71428571428572,1.0
810,-0.9259315338068255,0.44901047760080703,85.72069641716558,0.0
811,-0.941172383438471,0.4353044844308215,85.7396598832674,0.0
812,-0.9627317621044311,0.4154672583689881,85.77078088364003,0.0
813,-0.989291249321461,0.39033889573666297,85.81367358885063,0.0
814,-1.0193928258249487,0.36074651019533177,85.86796047267723,0.0
815,-1.0516824749811313,0.32746636026629006,85.93327126680668,0.0
816,-1.0851269427137058,0.29125548125701695,86.00924196244225,0.0
817,-1.1191186021822106,0.2529495779607434,86.09551385515695,0.0
818,-1.1534084422183688,0.21360205993571219,86.19173262972737,0.0
819,-1.1878629263262923,0.1746175151237499,86.29754748205205,0.0
820,-1.2221095877424877,0.13781859177181435,86.41261027560384,0.0
821,-1.2551945979830896,0.10538509392164322,86.53657473018643,0.0
822,-1.2854005904014825,0.07962255107597406,86.6690956410693,0.0
823,-1.3103518788939577,0.06255450592553935,86.80982812686064,0.0
824,-1.3274682756096452,0.05538253109795159,86.95842690474886,0.0
825,-1.3347323695166946,0.057909574540580516,87.1145455920022,0.0
826,-1.3316302568682925,0.06806156194606791,87.27783603286265,0.0
827,-1.3200364957426287,0.08165547926864797,87.4479476502082,0.0
828,-1.3047649678353728,0.09253994506427571,87.62452682158613,0.0
829,-1.2935217599650868,0.09317490969188996,87.80721627944136,0.0
830,-1.296090552068352,0.07562871477630771,87.9956545355785,0.0
831,-1.3227534347836287,0.03287074910206282,88.18947533010464,0.0
832,-1.3821698343614452,-0.03985013948106805,88.38830710530213,0.0
833,-1.4791434753966004,-0.14380343710357407,88.59177250507801,0.0
834,-1.6128284246929296,-0.2760111484970025,88.79948790082844,0.0
835,-1.7758999472834462,-0.4291168717932005,89.01106294474177,0.0
836,-1.9550255981489428,-0.5919756580964904,89.22610015174507,0.0
837,-2.132655907520128,-0.7509100759074594,89.44419451147193,0.0
838,-2.2898026333419383,-0.8914414484578752,89.66493313179649,0.0
839,-2.4091974174596067,-1.0002053390868098,89.8878949156381,0.0
840,-2.4781157070773725,-1.0667213390996897,90.1126502728909,0.0
841,-2.4902456543835276,-1.0847183433470735,90.33876086947359,0.0
842,-2.446247263679666,-1.0528094395960677,90.56577941562368,0.0
843,-2.3529962036970744,-0.9744418048558648,90.79324949567778,0.0
844,-2.221828799999561,-0.8571847185015871,91.0207054416814,0.0
845,-2.06630470778993,-0.7115315667129434,91.24767225325884,0.0
846,-1.900035349595627,-0.5494568298830127,91.47366556624208,0.0
847,-1.735004842652973,-0.3829777067445438,91.69819167260657,0.0
848,-1.5805990725571564,-0.22292816002361232,91.92074759428883,0.0
849,-1.4433365964009977,-0.07807809728337659,92.14082121346304,0.0
850,-1.3271256660529045,0.045355209260755674,92.35789146183126,0.0
851,-1.2337883722177743,0.14383123960315153,92.57142857142857,0.0
852,-1.1636004110604903,0.21632330624942103,92.78089438936321,0.0
853,-1.1156756361988567,0.26396540187285045,92.98574275879483,0.0
854,-1.0881439208232533,0.2895987312207703,93.18541996830429,0.0
855,-1.078184892629641,0.29728484204473093,93.37936527162124,0.0
856,-1.0820483587131668,0.29182522683936185,93.56701147944985,0.0
857,-1.095193405242048,0.27830612544390987,93.74778562486713,0.0
858,-1.1126188240343131,0.26167715378785134,93.92110970346353,0.0
859,-1.1293680149635432,0.24637298925454618,94.08640148904506,0.0
860,-1.1411113762322351,0.23599412789925706,94.24307542532857,0.0
861,-1.144669980249737,0.23306941046162105,94.3905435936282,0.0
862,-1.1383573951320864,0.23892418180843628,94.52821675605989,0.0
863,-1.1220706228182307,0.2536709423491805,94.65550547327751,0.0
864,-1.0971304898865732,0.27632489048122666,94.77182129520516,0.0
865,-1.0659297932189722,0.3050283365415165,94.87657802264545,0.0
866,-1.0314782151901758,0.33735044934586667,94.96919303702818,0.0
867,-0.9969352007694069,0.37061679091996136,95.049088694921,0.0
868,-0.9652046315849873,0.4022196957211312,95.11569378325926,0.0
869,-0.9386397841499577,0.4298666641892407,95.16844503057189,0.0
870,-0.9188818187431022,0.45173826595230987,95.2067886687903,0.0
871,-0.9068328531349715,0.4665465416879668,95.23018203953595,0.0
872,-0.9027453600636055,0.4735055027801869,95.23809523809524,1.0
873,-0.9063931641668869,0.47224281087919323,95.23759249083972,0.0
874,-0.9172775553367858,0.4626924093605885,95.23609276809661,0.0
875,-0.9348178394574544,0.4450093332825649,95.23360889416205,0.0
876,-0.9584806723619133,0.4195393936862759,95.23015375221958,0.0
877,-0.9878161558546443,0.38685909957365944,95.22574028170312,0.0
878,-1.0223890540310083,0.3478781310770518,95.22038147568625,0.0
879,-1.0616185700193899,0.3039725517416926,95.21409037829865,0.0
880,-1.1045666900027236,0.2570972801384883,95.20688008217043,0.0
881,-1.149737318239575,0.2098166064711547,95.1987637259054,0.0
882,-1.194959321781829,0.1651960195220528,95.18975449158374,0.0
883,-1.2374221604235929,0.12651924097888645,95.17986560229464,0.0
884,-1.2739139796175225,0.09682980910570056,95.16911031970005,0.0
885,-1.30128182433402,0.07834173256336979,95.1575019416296,0.0
886,-1.3170922723279506,0.07181006966051964,95.14505379970791,0.0
887,-1.3204164037957637,0.07598881731782453,95.13177925701427,0.0
888,-1.3125985182268671,0.08731889748377294,95.11769170577577,0.0
889,-1.2978082075440716,0.09997436506860817,95.10280456509417,0.0
890,-1.2831468978054001,0.10634662056830549,95.0871312787069,0.0
891,-1.2781118395238689,0.09796848919080403,95.07068531278306,0.0
892,-1.2933302346364122,0.06678519728966192,95.05348015375435,0.0
893,-1.3386569950061413,0.006587378228990193,95.03552930618214,0.0
894,-1.4209439076397865,-0.0856446129245661,95.01684629065991,0.0
895,-1.541970399418642,-0.20875502822869557,94.9974446417529,0.0
896,-1.6971003009237156,-0.35701651783448174,94.97733790597405,0.0
897,-1.8751372498335122,-0.5204585983394988,94.95653963979726,0.0
898,-2.0595872602997587,-0.6859209229112098,94.93506340770821,0.0
899,-2.2311637005750455,-0.8386859969209892,94.91292278029277,0.0
900,-2.371007507801536,-0.9644242879780193,94.89013133236367,0.0
901,-2.4638754632539133,-1.051116777285372,94.8667026411251,0.0
902,-2.5005561744324845,-1.0906231263270054,94.84265028437618,0.0
903,-2.479004029083563,-1.0796371447296496,94.81798783875288,0.0
904,-2.4040469076955184,-1.0198967547109303,94.79272887800897,0.0
905,-2.285892122462499,-0.9176623725534528,94.76688697133584,0.0
906,-2.137911699710278,-0.7826111381797518,94.74047568172172,0.0
907,-1.9742767371870746,-0.6263859326650346,94.71350856435004,0.0
908,-1.8079409120446546,-0.46107149257019464,94.68599916503723,0.0
909,-1.6492975042165876,-0.2978445617550243,94.65796101871014,0.0
910,-1.5056170717156747,-0.1459742625230979,94.6294076479228,0.0
911,-1.381172329733604,-0.012254919844471218,94.60035256141295,0.0
912,-1.277817505077556,0.0991392476148335,94.57080925269804,0.0
913,-1.1957374453650744,0.18645976482824894,94.54079119871119,0.0
914,-1.1341179988968815,0.2499709292087962,94.51031185847633,0.0
915,-1.0915884051677307,0.29144386676947254,94.47938467182337,0.0
916,-1.0664066604650024,0.31366052369712516,94.44802305814272,0.0
917,-1.0564577995500817,0.3199925721493244,94.41624041517942,0.0
918,-1.0591850935839777,0.314080105336389,94.38405011786678,0.0
919,-1.071569243679182,0.2996030620999117,94.35146551719927,0.0
920,-1.0902244260203133,0.2801200921061513,94.31849993914494,0.0
921,-1.1116175265238581,0.25894546540137786,94.28516668359681,0.0
922,-1.1323636875890153,0.23904115087827232,94.25147902336343,0.0
923,-1.149524805710454,0.22291297688141318,94.2174502031985,0.0
924,-1.160842705796597,0.21251167923632217,94.183093438869,0.0
925,-1.1648677948849606,0.2091481055694386,94.14842191626236,0.0
926,-1.1609813126179507,0.21343549279193588,94.11344879053176,0.0
927,-1.1493381178975017,0.22527099202900172,94.07818718528013,0.0
928,-1.1307670281764588,0.24386489630766178,94.04265019178185,0.0
929,-1.106657212443582,0.2678208654982869,94.00685086824278,0.0
930,-1.0788407812655174,0.2952649280396487,93.97080223909784,0.0
931,-1.0494649972232908,0.32401568272678627,93.93451729434621,0.0
932,-1.0208408290003301,0.35178309376171096,93.89800898892382,0.0
933,-0.9952602773547916,0.3763787589204053,93.86129024211297,0.0
934,-0.9747896204008573,0.3959170217674716,93.82437393698874,0.0
935,-0.9610624402108183,0.4089846127425148,93.78727291990224,0.0
936,-0.9551073865524848,0.414757570802015,93.75,1.0
937,-0.957246012573323,0.41304869253733434,93.71085986501618,0.0
938,-0.9670850950187034,0.40427674662373797,93.66820206844586,0.0
939,-0.9836092738485086,0.3893594404922179,93.6221070835203,0.0
940,-1.0053593744600433,0.36954412280784005,93.5726558622961,0.0
941,-1.0306649757687236,0.3462014128311741,93.51992977909653,0.0
942,-1.0578905576218385,0.3206151834467327,93.46401057512101,0.0
943,-1.0856544076760664,0.29380567144249525,93.4049803042713,0.0
944,-1.1129872355724948,0.26641965096126885,93.3429212802377,0.0
945,-1.1394096956494835,0.23871216764581213,93.27791602488671,0.0
946,-1.164920502545357,0.21062891226825306,93.2100472179862,0.0
947,-1.1898967391009776,0.18197864303567152,93.13939764830187,0.0
948,-1.2149157229039704,0.15266396877353597,93.06605016609421,0.0
949,-1.240516743706438,0.12292004965336728,92.99008763704295,0.0
950,-1.2669345347080547,0.09349870408722019,92.9115928976212,0.0
951,-1.2938542935526123,0.06573428277881209,92.83064871193963,0.0
952,-1.320254892939976,0.04144066203558905,92.7473377300767,0.0
953,-1.344413736795892,0.022616758159357125,92.66174244790857,0.0
954,-1.3641353428414136,0.010978714314039878,92.57394516844938,0.0
955,-1.3772315991919846,0.007384143440124946,92.48402796470903,0.0
956,-1.382224514351506,0.011257786526457314,92.39207264407366,0.0
957,-1.379167047699867,0.02015688984252137,92.29816071421095,0.0
958,-1.37039749259601,0.029617306491217313,92.20237335049985,0.0
959,-1.3609827432495971,0.033390433582805246,92.10479136498225,0.0
960,-1.3585991946628073,0.02411628727879378,92.00549517683115,0.0
961,-1.3726765495322892,-0.005611998639510896,91.90456478432877,0.0
962,-1.4127965981991888,-0.061934668901090034,91.8020797383447,0.0
963,-1.4865670781710132,-0.14838730625718155,91.69811911730349,0.0
964,-1.5974147540729313,-0.26480547742942995,91.59276150362857,0.0
965,-1.7428773592170121,-0.4067256148767767,91.48608496164744,0.0
966,-1.9139479596864717,-0.5654610661890861,91.3781670169428,0.0
967,-2.09581116119948,-0.7289079965986724,91.26908463713106,0.0
968,-2.2699520407092444,-0.8829878654244627,91.1589142140496,0.0
969,-2.4172248186350744,-1.0134961130784732,91.04773154733283,0.0
970,-2.521175379947727,-1.1080346170107593,90.93561182935503,0.0
971,-2.5708267288302835,-1.1576823589596825,90.82262963151821,0.0
972,-2.5622904086665583,-1.1581112738161081,90.7088588918616,0.0
973,-2.498902537732068,-1.1099696985834824,90.59437290396839,0.0
974,-2.38998118948586,-1.0185056618612225,90.47924430714521,0.0
975,-2.248632270114021,-0.8925501935258346,90.36354507784938,0.0
976,-2.0892033615284364,-0.7430929273559552,90.24734652233712,0.0
977,-1.9249754134384276,-0.5817356342900204,90.13071927050747,0.0
978,-1.7665277151364474,-0.4192972494644721,90.01373327091457,0.0
979,-1.620981273964422,-0.26477617367125106,89.89645778692183,0.0
980,-1.4920896591580393,-0.12477419728807271,89.77896139397095,0.0
981,-1.380958254255402,-0.003378810213527955,89.66131197793852,0.0
982,-1.287066322029012,0.09758763371328938,89.54357673455345,0.0
983,-1.209255175798763,0.1780951311933236,89.42582216984762,0.0
984,-1.146422482258182,0.23936206918249286,89.3081141016135,0.0
985,-1.0977980441059039,0.28336472591282685,89.19051766184168,0.0
986,-1.0628265110777428,0.3124738970029992,89.07309730011183,0.0
987,-1.0408027820660042,0.3292356559086179,88.955916787911,0.0
988,-1.030464862625846,0.3362669029708723,88.83903922385372,0.0
989,-1.0297359806466966,0.3362107440531518,88.72252703977813,0.0
990,-1.035734045047753,0.331694782499167,88.60644200769386,0.0
991,-1.0450609495859196,0.3252528644230528,88.49084524755648,0.0
992,-1.0542845946050865,0.31919862173681895,88.3757972358457,0.0
993,-1.0604666878313422,0.3154667938754017,88.26135781492339,0.0
994,-1.0615862926717121,0.3154570938648855,88.1475862031492,0.0
995,-1.056756450153791,0.3199206928228907,88.03454100573214,0.0
996,-1.046204376666342,0.32892132685416353,87.92228022629618,0.0
997,-1.0310546938632887,0.3418855551064848,87.81086127914071,0.0
998,-1.0129976899685567,0.35773583907953505,87.70034100217501,0.0
999,-0.9939334328037172,0.37508187648905833,87.59077567050879,0.0
1000,-0.9756643906297338,0.3924343668106247,87.48222101068035,0.0
1001,-0.9596783383809846,0.4084030098825247,87.37473221550545,0.0
1002,-0.9470333900183452,0.4218465237767165,87.26836395953065,0.0
1003,-0.9383356352184085,0.43195452473496354,87.16317041507548,0.0
1004,-0.9337883001928478,0.4382560868643406,87.05920526884951,0.0
1005,-0.933287628255246,0.440564509980057,86.95652173913044,1.0
1006,-0.9365425941874858,0.4388796332157149,86.85274614318124,0.0
1007,-0.9432008355358081,0.4332761187870793,86.74557664666949,0.0
1008,-0.9529680081313993,0.4238075318901746,86.63517344837818,0.0
1009,-0.9657077218451984,0.4104515979555468,86.52169605527963,0.0
1010,-0.9815033337132486,0.393112330521291,86.40530317520984,0.0
1011,-1.0006568193591228,0.3716811884841065,86.2861526157421,0.0
1012,-1.0236032948572307,0.3461442693329818,86.16440118923829,0.0
1013,-1.050738524793774,0.31670874432832474,86.04020462404068,0.0
1014,-1.0821875208272869,0.2839126327781418,85.91371748175477,0.0
1015,-1.1175732398463025,0.24868061065179026,85.78509308055999,0.0
1016,-1.15586137426651,0.21229663573123683,85.65448342447405,0.0
1017,-1.1953505971392333,0.17628144896145548,85.52203913848655,0.0
1018,-1.2338459115962477,0.142186650537183,85.38790940946647,0.0
1019,-1.2690035363943912,0.11134190340255945,85.25224193274181,0.0
1020,-1.2987833802048714,0.08461138309538646,85.11518286423923,0.0
1021,-1.3219055429118411,0.06222356344162072,84.97687677806753,0.0
1022,-1.3381920450987894,0.04373047372260372,84.8374666294209,0.0
1023,-1.3486883430394097,0.028127878146103263,84.69709372267378,0.0
1024,-1.3554991895397492,0.014129974683952023,84.55589768453535,0.0
1025,-1.3613348191772647,0.0005489402073958205,84.41401644212733,0.0
1026,-1.368838046951966,-0.013308409157165246,84.2715862058471,0.0
1027,-1.379836631437234,-0.02733622016057996,84.12874145687579,0.0
1028,-1.3947171041601834,-0.0405231871718498,83.98561493919009,0.0
1029,-1.4121235603894784,-0.05111709005285878,83.84233765593595,0.0
1030,-1.4291341330877625,-0.05707468154471179,83.69903887002226,0.0
1031,-1.4419630656899378,-0.056737647389813364,83.5558461087938,0.0
1032,-1.4470990749877406,-0.04960322660875069,83.41288517264331,0.0
1033,-1.442653216174701,-0.03700660490354446,83.27028014742528,0.0
1034,-1.4295862634849315,-0.02251830819068755,83.12815342053516,0.0
1035,-1.4124480072725314,-0.01189337874225728,82.98662570052136,0.0
1036,-1.3993123593475816,-0.012489125317489233,82.84581604010012,0.0
1037,-1.400741340891433,-0.03218144196272947,82.70584186244686,0.0
1038,-1.4278417718225602,-0.07793226390143942,82.56681899064147,0.0
1039,-1.4897432755032816,-0.1542631812172741,82.42886168014932,0.0
1040,-1.591050680670665,-0.2619446142172834,82.29208265422439,0.0
1041,-1.7299264507153487,-0.3971976469473172,82.15659314212516,0.0
1042,-1.8973810173977907,-0.5516234336429002,82.02250292003977,0.0
1043,-2.0780851742630735,-0.7129376514815773,81.88992035462134,0.0
1044,-2.2526303137516166,-0.8664246192446078,81.7589524490406,0.0
1045,-2.400765476552245,-0.9968753171820021,81.62970489146838,0.0
1046,-2.504866467307102,-1.090671572402913,81.5022821059058,0.0
1047,-2.552835979458339,-1.1376493133827152,81.37678730528752,0.0
1048,-2.53981162343907,-1.1324229042205034,81.25332254678763,0.0
1049,-2.468403639055603,-1.0749663704134413,81.13198878926598,0.0
1050,-2.3475742023777757,-0.9703967722240099,81.01288595279784,0.0
1051,-2.1905803410795657,-0.8280542280166316,80.89611298023716,0.0
1052,-2.012551092546846,-0.6600893385578529,80.78176790077006,0.0
1053,-1.8282422685838062,-0.4798304013765109,80.66994789542213,0.0
1054,-1.6503534411713605,-0.30020363709362347,80.56074936449019,0.0
1055,-1.4885748950031799,-0.1324284480120479,80.45426799687603,0.0
1056,-1.3493279712215236,0.01487415506691575,80.35059884130689,0.0
1057,-1.2360196548219162,0.13611496225642472,80.24983637943492,0.0
1058,-1.1495737716465115,0.2287481934139644,80.15207460081531,0.0
1059,-1.0890231421698362,0.29295341969999755,80.05740707976986,0.0
1060,-1.0520239314909665,0.3311049381849063,79.96592705415138,0.0
1061,-1.0352469435125033,0.34714349827911156,79.8777275060314,0.0
1062,-1.0346741103627917,0.34594427137918565,79.79290124434232,0.0
1063,-1.0458605736331295,0.332745565230118,79.71154098951277,0.0
1064,-1.0642130274877148,0.31267397736420066,79.63373946014411,0.0
1065,-1.0852994520068864,0.29037910887391694,79.55958946178421,0.0
1066,-1.10516650434893,0.26977653532894363,79.4891839778636,0.0
1067,-1.1206171830530463,0.2538904296137726,79.42261626286857,0.0
1068,-1.129400946791139,0.2447845074352857,79.35997993783502,0.0
1069,-1.1302877315985367,0.2435691714221388,79.30136908825669,0.0
1070,-1.1230250523756873,0.25047206138589534,79.24687836451189,0.0
1071,-1.1082011524791915,0.2649580408733589,79.19660308492308,0.0
1072,-1.0870493772744152,0.2858832845790327,79.15063934157467,0.0
1073,-1.0612294147470314,0.3116673599139282,79.10908410902631,0.0
1074,-1.0326148535365796,0.3404677445079278,79.07203535607046,0.0
1075,-1.0031090636491033,0.3703433962544522,79.0395921606957,0.0
1076,-0.9745046443241165,0.3993975463209023,79.01185482843081,0.0
1077,-0.9483941034879078,0.42589409536232625,78.98892501425803,0.0
1078,-0.9261292574463319,0.44834589645234735,78.97090584829878,0.0
1079,-0.9088152702434129,0.4655759238903383,78.95790206549049,0.0
1080,-0.8973170003387856,0.47675337496302805,78.95002013948954,0.0
1081,-0.8922556941426419,0.48140627114280843,78.94736842105263,1.0
1082,-0.8939846457109755,0.4794108968415296,78.95122366905905,0.0
1083,-0.902549038936894,0.470957635999709,78.96265469217502,0.0
1084,-0.9176500461974518,0.4564936192932392,78.98146250418124,0.0
1085,-0.9386396579083275,0.43664571923252754,79.00745194375715,0.0
1086,-0.9645681343062651,0.41213251475248863,79.04043130958125,0.0
1087,-0.9942918385995261,0.38367949365102316,79.08021200961528,0.0
1088,-1.026629066154984,0.35195574439431365,79.12660822364515,0.0
1089,-1.0605304009806922,0.31755028193951296,79.17943657823076,0.0
1090,-1.0952153277057801,0.28100018414159533,79.2385158332929,0.0
1091,-1.130226335199124,0.242870608664786,79.30366657963545,0.0
1092,-1.1653699405636648,0.2038702681304922,79.37471094676796,0.0
1093,-1.2005475580953986,0.16496883945186155,79.45147232045535,0.0
1094,-1.2355175516857093,0.12747020760525513,79.53377506948179,0.0
1095,-1.269661168998215,0.09299264618712896,79.6214442811713,0.0
1096,-1.301840767804312,0.06331782330470045,79.71430550526098,0.0
1097,-1.3304340905846186,0.040095766565569735,79.81218450577447,0.0
1098,-1.3536004334468998,0.02442959118964838,79.91490702059129,0.0
1099,-1.3697826795244734,0.016404852194034758,80.02229852845542,0.0
1100,-1.3783786910351246,0.014663786653427074,80.13418402321061,0.0
1101,-1.3804410483702114,0.016143504560413108,80.25038779509457,0.0
1102,-1.3792073886598044,0.01609030671594122,80.37073321896516,0.0
1103,-1.3802473880195365,0.00842553595408932,80.4950425493738,0.0
1104,-1.391053779941743,-0.01352544008115375,80.62313672243958,0.0
1105,-1.4200093413418464,-0.05600971736627175,80.75483516451713,0.0
1106,-1.474818091545362,-0.12367694854913075,80.88995560768853,0.0
1107,-1.5606643089001684,-0.21847004222422967,81.02831391214589,0.0
1108,-1.6785056290460771,-0.33880376000921886,81.16972389556716,0.0
1109,-1.8239590627535642,-0.47922966458102734,81.31399716962248,0.0
1110,-1.9871610495121206,-0.6307087129920057,81.46094298378212,0.0
1111,-2.1537744096036286,-0.7815007157270967,81.61036807663001,0.0
1112,-2.3070258006547273,-0.9185565935187909,81.76207653491926,0.0
1113,-2.4303743761604912,-1.0291932945451219,81.91586966063653,0.0
1114,-2.5102292468658773,-1.1027681388251342,82.07154584637279,0.0
1115,-2.5381119819365474,-1.1320652071626465,82.22890045932623,0.0
1116,-2.5118066123435567,-1.1141627920077466,82.38772573429158,0.0
1117,-2.435303788469372,-1.050654515009128,82.54781067601564,0.0
1118,-2.317645143097652,-0.947222781553839,82.70894097132435,0.0
1119,-2.1710226472634764,-0.8126824520012421,82.8708989114499,0.0
1120,-2.008621972788916,-0.6576987831008819,83.03346332500755,0.0
1121,-1.8426925419794684,-0.49342035334220613,83.1964095220926,0.0
1122,-1.6831971353758894,-0.33025156901172886,83.35950924998404,0.0
1123,-1.537193162008014,-0.17693009604459775,83.52253066095784,0.0
1124,-1.4088932447589577,-0.03999099307569351,83.68523829272524,0.0
1125,-1.3002015323408673,0.07638637105592036,83.84739306202128,0.0
1126,-1.2114539616230873,0.17022080937282963,84.008752271876,0.0
1127,-1.1421065441885545,0.2413719855131109,84.16906963310483,0.0
1128,-1.0911961330049376,0.2910999197888906,84.3280953005547,0.0
1129,-1.0575123798239485,0.32163684991464186,84.48557592463973,0.0
1130,-1.039532368180648,0.3358301429490349,84.6412547186927,0.0
1131,-1.0352472625191225,0.3368755178678669,84.79487154264723,0.0
1132,-1.0420310905200378,0.3281286936020146,84.9461630035504,0.0
1133,-1.0566634683514733,0.31296686683651853,85.0948625733842,0.0
1134,-1.0755408566373366,0.2946697399131524,85.24070072464974,0.0
1135,-1.0950290172871049,0.27629922430382725,85.38340508413718,0.0
1136,-1.111855853069354,0.26057119276410257,85.52270060526901,0.0
1137,-1.1234364717692473,0.2497256950599399,85.6583097593631,0.0
1138,-1.1280574128123197,0.24540994561436658,85.78995274611486,0.0
1139,-1.1249039033952153,0.24859006373180048,85.91734772354614,0.0
1140,-1.1139666054954203,0.25950436640772584,86.04021105760937,0.0
1141,-1.0958925280334677,0.2776655645221375,86.15825759157212,0.0
1142,-1.0718417810460517,0.30191390124606926,86.27120093523656,0.0
1143,-1.0433845029919393,0.33051934167112823,86.3787537739737,0.0
1144,-1.0124358059974574,0.361328212429126,86.48062819746943,0.0
1145,-0.9811969318335412,0.3919470983140693,86.57653604799404,0.0
1146,-0.9520591541535167,0.4199531696932011,86.66618928791348,0.0
1147,-0.927437410440015,0.4431150766613373,86.74930038606426,0.0
1148,-0.9095298347886449,0.4596029842851327,86.82558272251146,0.0
1149,-0.9000368567267711,0.46816220674682507,86.89475101110396,0.0
1150,-0.8999042080980528,0.468224580825023,86.95652173913044,1.0
1151,-0.9091636622036916,0.45993696713482,87.01448823812318,0.0
1152,-0.9269268824430082,0.44409740238967027,87.07241619465954,0.0
1153,-0.9515466651660803,0.42200492916469284,87.1302821379973,0.0
1154,-0.9809119584492368,0.3952458756028363,87.18806247388807,0.0
1155,-1.0128073173139147,0.365453399074982,87.24573348477189,0.0
1156,-1.045256371284933,0.3340847386594849,87.30327133010185,0.0
1157,-1.0767823116571467,0.3022593641785571,87.36065204680104,0.0
1158,-1.1065456448989388,0.2706904522545117,87.41785154985287,0.0
1159,-1.1343476106025991,0.23972328638086143,87.47484563302723,0.0
1160,-1.1605095736398363,0.20947048389106887,87.53160996974333,0.0
1161,-1.1856545583364275,0.18000987704774427,87.58812011407201,0.0
1162,-1.2104301284796504,0.15159146982801608,87.64435150187806,0.0
1163,-1.2352235067341621,0.12478998802569997,87.70027945210512,0.0
1164,-1.2599288163477842,0.1005428783349504,87.75587916820426,0.0
1165,-1.283830078221036,0.08003193254195548,87.8111257397082,0.0
1166,-1.305659057602846,0.06439892956209886,87.86599414395249,0.0
1167,-1.3238695097924817,0.05432735878825026,87.92045924794519,0.0
1168,-1.3371327476814783,0.04956566699180881,87.97449581038697,0.0
1169,-1.3450008894056584,0.0485024063747963,88.02807848384239,0.0
1170,-1.3486105824267591,0.047919462859461,88.08118181706453,0.0
1171,-1.3512312416621448,0.04303765349109717,88.13378025747369,0.0
1172,-1.3584270687838176,0.02792592094694782,88.18584815379197,0.0
1173,-1.3776309944634635,-0.00372491559418911,88.23735975883461,0.0
1174,-1.4170390986556893,-0.057548166750503144,88.28828923245949,0.0
1175,-1.4839186735309864,-0.13733270641821066,88.33861064467587,0.0
1176,-1.5826396733760106,-0.24396131286351885,88.38829797891334,0.0
1177,-1.71291400477759,-0.3746891079575382,88.43732513545204,0.0
1178,-1.868777750600673,-0.5229534266488898,88.48566593501505,0.0
1179,-2.038726085155187,-0.6788148622384478,88.53329412252363,0.0
1180,-2.207122637630324,-0.8300057260476048,88.58018337101608,0.0
1181,-2.3566406752986806,-0.9634348311114633,88.62630728573109,0.0
1182,-2.471181726789037,-1.0668974599654648,88.67163940835577,0.0
1183,-2.538573905312218,-1.130691946704713,88.71615322143866,0.0
1184,-2.5524273320829227,-1.1488616752967253,88.75982215296882,0.0
1185,-2.512781634115486,-1.1198589477708674,88.8026195811201,0.0
1186,-2.425519398829527,-1.046545350382638,88.84451883916176,0.0
1187,-2.3008226431717267,-0.9355728478785841,88.88549322053451,0.0
1188,-2.1511323152981507,-0.7963007075702565,88.9255159840924,0.0
1189,-1.989105222966223,-0.639472250287445,88.96456035951019,0.0
1190,-1.8259701924821787,-0.4758913598987191,89.00259955285539,0.0
1191,-1.6705156280574875,-0.31530440961009154,89.03960675232506,0.0
1192,-1.5287512296316854,-0.16562294276171285,89.07555513414613,0.0
1193,-1.4041275124676071,-0.03253666555459811,89.11041786863873,0.0
1194,-1.2981008155871017,0.08051383982965896,89.14416812644133,0.0
1195,-1.2108086763808914,0.17209336300573336,89.17677908489682,0.0
1196,-1.14165948831881,0.24237341860324108,89.20822393459785,0.0
1197,-1.0897172155413901,0.2926917142762784,89.23847588609057,0.0
1198,-1.0538499855272647,0.3251561325833747,89.26750817673438,0.0
1199,-1.0326880469149422,0.34234078036159676,89.29529407771669,0.0
1200,-1.0244859549422536,0.3470824700241778,89.32180690122019,0.0
1201,-1.026997690035992,0.34235599640967995,89.3470200077407,0.0
1202,-1.03745229366206,0.3311910462192781,89.37090681355335,0.0
1203,-1.0526715003342844,0.31659308415008824,89.39344079832456,0.0
1204,-1.069317138869514,0.30144174440804744,89.41459551286718,0.0
1205,-1.08421380138315,0.2883575137311669,89.43434458703587,0.0
1206,-1.0946742859541587,0.2795448937418396,89.45266173775971,0.0
1207,-1.0987628655087909,0.2766331302943797,89.46952077720914,0.0
1208,-1.0954553563728726,0.2805415362660052,89.48489562109313,0.0
1209,-1.0846827066575628,0.2913952372687673,89.49876029708386,0.0
1210,-1.0672676108757717,0.3085103960594853,89.51108895336426,0.0
1211,-1.0447785031141237,0.3304580308863143,89.52185586729524,0.0
1212,-1.019332184090535,0.35520482240786044,89.53103545419765,0.0
1213,-0.9933751760193097,0.38031956053698573,89.53860227624531,0.0
1214,-0.9694648239715372,0.4032260302627556,89.54453105146419,0.0
1215,-0.9500574954847238,0.42147740489938856,89.54879666283281,0.0
1216,-0.9373004837814422,0.4330235539100431,89.55137416747937,0.0
1217,-0.9328244285752839,0.4364411729593006,89.55223880597015,1.0
1218,-0.937546627686821,0.4310977828450502,89.5484073013672,0.0
1219,-0.9515160368551864,0.41722519528204255,89.53705794563986,0.0
1220,-0.9738455286566656,0.39588667500800534,89.51841115181132,0.0
1221,-1.0027744378412269,0.3688347506939142,89.49269061186074,0.0
1222,-1.0358802577505664,0.33827235964235935,89.46012294151733,0.0
1223,-1.070418870641578,0.3065464893309848,89.42093733289634,0.0
1224,-1.103733186857081,0.2758176104155975,89.37536521575954,0.0
1225,-1.13364778080809,0.24775676084833387,89.32363992811631,0.0
1226,-1.1587715307050264,0.22332259747683209,89.26599639681525,0.0
1227,-1.1786571915742392,0.2026618605037845,89.2026708287102,0.0
1228,-1.1938014535187704,0.18515891452768454,89.13390041291963,0.0
1229,-1.2054963534387118,0.16963536639905666,89.05992303463442,0.0
1230,-1.2155572881705567,0.15467260508647776,88.98097700086689,0.0
1231,-1.2259594651669594,0.13900286244683757,88.8973007784738,0.0
1232,-1.2384226019893014,0.12189305110833594,88.80913274472728,0.0
1233,-1.2539979695627474,0.1034352355142188,88.71671095065209,0.0
1234,-1.2727297273211635,0.08466242572550013,88.62027289729419,0.0
1235,-1.293475819240368,0.06743093808313505,88.52005532503458,0.0
1236,-1.3139730567203531,0.054050354972205644,88.41629401601475,0.0
1237,-1.3312081644235128,0.04669472619902107,88.30922360969504,0.0
1238,-1.3421061653355362,0.0466854665308605,88.19907743152513,0.0
1239,-1.344470184986472,0.05378537756199808,88.0860873346671,0.0
1240,-1.338013459428557,0.06567095835540099,87.97048355467551,0.0
1241,-1.3252383968375179,0.07774507510884299,87.85249457700651,0.0
1242,-1.3118716257040823,0.08340800016297092,87.73234701719782,0.0
1243,-1.3065908160551263,0.07482426357999052,87.61026551353542,0.0
1244,-1.3198985141622048,0.04411819447038082,87.48647263199862,0.0
1245,-1.362203865516165,-0.015176153886164459,87.36118878325478,0.0
1246,-1.4414232921959698,-0.10666867573729655,87.23463215145712,0.0
1247,-1.5606312122208363,-0.22996422817665263,87.10701863458404,0.0
1248,-1.7163932446942847,-0.3800771421297299,86.97856179604565,0.0
1249,-1.8983302635472115,-0.5475836804259346,86.84947282727398,0.0
1250,-2.0901849587774977,-0.7195471975289291,86.71996052100562,0.0
1251,-2.2722635110483833,-0.881093307017262,86.59023125496074,0.0
1252,-2.424732861554252,-1.0173742395774032,86.4604889856198,0.0
1253,-2.531006032979971,-1.1155767333917685,86.33093525179855,0.0
1254,-2.580429886656959,-1.1666175095940403,86.20176918772363,0.0
1255,-2.569700319775265,-1.1662371180901283,86.07318754531406,0.0
1256,-2.5027869089766654,-1.115329695978268,85.94538472537971,0.0
1257,-2.389530476658481,-1.019501441690297,85.81855281745409,0.0
1258,-2.24337204122834,-0.8879972296860716,85.6928816479876,0.0
1259,-2.0788135596972355,-0.7322400344255471,85.56855883663734,0.0
1260,-1.9091853320511265,-0.564271537251005,85.44576986040082,0.0
1261,-1.7451309581657328,-0.3953610096074327,85.32469812535356,0.0
1262,-1.5939777314407704,-0.2349758674031965,85.2055250457647,0.0
1263,-1.4599125928282461,-0.09020486774744357,85.08843013037921,0.0
1264,-1.3446999862323878,0.03437871111958252,84.9735910756724,0.0
1265,-1.2486000588025779,0.13650752091267648,84.86118386589838,0.0
1266,-1.1711771926075394,0.21580143829330795,84.75138287977319,0.0
1267,-1.1117998092945058,0.27328006830976675,84.64436100365202,0.0
1268,-1.0697756871151152,0.31091700852078946,84.5402897510799,0.0
1269,-1.0441962799881859,0.33129804146841635,84.43933938861593,0.0
1270,-1.03364502883758,0.3373948430515304,84.34167906785356,0.0
1271,-1.035943307011827,0.33242673291325864,84.24747696358052,0.0
1272,-1.0480682265740522,0.3197633543108931,84.15690041804729,0.0
1273,-1.0663002838270963,0.3028220178378622,84.07011609133542,0.0
1274,-1.08657531692643,0.2849300104433605,83.98729011784386,0.0
1275,-1.104952037057539,0.2691462877158999,83.90858826893576,0.0
1276,-1.1180802613510814,0.25805996063135,83.83417612181734,0.0
1277,-1.1235676706561155,0.25359816226658793,83.76421923474665,0.0
1278,-1.1201824528768158,0.2568799556350331,83.69888332870019,0.0
1279,-1.1078764902565383,0.2681462632706416,83.638334475656,0.0
1280,-1.08765208385407,0.2867815088204052,83.58273929368232,0.0
1281,-1.0613172054804243,0.3114253265054954,83.53226514905565,0.0
1282,-1.0311819257247035,0.34015685744302465,83.48708036566457,0.0
1283,-0.9997474456264541,0.37072321532962654,83.44735444199411,0.0
1284,-0.9694322160868752,0.4007793402546853,83.41325827602141,0.0
1285,-0.9423671650782797,0.4281085540183117,83.38496439839483,0.0
1286,-0.9202746191296354,0.45080015447023714,83.36264721431027,0.0
1287,-0.9044263717318193,0.4673700325845338,83.34648325454297,0.0
1288,-0.8956605062845175,0.4768201919188921,83.33665143614064,0.0
1289,-0.8944281988981629,0.47864137102163734,83.33333333333334,1.0
1290,-0.9008426638251871,0.47276880227827606,83.33726659944723,0.0
1291,-0.9147120363020863,0.45950451777991524,83.34892464219442,0.0
1292,-0.9355532364901326,0.4394212208380818,83.36809787141105,0.0
1293,-0.9625993518820023,0.4132634123021611,83.39458044763798,0.0
1294,-0.9948225903827875,0.3818616239882895,83.42816991118507,0.0
1295,-1.0309938952237458,0.3460749298624012,83.46866682563065,0.0
1296,-1.0697878374933352,0.30677427112542455,83.51587443484999,0.0
1297,-1.1099198903626692,0.2648731051920731,83.5695983327476,0.0
1298,-1.150278612639601,0.22140150708314477,83.62964614494321,0.0
1299,-1.189997859442521,0.17760555310805218,83.69582722173257,0.0
1300,-1.228417286102478,0.1350381147910497,83.76795234171088,0.0
1301,-1.2649132154506317,0.09559469880000934,83.84583342550961,0.0
1302,-1.2986431588674232,0.06144450335526204,83.92928325915766,0.0
1303,-1.3283139797930745,0.034817658852732775,84.01811522663428,0.0
1304,-1.3521219836616996,0.01763707839051515,84.11214305123522,0.0
1305,-1.3679944121651744,0.011025059132582893,84.21118054542569,0.0
1306,-1.3741791787140005,0.014762743259064737,84.31504136890244,0.0
1307,-1.3701039036123277,0.026822165185076657,84.42353879463553,0.0
1308,-1.3572963274010983,0.04311157713671998,84.53648548270561,0.0
1309,-1.34007028332214,0.05756325088177486,84.65369326179649,0.0
1310,-1.325670103843735,0.06264401002752025,84.77497291824588,0.0
1311,-1.3236497631625572,0.05028721418967744,84.90013399259787,0.0
1312,-1.344435995453322,0.013146018275090224,85.02898458364065,0.0
1313,-1.3972544178332955,-0.05402554512116581,85.16133115995231,0.0
1314,-1.487825521079723,-0.15311943646542225,85.29697837901426,0.0
1315,-1.6163895282368614,-0.2818149053723056,85.43572891398908,0.0
1316,-1.7766289060379066,-0.43333032620029943,85.5773832882946,0.0
1317,-1.9558929182398472,-0.5968961753446869,85.72173971814051,0.0
1318,-2.1368154992455306,-0.7589202416787617,85.86859396322701,0.0
1319,-2.3000418284072692,-0.9046743961987862,86.01773918583744,0.0
1320,-2.427461836040591,-1.0202223395560308,86.1689658185874,0.0
1321,-2.5052010918552443,-1.0942567511489072,86.32206144112317,0.0
1322,-2.525694189296958,-1.1195344784965264,86.47681066609056,0.0
1323,-2.4884355207733604,-1.0936839051504292,86.63299503472201,0.0
1324,-2.399371345763306,-1.0192871802000814,86.79039292241646,0.0
1325,-2.2692403372707766,-0.9032796605766413,86.94877945470914,0.0
1326,-2.1113822444377335,-0.7558272428355657,87.10792643405227,0.0
1327,-1.939568445846155,-0.5889149326843091,87.26760227784607,0.0
1328,-1.7662849817609716,-0.41489650531828,87.42757196817968,0.0
1329,-1.601687855821943,-0.24521991000317214,87.58759701375601,0.0
1330,-1.4532332570553919,-0.08947246628326125,87.74743542448914,0.0
1331,-1.3258227873894515,0.04519396531837669,87.9068416992727,0.0
1332,-1.2222243970255668,0.15427348303059957,88.06556682742689,0.0
1333,-1.1435346678870801,0.2358207089411946,88.22335830433524,0.0
1334,-1.089519801144258,0.2901614783133578,88.37996016178496,0.0
1335,-1.0587804912841552,0.31948910796345503,88.53511301352205,0.0
1336,-1.0487911918099413,0.3274158235243958,88.68855411652673,0.0
1337,-1.055930208172113,0.3185230271833582,88.8400174485049,0.0
1338,-1.0756216901672284,0.2979318326514995,88.98923380207714,0.0
1339,-1.1026570544615844,0.270902190865987,89.13593089612871,0.0
1340,-1.1316792690203594,0.2424656129651869,89.27983350475998,0.0
1341,-1.1577381925419301,0.21709978455255305,89.42066360424928,0.0
1342,-1.1767912194342696,0.1984584014020163,89.55814053840668,0.0
1343,-1.1860416232241826,0.18917207169049108,89.6919812026587,0.0
1344,-1.184063627570622,0.19073396175607024,89.8219002471604,0.0
1345,-1.1707300884412588,0.20347731422194074,89.94761029918166,0.0
1346,-1.1470079124626826,0.22664310194806192,90.06882220495976,0.0
1347,-1.1147022996276503,0.2585274638377864,90.18524529114997,0.0
1348,-1.0762139481172628,0.2966920954179818,90.2965876459394,0.0
1349,-1.0343367315300454,0.3382170658037159,90.40255641981769,0.0
1350,-0.9920860365034716,0.37997408647935876,90.50285814592144,0.0
1351,-0.9525265542264133,0.41889806593626905,90.59719907978547,0.0
1352,-0.9185706986249289,0.45223515719309243,90.68528555824787,0.0
1353,-0.892741672814121,0.47774657220806,90.76682437716143,0.0
1354,-0.8769265958009582,0.49385012498789427,90.84152318746806,0.0
1355,-0.8721702225702065,0.4996869536976298,90.9090909090909,1.0
1356,-0.8785668919885505,0.4951097810405939,90.97305666562873,0.0
1357,-0.8952927412994517,0.4806007563736281,91.03712131701678,0.0
1358,-0.9207858089633811,0.45713922122572787,91.10125245938565,0.0
1359,-0.9530397734769442,0.42604935392771637,91.16541750549446,0.0
1360,-0.9899427793117921,0.388861090023237,91.22958368404791,0.0
1361,-1.0295787015198092,0.34721253383886164,91.29371803924677,0.0
1362,-1.070418895826916,0.30280797254723285,91.35778743057568,0.0
1363,-1.1113632467448051,0.2574250208384577,91.42175853283085,0.0
1364,-1.1516301804368378,0.21294237732910154,91.485597836392,0.0
1365,-1.1905369068671976,0.17134276424104694,91.54927164774153,0.0
1366,-1.2272472655723263,0.13464040339435912,91.61274609023484,0.0
1367,-1.2605894438564593,0.10469342079444406,91.6759871051248,0.0
1368,-1.2890507287200685,0.08288966135415746,91.7389604528444,0.0
1369,-1.3110306097656577,0.06973542966724293,91.80163171455058,0.0
1370,-1.3253708959639103,0.06442166300054264,91.86396629393307,0.0
1371,-1.332088091532621,0.06447855849093585,91.92592941929107,0.0
1372,-1.333130369098444,0.06564467974188141,91.98748614588179,0.0
1373,-1.332902527047893,0.06206014512322208,92.0486013585435,0.0
1374,-1.3382846224234795,0.04684256175130383,92.10923977459659,0.0
1375,-1.3579421101032414,0.013025125358310935,92.16936594702572,0.0
1376,-1.4008919744603217,-0.04525558571778185,92.22894426794609,0.0
1377,-1.4745191162497318,-0.1315167985744032,92.28793897235657,0.0
1378,-1.582462657564352,-0.24587529979652584,92.3463141421827,0.0
1379,-1.7229276776527083,-0.38442284699197427,92.40403371061235,0.0
1380,-1.887954845620561,-0.5392119888705164,92.46106146672622,0.0
1381,-2.0639793803932487,-0.6989234550939298,92.51736106042591,0.0
1382,-2.2336797914579054,-0.8501502239213353,92.57289600766177,0.0
1383,-2.3787586633274898,-0.9791025389259185,92.62762969596261,0.0
1384,-2.4830311901563946,-1.0734447054568932,92.68152539026917,0.0
1385,-2.5351103244451387,-1.1239421379504542,92.7345462390732,0.0
1386,-2.5300947022609264,-1.1256342710519363,92.78665528086353,0.0
1387,-2.469942601927492,-1.0783463577196457,92.83781545088077,0.0
1388,-2.3625600409093623,-0.9864866887410608,92.88798958818147,0.0
1389,-2.219938478654169,-0.858213177581532,92.93714044301278,0.0
1390,-2.0558629296153605,-0.704163183539171,92.98523068449849,0.0
1391,-1.883735016349131,-0.5360004461411845,93.03222290863627,0.0
1392,-1.7149323743179685,-0.3650346065952352,93.07807964660715,0.0
1393,-1.5579155374346687,-0.20111832146497577,93.12276337339632,0.0
1394,-1.4180736854186993,-0.05194232015726091,93.16623651672516,0.0
1395,-1.298134987340289,0.07724650427196972,93.20846146629412,0.0
1396,-1.19888529064952,0.18356206743242576,93.24940058333499,0.0
1397,-1.1199370987410922,0.26614393811811937,93.28901621047144,0.0
1398,-1.0603473101281473,0.3257019890198756,93.32727068188625,0.0
1399,-1.0189711045997674,0.36405872403537254,93.36412633379332,0.0
1400,-0.9945366399538679,0.3837696952188049,93.39954551521203,0.0
1401,-0.9855092828098776,0.3878552080380693,93.43349059904118,0.0
1402,-0.9898669699354017,0.3796331192280819,93.46592399343001,0.0
1403,-1.004919693959549,0.36261320509794454,93.49680815344222,0.0
1404,-1.027277389485921,0.34040328077613097,93.52610559300972,0.0
1405,-1.0530144956719896,0.31658528277676284,93.5537788971718,0.0
1406,-1.0780154393635515,0.29454059358567514,93.57979073459512,0.0
1407,-1.098432030373309,0.2772301289370563,93.60410387036968,0.0
1408,-1.1111543944602718,0.26695805378950105,93.62668117907523,0.0
1409,-1.114196332685177,0.26516219509775346,93.64748565811256,0.0
1410,-1.1069199537644843,0.272276131641391,93.66648044129344,0.0
1411,-1.0900626857301157,0.28769784007539684,93.68362881268229,0.0
1412,-1.065570097658444,0.30988082012004114,93.698894220683,0.0
1413,-1.0362712186293392,0.33654072687149195,93.71224029236312,0.0
1414,-1.0054553555718235,0.3649490418106928,93.72363084800745,0.0
1415,-0.9764205548095963,0.39226975835783895,93.7330299158929,0.0
1416,-0.952064260641805,0.4158883285104841,93.74040174727571,0.0
1417,-0.9345761964671041,0.43368504534217167,93.74571083158168,0.0
1418,-0.9252723279305003,0.4442164644195899,93.74892191178994,0.0
1419,-0.924579842250095,0.4467857013073817,93.75,1.0
1420,-0.9321527187067877,0.4414019542475812,93.74709244622268,0.0
1421,-0.9470739132007393,0.42864781033610083,93.73848772824294,0.0
1422,-0.9680902703910491,0.4094868447006799,93.7243642223263,0.0
1423,-0.9938321447149621,0.3850518100596033,93.70490208377817,0.0
1424,-1.022987372753045,0.3564545888871412,93.68028303979455,0.0
1425,-1.054420008364076,0.3246532788330849,93.65069018794925,0.0
1426,-1.0872385377720968,0.2904002284142577,93.61630780064307,0.0
1427,-1.1208204094532062,0.25427890370871375,93.57732113581,0.0
1428,-1.1547913706667277,0.216818909480633,93.53391625414436,0.0
1429,-1.1889485963823905,0.17865960304242048,93.48627984308455,0.0
1430,-1.2231180839909883,0.14071652637098778,93.43459904775904,0.0
1431,-1.2569564692208683,0.10429500253042968,93.37906130907388,0.0
1432,-1.2897413594030032,0.07109551902245884,93.31985420909167,0.0
1433,-1.3202275937490482,0.043068925739733005,93.2571653238284,0.0
1434,-1.346660929090376,0.0221068070440453,93.19118208356768,0.0
1435,-1.367022746990463,0.009591073251570797,93.1220916407687,0.0
1436,-1.379528081658477,0.005870380517493473,93.05008074562248,0.0
1437,-1.3833239656021896,0.00976962089167284,92.97533562928778,0.0
1438,-1.3792524809541409,0.0182611065739528,92.89804189481985,0.0
1439,-1.370474432667049,0.026422205153183373,92.81838441578535,0.0
1440,-1.3627194454813891,0.02776859617291122,92.73654724253925,0.0
1441,-1.3639586339574594,0.014986755953129788,92.6527135161245,0.0
1442,-1.3833978063614076,-0.01899610897592717,92.56706538973923,0.0
1443,-1.4298531833402945,-0.07975411008225364,92.47978395770333,0.0
1444,-1.5097643954261313,-0.17013449607721332,92.39104919184493,0.0
1445,-1.6252674054816347,-0.28930583124257103,92.3010398852151,0.0
1446,-1.772831260642471,-0.4323052766521853,92.20993360303085,0.0
1447,-1.9429072812686816,-0.5902301243239253,92.11790664073763,0.0
1448,-2.1208334888118743,-0.7511002330259716,92.02513398907608,0.0
1449,-2.2889211366038973,-0.9012834803081962,91.93178930603133,0.0
1450,-2.4293166438392544,-1.0272569510361167,91.83804489553944,0.0
1451,-2.526995486975633,-1.1174016323848028,91.7440716928213,0.0
1452,-2.5721933376803476,-1.163517101443928,91.65003925621272,0.0
1453,-2.561736168098404,-1.1617985722359485,91.55611576535777,0.0
1454,-2.499039764760404,-1.1131283109105543,91.46246802563189,0.0
1455,-2.392901412470043,-1.0226702575697764,91.36926147866289,0.0
1456,-2.255487398407016,-0.8988884009737845,91.2766602188188,0.0
1457,-2.1000537275651006,-0.7522067367119647,91.18482701553464,0.0
1458,-1.9389100736707603,-0.5935725703994323,91.09392334135332,0.0
1459,-1.7819880383596058,-0.4331708880611018,91.00410940556033,0.0
1460,-1.6361693607334271,-0.2794749399440118,90.91554419329708,0.0
1461,-1.505330695027238,-0.13872665873248058,90.82838551004339,0.0
1462,-1.3909141997278134,-0.014843800966424181,90.74279003136613,0.0
1463,-1.2927608804913118,0.09032955714054802,90.6589133578389,0.0
1464,-1.2099483368786574,0.17656150385623204,90.57691007504484,0.0
1465,-1.1414389284186752,0.24470422021402533,90.49693381858387,0.0
1466,-1.0864382239961519,0.29622266580978013,90.41913734401493,0.0
1467,-1.0444555641067745,0.33285929585646307,90.34367260167315,0.0
1468,-1.0151277935808767,0.35646094961404845,90.2706908163134,0.0
1469,-0.9979077197880327,0.3689454252088215,90.20034257154184,0.0
1470,-0.9917343271373172,0.3723516123291336,90.1327778990096,0.0
1471,-0.9947966634062827,0.368903941785814,90.06814637235462,0.0
1472,-1.004478223615019,0.3610294480172197,90.00659720589103,0.0
1473,-1.0175234858548778,0.3512892826849061,89.94827935805874,0.0
1474,-1.0304086541812685,0.34221822678536634,89.89334163966039,0.0
1475,-1.0398390346906785,0.3360966909638339,89.84193282692786,0.0
1476,-1.0432549832953673,0.33470201365828506,89.79420177947546,0.0
1477,-1.0392221468077039,0.3390945690354895,89.75029756321439,0.0
1478,-1.0276128725410683,0.3494881264053152,89.71036957831885,0.0
1479,-1.0095432383254084,0.365235703079841,89.67456769235295,0.0
1480,-0.9870941754838477,0.38493725193465345,89.64304237868622,0.0
1481,-0.9628952183697405,0.40665048089821265,89.61594486034421,0.0
1482,-0.9396720520294497,0.42816680587947165,89.59342725946271,0.0
1483,-0.9198513033078003,0.4473046966433788,89.5756427525343,0.0
1484,-0.9052853744941578,0.46217351894340936,89.56274573165976,0.0
1485,-0.8971207273776449,0.471370810722228,89.55489197204002,0.0
1486,-0.8957990016999576,0.47409135093329136,89.55223880597015,1.0
1487,-0.9011590928052634,0.47014332667223013,89.55223880597015,0.0
1488,-0.9125990376349165,0.4598817783641855,89.55223880597015,0.0
1489,-0.9292551382432552,0.4440799511510512,89.55223880597015,0.0
1490,-0.9501605946450679,0.42376441051717995,89.55223880597015,0.0
1491,-0.9743584908476917,0.4000403975032525,89.55223880597015,0.0
1492,-1.0009637524129227,0.37393138080470945,89.55223880597015,0.0
1493,-1.029189095825295,0.3462527432864295,89.55223880597015,0.0
1494,-1.0583609982859492,0.3175351305065581,89.55223880597015,0.0
1495,-1.0879470940370581,0.288008365359923,89.55223880597015,0.0
1496,-1.1175985197394962,0.2576512596488068,89.55223880597015,0.0
1497,-1.1471889794358188,0.22630497093264793,89.55223880597015,0.0
1498,-1.1768175496161726,0.1938369923002775,89.55223880597015,0.0
1499,-1.2067422101039196,0.16032988631994022,89.55223880597015,0.0
1500,-1.2372284440228523,0.1262556922983193,89.55223880597015,0.0
1501,-1.2683290276907384,0.09258740620876088,89.55223880597015,0.0
1502,-1.299648464337387,0.060797732974031043,89.55223880597015,0.0
1503,-1.3301752539312284,0.03270650401721312,89.55223880597015,0.0
1504,-1.3582744132119002,0.010163502130115493,89.55223880597015,0.0
1505,-1.3819138108793168,-0.005409018876946142,89.55223880597015,0.0
1506,-1.399150745016042,-0.013546397152355394,89.55223880597015,0.0
1507,-1.4088353179747093,-0.015237235116453529,89.55223880597015,0.0
1508,-1.4114047625817685,-0.013254566952419028,89.55223880597015,0.0
1509,-1.4095649223515472,-0.012196133279119226,89.55223880597015,0.0
1510,-1.4086077326612443,-0.018144062629707608,89.55223880597015,0.0
1511,-1.4161284379803976,-0.037922324529393564,89.55223880597015,0.0
1512,-1.4410076657905428,-0.07801904882251581,89.55223880597015,0.0
1513,-1.4917101760889009,-0.14333136634337043,89.55223880597015,0.0
1514,-1.5741845087214519,-0.23595963901345646,89.55223880597015,0.0
1515,-1.6898507246860375,-0.3543042586734854,89.55223880597015,0.0
1516,-1.834249916501371,-0.4926883168546017,89.55223880597015,0.0
1517,-1.9968383104887815,-0.6416435755289334,89.55223880597015,0.0
1518,-2.162141260149457,-0.7888707420790173,89.55223880597015,0.0
1519,-2.312111702512792,-0.9207459733234579,89.55223880597015,0.0
1520,-2.4291864670042167,-1.0241272146037823,89.55223880597015,0.0
1521,-2.4993247978946616,-1.0881461349152635,89.55223880597015,0.0
1522,-2.5143184962346155,-1.1056714843782198,89.55223880597015,0.0
1523,-2.4728763212936435,-1.0741976919594904,89.55223880597015,0.0
1524,-2.3803291638267794,-0.99603104174142,89.55223880597015,0.0
1525,-2.247160761678966,-0.8777851407878898,89.55223880597015,0.0
1526,-2.0868311115703397,-0.7293242140161419,89.55223880597015,0.0
1527,-1.9134606632080857,-0.5623790805790486,89.55223880597015,0.0
1528,-1.7398789777433459,-0.3890910103574293,89.55223880597015,0.0
1529,-1.5763592149984167,-0.22071297750685628,89.55223880597015,0.0
1530,-1.430130344754268,-0.06662986403012533,89.55223880597015,0.0
1531,-1.3055494659566407,0.06622880103775144,89.55223880597015,0.0
1532,-1.204676281112068,0.17359412877642338,89.55223880597015,0.0
1533,-1.1279476514532267,0.2537532513921252,89.55223880597015,0.0
1534,-1.0747041384810303,0.30723620861462186,89.55223880597015,0.0
1535,-1.0434463006242085,0.33639381429817466,89.55223880597015,0.0
1536,-1.0318462845153318,0.3449420034613979,89.55223880597015,0.0
1537,-1.0366530959934226,0.3375155624542973,89.55223880597015,0.0
1538,-1.0536679703683787,0.31924571183331046,89.55223880597015,0.0
1539,-1.0779234892482443,0.29536006548366955,89.55223880597015,0.0
1540,-1.1041041296025074,0.27080209938406374,89.55223880597015,0.0
1541,-1.1271418381655391,0.24987678061233703,89.55223880597015,0.0
1542,-1.142849056662236,0.23594238850412103,89.55223880597015,0.0
1543,-1.1484350308157039,0.23117841222827856,89.55223880597015,0.0
1544,-1.1427874579625128,0.23646061548950426,89.55223880597015,0.0
1545,-1.1264710457658285,0.25136547939802306,89.55223880597015,0.0
1546,-1.1014701103775428,0.27430943379257117,89.55223880597015,0.0
1547,-1.0707589013139591,0.30280809256862673,89.55223880597015,0.0
1548,-1.0378058283897162,0.3338222384844936,89.55223880597015,0.0
1549,-1.0061052330574445,0.3641446693301097,89.55223880597015,0.0
1550,-0.9787950273210112,0.3907773948133321,89.55223880597015,0.0
1551,-0.958379471738604,0.411252185901261,89.55223880597015,0.0
1552,-0.9465502752349989,0.4238577154743557,89.55223880597015,0.0
1553,-0.9440929834595357,0.42775131134147826,89.55223880597015,1.0
1554,-0.9508743337111093,0.42295035490607275,89.55514517443925,0.0
1555,-0.9659172374974272,0.41021544699110296,89.5637430108046,0.0
1556,-0.9875709521701502,0.3908526191043088,89.57785193442812,0.0
1557,-1.0137699168414962,0.3664731131784849,89.59729341509475,0.0
1558,-1.04235043019368,0.338754651921231,89.6218905552012,0.0
1559,-1.071371043109686,0.309246091854919,89.65146788045375,0.0
1560,-1.099371689874845,0.2792472072335687,89.68585113872105,0.0
1561,-1.125514334230731,0.24977790095821112,89.72486710672352,0.0
1562,-1.1495728786888342,0.22162903220848457,89.76834340427567,0.0
1563,-1.171775270539289,0.1954646814817466,89.81610831582918,0.0
1564,-1.192537652222394,0.17192849161069496,89.867990619096,0.0
1565,-1.2121620503257466,0.15170005430860428,89.92381942055924,0.0
1566,-1.2305896689214368,0.1354549039557444,89.98342399770793,0.0
1567,-1.2473048166735685,0.12370431910557167,90.04663364785777,0.0
1568,-1.2614628280592972,0.11652572583050397,90.11327754344516,0.0
1569,-1.2722653873202476,0.11323400797048087,90.18318459370596,0.0
1570,-1.2795331536474042,0.11207849709287529,90.25618331267343,0.0
1571,-1.2843439344791903,0.11006906979926243,90.33210169345122,0.0
1572,-1.2895388510703503,0.10302891279937829,90.41076708873885,0.0
1573,-1.2998758538615214,0.08593743256130615,90.49200609760588,0.0
1574,-1.3216514917970974,0.05356795487318469,90.57564445853136,0.0
1575,-1.3617257467329997,0.0013523829759836126,90.66150694874189,0.0
1576,-1.4260554861138155,-0.07366415129324833,90.74941728989924,0.0
1577,-1.518026553724895,-0.17196242999242273,90.83919806020462,0.0
1578,-1.6370087497076558,-0.29097466116964726,90.93067061300202,0.0
1579,-1.777578214794605,-0.4249523312908892,91.02365500197688,0.0
1580,-1.9297246783945934,-0.565354619938872,91.11796991306025,0.0
1581,-2.0801081780567623,-0.701732618684224,91.2134326031607,0.0
1582,-2.2141294016052746,-0.8229803726498279,91.30985884585738,0.0
1583,-2.3183365792033706,-0.9187439732169191,91.40706288419857,0.0
1584,-2.3825984519227146,-0.9807446682473591,91.5048573907586,0.0
1585,-2.401556889811703,-1.0037899355499635,91.6030534351145,0.0
1586,-2.375093739822593,-0.9863126028354314,91.70146045891076,0.0
1587,-2.3078177968462117,-0.930375222892978,91.79988625868585,0.0
1588,-2.2078092110112233,-0.8411809251480551,91.89813697663925,0.0
1589,-2.0849916423626844,-0.7262186581626824,91.99601709952009,0.0
1590,-1.9495216330635206,-0.59422213488434,92.0933294658207,0.0
1591,-1.810508520472937,-0.45413020323786446,92.18987528145838,0.0
1592,-1.6752434734748,-0.3142052759868229,92.28545414412773,0.0
1593,-1.5489649180703233,-0.18140838343407303,92.37986407650207,0.0
1594,-1.4350577840210859,-0.06106167397281559,92.47290156845955,0.0
1595,-1.3355025963613139,0.043231060020987394,92.56436162850152,0.0
1596,-1.2513691976547074,0.12947529780923156,92.65403784452404,0.0
1597,-1.1831854316454882,0.19707180281432224,92.74172245409329,0.0
1598,-1.131087816947415,0.2465715892117139,92.82720642436335,0.0
1599,-1.0947550891216926,0.27944774651697224,92.91027954176208,0.0
1600,-1.0732089878190667,0.2979007625271109,92.99073051155472,0.0
1601,-1.0646152381850793,0.3046878592300696,93.06834706737759,0.0
1602,-1.0662167651854244,0.30295302540521324,93.14291609081444,0.0
1603,-1.0744818640881517,0.29603514080737753,93.21422374106653,0.0
1604,-1.0854704940148117,0.2872441808055923,93.28205559474439,0.0
1605,-1.0953420914344187,0.27961387173028646,93.3461967957824,0.0
1606,-1.1008784916691274,0.2756561482990179,93.40643221545128,0.0
1607,-1.0998927623924315,0.2771524580860329,93.46254662241242,0.0
1608,-1.0914357375982398,0.2850164496846082,93.51432486272778,0.0
1609,-1.075776537854497,0.2992524303195811,93.56155204970456,0.0
1610,-1.0541952975766584,0.31901754596448534,93.60401376341976,0.0
1611,-1.0286653889592956,0.3427776396810412,93.6414962597317,0.0
1612,-1.001510322106333,0.36853164442297087,93.6737866885484,0.0
1613,-0.9751011167072811,0.3940701588343801,93.7006733210819,0.0
1614,-0.9516260196101403,0.4172315694524249,93.7219457857766,0.0
1615,-0.9329322136461168,0.4361230165878647,93.7373953125581,0.0
1616,-0.920421634921235,0.4492819068694871,93.74681498500459,0.0
1617,-0.9149840122885425,0.455764537269614,93.75,1.0
1618,-0.9169630998760236,0.455159965270773,93.74886578226922,0.0
1619,-0.9261646992933613,0.4475382135090826,93.74549170131851,0.0
1620,-0.941917930235383,0.4333511810847259,93.7399208471116,0.0
1621,-0.9631923751543814,0.41331121350912636,93.73219660218548,0.0
1622,-0.9887580777677821,0.3882750248699789,93.72236262161279,0.0
1623,-1.0173602758747358,0.359158482726637,93.71046281327439,0.0
1624,-1.0478722812705767,0.3269000213138459,93.69654131845525,0.0
1625,-1.0793913057107156,0.2924774674112143,93.6806424927765,0.0
1626,-1.1112532741149252,0.25696654793619345,93.66281088747562,0.0
1627,-1.1429609996854915,0.2216124854443739,93.6430912310462,0.0
1628,-1.174041785384692,0.18787320854318465,93.62152841124733,0.0
1629,-1.2038730949591256,0.1573884621817129,93.59816745749359,0.0
1630,-1.231536986293555,0.13183725791959477,93.57305352363353,0.0
1631,-1.2557811782643853,0.11266813953877514,93.54623187112635,0.0
1632,-1.2751659117235856,0.10072066265990648,93.51774785262397,0.0
1633,-1.288446409400574,0.09579626213196574,93.4876468959661,0.0
1634,-1.2951729530558682,0.09627271474315571,93.45597448859445,0.0
1635,-1.2963947381971292,0.09887732931250967,93.42277616239284,0.0
1636,-1.2952604311552471,0.09872960372636963,93.38809747895759,0.0
1637,-1.2972588275185957,0.08972879013738452,93.35198401530377,0.0
1638,-1.3098718385367827,0.06529757797801228,93.31448135001102,0.0
1639,-1.3415319895534705,0.019410737702616296,93.27563504981269,0.0
1640,-1.3999697647337928,-0.0522445864789754,93.23549065663141,0.0
1641,-1.490253206293704,-0.15119026299772603,93.19409367506353,0.0
1642,-1.6129919102608798,-0.2753918313827149,93.15148956031443,0.0
1643,-1.7632278756431643,-0.419003444655795,93.10772370658637,0.0
1644,-1.9304235092876618,-0.5727346144452982,93.06284143591974,0.0
1645,-2.0996947096650698,-0.7248299012099086,93.01688798748823,0.0
1646,-2.254097878678512,-0.8625243908931741,92.96990850734848,0.0
1647,-2.3774755044008105,-0.9737326571533071,92.92194803864324,0.0
1648,-2.457200641089414,-1.048673598653215,92.8730515122581,0.0
1649,-2.4861906148426556,-1.0811426974594478,92.82326373792992,0.0
1650,-2.4637677375555853,-1.0692151759126256,92.77262939580623,0.0
1651,-2.395253909912616,-1.0152806452249974,92.72119302845351,0.0
1652,-2.290497792794839,-0.9254436120481371,92.66899903331198,0.0
1653,-2.161763157125144,-0.8084430622462905,92.61609165559491,0.0
1654,-2.0215064139269794,-0.6743220316552088,92.56251498162968,0.0
1655,-1.880530731106064,-0.533100153307609,92.50831293263712,0.0
1656,-1.746847784006411,-0.3936688393553144,92.45352925894666,0.0
1657,-1.6253565868421433,-0.2630535916712132,92.39820753464313,0.0
1658,-1.518227692499641,-0.14609318111031142,92.34239115264208,0.0
1659,-1.4257227868187248,-0.04549543321269309,92.28612332018923,0.0
1660,-1.3471226334146056,0.03783589857353209,92.22944705478062,0.0
1661,-1.2814821569200963,0.10433811694938067,92.17240518049854,0.0
1662,-1.228048660539571,0.1553184052099708,92.1150403247596,0.0
1663,-1.1863191456906235,0.1925676844396865,92.05739491546984,0.0
1664,-1.1558291238325584,0.21810409870767458,91.99951117858275,0.0
1665,-1.1358285343338685,0.23404325533174006,91.94143113605544,0.0
1666,-1.1250032795565057,0.24255780564818238,91.88319660419778,0.0
1667,-1.1213561152353746,0.24587348445221896,91.8248491924105,0.0
1668,-1.1222917806247394,0.2462522821676944,91.7664303023066,0.0
1669,-1.1248826976147015,0.24593096265242773,91.70798112721177,0.0
1670,-1.1262415665089367,0.24700694430228176,91.64954265203856,0.0
1671,-1.1239053901293234,0.2512858166164385,91.59115565352951,0.0
1672,-1.116143036965613,0.2601196478846375,91.53286070086467,0.0
1673,-1.1021289632007585,0.27427006509586843,91.47469815662794,0.0
1674,-1.0819668611867939,0.2938253616464036,91.4167081781282,0.0
1675,-1.0565844105580269,0.31818949505043886,91.35893071907009,0.0
1676,-1.027542840937097,0.3461467459614619,91.3014055315696,0.0
1677,-0.9968090902775472,0.37599278256775104,91.24417216851027,0.0
1678,-0.9665284323532713,0.40571352876747113,91.18726998623524,0.0
1679,-0.9388203715702708,0.43318865405266244,91.13073814757055,0.0
1680,-0.9156082146044151,0.4563963639659835,91.07461562517601,0.0
1681,-0.8984862433169298,0.4735992142510094,91.01894120521864,0.0
1682,-0.888626067359231,0.4834953033462662,90.9637534913654,0.0
1683,-0.8867215969173757,0.4853240146784437,90.9090909090909,1.0
1684,-0.8929681629264828,0.47891963091662243,90.85337847838971,0.0
1685,-0.9070677424448494,0.46470946664528584,90.7950808561484,0.0
1686,-0.9282532140651041,0.44365611987825465,90.73429577511651,0.0
1687,-0.9553316654084413,0.41714683304898315,90.671120903448,0.0
1688,-0.9867561286970098,0.38683753343102034,90.60565379432335,0.0
1689,-1.0207394425784921,0.3544651467981243,90.53799183770555,0.0
1690,-1.0554178793903055,0.32164866424780303,90.46823221424283,0.0
1691,-1.0890562551289729,0.28970568185973977,90.39647185132547,0.0
1692,-1.1202664755261238,0.259514545190608,90.32280738130085,0.0
1693,-1.1481959920955203,0.23145054035587115,90.24733510184657,0.0
1694,-1.1726381711423894,0.20541617692794484,90.17015093849814,0.0
1695,-1.1940262732309097,0.18097030776428008,90.09135040932438,0.0
1696,-1.213295156317784,0.15754030914111833,90.01102859174043,0.0
1697,-1.231624137919486,0.1346793974612587,89.92928009144504,0.0
1698,-1.250102923885955,0.11231241944952794,89.84619901346645,0.0
1699,-1.269384369677151,0.09090364222371794,89.76187893529844,0.0
1700,-1.2894013853239872,0.07148391942986448,89.67641288210548,0.0
1701,-1.309230520924771,0.055494677247057506,89.58989330397402,0.0
1702,-1.3271785564729106,0.044441624940143185,89.50241205518503,0.0
1703,-1.3411427853882116,0.03939704075970503,89.41406037548091,0.0
1704,-1.3492426540103928,0.04043706724550057,89.32492887329828,0.0
1705,-1.350641012791712,0.046138123731802,89.23510751093691,0.0
1706,-1.346383660765813,0.053272430104939816,89.14468559163379,0.0
1707,-1.340015827629291,0.05682768601614491,89.05375174850987,0.0
1708,-1.33771757160911,0.05042716861377346,88.96239393535721,0.0
1709,-1.3477618618804497,0.027149241209540154,88.8706994192318,0.0
1710,-1.3792436989078163,-0.019346462299009992,88.7787547748186,0.0
1711,-1.4402316829732873,-0.09356454924721358,88.68664588053369,0.0
1712,-1.5357016194379198,-0.19702651845546665,88.59445791632865,0.0
1713,-1.6657538926769526,-0.32747611655492576,88.50227536316228,0.0
1714,-1.8246272673166524,-0.47863766470665314,88.41018200410417,0.0
1715,-2.000872004656468,-0.6406319655128521,88.31826092703587,0.0
1716,-2.178762541384122,-0.8010270960833247,88.2265945289147,0.0
1717,-2.340698167295975,-0.946370783781216,88.13526452156606,0.0
1718,-2.4700691141773508,-1.063947997486693,88.04435193897073,0.0
1719,-2.55394544782726,-1.1434569750287034,87.95393714601434,0.0
1720,-2.585009567437115,-1.1783116421394215,87.8640998486664,0.0
1721,-2.562365825756312,-1.1663547692658351,87.7749191055579,0.0
1722,-2.49114530616864,-1.109885859517334,87.68647334092705,0.0
1723,-2.381096324616119,-1.0150424284943917,87.59884035890371,0.0
1724,-2.2445490093833214,-0.8906924062488177,87.5120973591045,0.0
1725,-2.0942320533041374,-0.7470735186168651,87.42632095351136,0.0
1726,-1.9413948972243236,-0.5944384529652154,87.34158718460856,0.0
1727,-1.7945660700993802,-0.4419319163434894,87.2579715447531,0.0
1728,-1.6590951691869726,-0.29684974269812975,87.17554899675665,0.0
1729,-1.5374305984903287,-0.16433227522780494,87.094393995657,0.0
1730,-1.4299242579378213,-0.047448694242420736,87.01458051166031,0.0
1731,-1.3358608701741281,0.052442861997106405,86.93618205423549,0.0
1732,-1.2543984448947716,0.13520910801176506,86.85927169734522,0.0
1733,-1.1851744038842782,0.20147324764445496,86.78392210579909,0.0
1734,-1.1284584462373277,0.252269077542857,86.71020556271631,0.0
1735,-1.0848819690732057,0.28886389805548845,86.63819399808797,0.0
1736,-1.0549006346124477,0.31273663190858186,86.56795901843024,0.0
1737,-1.038213955516335,0.32565166700144044,86.49957193752199,0.0
1738,-1.03335701725309,0.32974724479356626,86.43310380822302,0.0
1739,-1.0376051314620556,0.3275622829844329,86.3686254553709,0.0
1740,-1.0472239751313817,0.32195258653640635,86.3062075097565,0.0
1741,-1.0579942506678335,0.3158865126416871,86.24592044318118,0.0
1742,-1.0658715230539808,0.31214943054093464,86.18783460460048,0.0
1743,-1.0676217087096183,0.31301527399044393,86.13202025736238,0.0
1744,-1.0612961402040324,0.3199555347369757,86.07854761754957,0.0
1745,-1.0464615450315826,0.33344962178478066,86.02748689343913,0.0
1746,-1.024161256877933,0.35293875978875394,85.97890832609498,0.0
1747,-0.9966392467212457,0.3769349720258544,85.93288223111115,0.0
1748,-0.9668981965049224,0.4032649793843967,85.88947904152765,0.0
1749,-0.9381826142133382,0.42940321902676437,85.84876935194245,0.0
1750,-0.9134790353027363,0.45283369184930394,85.81082396384761,0.0
1751,-0.8951123453492937,0.47137909012133045,85.77571393221945,0.0
1752,-0.884494996802932,0.4834467072062861,85.74351061339696,0.0
1753,-0.8820569678209613,0.4881605618918669,85.71428571428572,1.0
1754,-0.8873505634052987,0.48537301566729013,85.68663618478836,0.0
1755,-0.899290339262365,0.47557159362284396,85.65911619985017,0.0
1756,-0.9164629865284364,0.4597132049496258,85.63173358251295,0.0
1757,-0.937432897316993,0.4390256879296882,85.60449613662357,0.0
1758,-0.9609785842113606,0.41481500691745493,85.57741164711022,0.0
1759,-0.9862188036319358,0.3883071636622125,85.55048788027227,0.0
1760,-1.0126178547928826,0.36054030122289604,85.52373258408363,0.0
1761,-1.0398904786992589,0.33230867290861554,85.49715348850982,0.0
1762,-1.0678521997949213,0.30414984581258697,85.47075830583844,0.0
1763,-1.0962742959586624,0.2763620376383523,85.44455473102292,0.0
1764,-1.124797957527917,0.24904012590362212,85.41855044203977,0.0
1765,-1.1529386468746572,0.22212476746422344,85.3927531002589,0.0
1766,-1.180176067116914,0.19546580160329374,85.36717035082722,0.0
1767,-1.2060901631385417,0.16890479587101354,85.34180982306528,0.0
1768,-1.230482006545533,0.1423792485956574,85.31667913087699,0.0
1769,-1.2534181143577814,0.11604173811453777,85.29178587317239,0.0
1770,-1.275158840505979,0.09037317738166545,85.26713763430315,0.0
1771,-1.295970985296445,0.06625492696840557,85.24274198451133,0.0
1772,-1.3158718346678493,0.0449560589739994,85.21860648039049,0.0
1773,-1.3343933241175892,0.02799554035550983,85.19473866535998,0.0
1774,-1.3504771843332475,0.01685815363741161,85.17114607015185,0.0
1775,-1.3626037268396527,0.012577031148885448,85.14783621331037,0.0
1776,-1.3692124796958067,0.01523903629858589,85.1248166017044,0.0
1777,-1.3693932682389696,0.023511482160119446,85.1020947310523,0.0
1778,-1.3637228203648681,0.0343167878001393,85.07967808645952,0.0
1779,-1.35502008951619,0.04278333008504592,85.05757414296868,0.0
1780,-1.3487321781598174,0.04256837704541071,85.03579036612233,0.0
1781,-1.3526827206345065,0.02658320101410709,85.01433421253836,0.0
1782,-1.3760379261818907,-0.01193826867543564,84.99321313049774,0.0
1783,-1.4275574132063917,-0.07817836454908861,84.97243456054494,0.0
1784,-1.5134418116833603,-0.1745056140335603,84.952005936101,0.0
1785,-1.6352849525795945,-0.2995291177687009,84.93193468408897,0.0
1786,-1.78870552808852,-0.44766474508932896,84.91222822557195,0.0
1787,-1.9631256459264865,-0.6093583540483534,84.8928939764039,0.0
1788,-2.1428936354484764,-0.7719880972229283,84.87393934789277,0.0
1789,-2.309589636460534,-0.9213310570769023,84.85537174747638,0.0
1790,-2.445019256823531,-1.0433614989877609,84.83719857941104,0.0
1791,-2.53420572351445,-1.126077740381815,84.81942724547255,0.0
1792,-2.567700747034048,-1.1610489357130556,84.80206514567034,0.0
1793,-2.5427419324399967,-1.1444322970306504,84.78511967897397,0.0
1794,-2.463113897145491,-1.0773193696601568,84.7685982440526,0.0
1795,-2.337907290365133,-0.9653995805027784,84.7525082400274,0.0
1796,-2.1796076229159738,-0.8180497145808476,84.73685706723674,0.0
1797,-2.0020239075679234,-0.6470437508524256,84.7216521280145,0.0
1798,-1.818489782218869,-0.465114436793958,84.70690082748119,0.0
1799,-1.6405943018217615,-0.2845855629929972,84.69261057434849,0.0
1800,-1.4775034326628032,-0.1162433697193336,84.67878878173691,0.0
1801,-1.3357794836572578,0.03145490239601048,84.66544286800662,0.0
1802,-1.2195244995098025,0.1528083850132268,84.65258025760178,0.0
1803,-1.130664735138334,0.2449656130915614,84.64020838190844,0.0
1804,-1.069238556650608,0.3077473416379405,84.62833468012592,0.0
1805,-1.033624197741286,0.34327519428033015,84.61696660015195,0.0
1806,-1.0207197555852774,0.3554773177807267,84.60611159948168,0.0
1807,-1.0261408412236246,0.34952901630695443,84.59577714612058,0.0
1808,-1.0445145733296362,0.331272768703503,84.58597071951158,0.0
1809,-1.0699191969123294,0.306653090652379,84.57669981147629,0.0
1810,-1.0964593741794428,0.28119842853005705,84.56797192717072,0.0
1811,-1.1189023923592987,0.25958227948209456,84.55979458605549,0.0
1812,-1.1332566074295163,0.24529490028996012,84.55217532288079,0.0
1813,-1.137168696782707,0.24045152119773722,84.54512168868621,0.0
1814,-1.1300537929541694,0.24575119230114373,84.5386412518156,0.0
1815,-1.1129392560821265,0.2605833148423619,84.5327415989472,0.0
1816,-1.0880750664131456,0.28325998224663157,84.52743033613919,0.0
1817,-1.0584168239507892,0.31133599682278684,84.52271508989095,0.0
1818,-1.0271047370444002,0.3419688169188821,84.51860350822007,0.0
1819,-0.9970414544808548,0.3722698254519882,84.51510326175546,0.0
1820,-0.9706248104956092,0.3996058266230027,84.51222204484687,0.0
1821,-0.9496383299516746,0.42182304345886407,84.50996757669077,0.0
1822,-0.9352616593071883,0.4373814105375192,84.5083476024732,0.0
1823,-0.9281453430699573,0.4454010401271352,84.5073698945294,0.0
1824,-0.9284988770524121,0.4456329528529697,84.50704225352113,1.0
