,time,sample_rate,Red,Green,Blue
0,0.060321290955774334,74.97637109058313,1.2238827525940674,0.10706292595156151,-0.05002835936486029
1,0.06032117771807751,74.97637109058313,1.2248244115533478,0.10707171559225054,-0.049007605044097895
2,0.06032106595209903,74.97637109058313,1.2257173597057356,0.10708286692959908,-0.04823863883708002
3,0.06032095584710494,74.97637109058313,1.2264815213021334,0.10709608686880315,-0.04799857910410475
4,0.06032084743017877,74.97637109058313,1.2270697995086555,0.10710991995131605,-0.04849972010375716
5,0.06032074059535963,74.97637109058313,1.2274702070788517,0.10711987442541614,-0.04987549628902685
6,0.060320635141043535,74.97637109058313,1.227697667039514,0.1071178325482537,-0.05218128022754188
7,0.06032053080886372,74.97637109058313,1.227778907475552,0.10709310226409337,-0.05540535743110242
8,0.06032042731911808,74.97637109058313,1.2277394117689773,0.10703476033558991,-0.05948511489174907
9,0.06032032439975089,74.97637109058313,1.2275987346145594,0.10693536520002246,-0.06432229495551389
10,0.0603202218075059,74.97637109058313,1.2273724622542364,0.1067953882808065,-0.06979140704930346
11,0.06032011934112887,74.97637109058313,1.227073028395177,0.10662544987004645,-0.07573987429143839
12,0.060320016847379185,74.97637109058313,1.2267050430287212,0.10644362153085768,-0.08198513863616162
13,0.06031991422114772,74.97637109058313,1.2262609205347275,0.106269025400821,-0.08831700004484894
14,0.06031981140122068,74.97637109058313,1.2257255073683175,0.10611606966380621,-0.09450981286769516
15,0.06031970836324335,74.97637109058313,1.2250892020592574,0.1059921328262284,-0.10034337930430705
16,0.06031960511128962,74.97637109058313,1.2243598593761376,0.1058982179376172,-0.10562799792712861
17,0.060319501669196356,74.97637109058313,1.2235663774126149,0.10583121870248909,-0.11022671115901019
18,0.06031939807252799,74.97637109058313,1.2227568377867188,0.10578718767343043,-0.11406794123022859
19,0.06031929436174092,74.97637109058313,1.2219976651248803,0.10576467175551749,-0.11714715702080052
20,0.06031919057684738,74.97637109058313,1.2213738579693187,0.10576644614925215,-0.11952217534592893
21,0.06031908675365496,74.97637109058313,1.22098478592275,0.10579900055009546,-0.12130854430421895
22,0.06031898292148861,74.97637109058313,1.2209335988361603,0.10587070561019558,-0.12267977714510277
23,0.06031887910218879,74.97637109058313,1.2213156710433277,0.10598960131158376,-0.1238724263063627
24,0.06031877531011738,74.97637109058313,1.2222126716426065,0.10616131189650244,-0.12518912346341618
25,0.06031867155288331,74.97637109058313,1.223691381211362,0.10638759054670953,-0.12698886236739293
26,0.06031856783251348,74.97637109058313,1.2257997200678445,0.10666537968156738,-0.12965796622670842
27,0.06031846414682966,74.97637109058313,1.2285556039431753,0.1069856595229072,-0.13356427588678693
28,0.060318360490840855,74.97637109058313,1.2319320216491243,0.10733210918372262,-0.13900321750268083
29,0.060318256858012814,74.97637109058313,1.235843908946383,0.10768053491143852,-0.14614616565337224
30,0.06031815324132765,74.97637109058313,1.2401380391293266,0.10799958886568188,-0.1550009139868083
31,0.06031804963409122,74.97637109058313,1.2445843524827034,0.10825264606243476,-0.16538912807992076
32,0.060317946030482024,74.97637109058313,1.2488716942224283,0.10840109926348714,-0.17693886871657613
33,0.060317842425862044,74.97637109058313,1.2526173280411244,0.10840941504915555,-0.18909028053175853
34,0.06031773881688692,74.97637109058313,1.2553978073266512,0.10825099129698904,-0.20111972830366717
35,0.060317635201461633,74.97637109058313,1.256798588424454,0.10791300131947584,-0.21219248434354065
36,0.06031753157858936,74.97637109058313,1.256472001557374,0.10739941333169074,-0.22144934394222338
37,0.0603174279481582,74.97637109058313,1.2541940347016223,0.1067325247957586,-0.22811867805860794
38,0.060317324310703586,74.97637109058313,1.2499139067899054,0.10595320552377303,-0.23162840444105565
39,0.06031722066717605,74.97637109058313,1.2437891871163822,0.10511942581810252,-0.23168170775535774
40,0.06031711701873487,74.97637109058313,1.2361939284927514,0.10430227026064041,-0.22826674534092067
41,0.060317013366580165,74.97637109058313,1.2276881749103596,0.10357886462550664,-0.22159745134815478
42,0.06031690971182852,74.97637109058313,1.21895018105385,0.10302278936592216,-0.21201488183060235
43,0.0603168060554317,74.97637109058313,1.2106860867374563,0.1026935879172505,-0.1998920923783008
44,0.06031670239813417,74.97637109058313,1.2035348136842081,0.10262692438637327,-0.18557395033063726
45,0.06031659874046237,74.97637109058313,1.19798501098657,0.10282683474403481,-0.16936052864495618
46,0.06031649508273789,74.97637109058313,1.1943224216624677,0.10326258009983176,-0.15152251533387756
47,0.06031639142510653,74.97637109058313,1.1926219004966874,0.10387348784145119,-0.13232799306047083
48,0.06031628776757593,74.97637109058313,1.192780065955405,0.10458256796001486,-0.1120658260267089
49,0.06031618411005575,74.97637109058313,1.1945661728411727,0.10531382592569855,-0.09106313658242299
50,0.060316080452395955,74.97637109058313,1.1976720140560364,0.10600549650002755,-0.0697004291113332
51,0.0603159767944199,74.97637109058313,1.2017563363229875,0.10661545857888659,-0.04842591306964602
52,0.06031587313595068,74.97637109058313,1.2064808393992297,0.10712027881324473,-0.027763688858235748
53,0.06031576947683007,74.97637109058313,1.2115295575815055,0.1075108579975034,-0.008302399985892954
54,0.06031566581693022,74.97637109058313,1.2166101979311552,0.10778733548353944,0.009347917100177315
55,0.06031556215615927,74.97637109058313,1.221450612231958,0.1079555154684073,0.024626406050305378
56,0.06031545849446182,74.97637109058313,1.2258062449466234,0.10802573549930077,0.037096238000313767
57,0.06031535483181592,74.97637109058313,1.229480118721983,0.10801299714849731,0.04649848269342636
58,0.0603152511682276,74.97637109058313,1.2323437854555146,0.1079364337267961,0.05277308878912324
59,0.060315147503724326,74.97637109058313,1.2343479696987734,0.10781745459334531,0.05604786138214185
60,0.060315043838348265,74.97637109058313,1.2355186302223502,0.10767731685205993,0.05660222883308557
61,0.06031494017215001,74.97637109058313,1.2359405717872547,0.10753488806462749,0.054815989927871685
62,0.06031483650518324,74.97637109058313,1.235735099152795,0.10740454496832498,0.051114451110638386
63,0.06031473283750069,74.97637109058313,1.2350394030006757,0.10729428738612788,0.04591888115440046
64,0.060314629169151264,74.97637109058313,1.233992081573787,0.10720510380456622,0.039608176382676205
65,0.06031452550017836,74.97637109058313,1.2327233002624556,0.10713213925805404,0.032495164891173114
66,0.060314421830619254,74.97637109058313,1.2313456440195114,0.10706666597847322,0.024817987932776522
67,0.06031431816050516,74.97637109058313,1.2299448773913892,0.10699775323143534,0.016746036878306062
68,0.06031421448986185,74.97637109058313,1.2285741429200436,0.106913628958598,0.008400270364626301
69,0.06031411081871068,74.97637109058313,1.2272563938081849,0.10680352182216654,-0.00011575508028852254
70,0.06031400714706967,74.97637109058313,1.2259958199277967,0.10666076741521777,-0.008683664649106674
71,0.060313903474954716,74.97637109058313,1.2247927776791527,0.10648658520641655,-0.017148873958213573
72,0.060313799802380545,74.97637109058313,1.2236558895681158,0.10629227391097881,-0.02531851522038211
73,0.06031369612936162,74.97637109058313,1.2226095918352238,0.10609812022381139,-0.03297878692298329
74,0.060313592455912654,74.97637109058313,1.2216974674112235,0.10592931999306697,-0.03992518174678127
75,0.060313488782049125,74.97637109058313,1.2209782850091229,0.10581001760085798,-0.045997650841302695
76,0.06031338510778752,74.97637109058313,1.2205111379039237,0.10575689966514096,-0.05111074363336749
77,0.060313281433145356,74.97637109058313,1.2203345849701175,0.10577477964495541,-0.055266878611556124
78,0.06031317775814113,74.97637109058313,1.220452510619542,0.1058560290477753,-0.05854964495103112
79,0.0603130740827942,74.97637109058313,1.2208346150632032,0.10598336031358892,-0.06110864237654605
80,0.06031297040712463,74.97637109058313,1.2214271037215336,0.10613456362532944,-0.06314808232950148
81,0.060312866731152964,74.97637109058313,1.2221648847725997,0.10628821248713127,-0.06491769953838479
82,0.06031276305490011,74.97637109058313,1.222983403090198,0.10642879088554623,-0.06669785891099071
83,0.06031265937838709,74.97637109058313,1.2238330986736836,0.10654941147071247,-0.06877829279216181
84,0.060312555701634955,74.97637109058313,1.2246959381372926,0.10665170350233363,-0.0714373448282086
85,0.060312452024664676,74.97637109058313,1.2255984684001562,0.10674374370987912,-0.07492734720967065
86,0.06031234834749709,74.97637109058313,1.2266149812828615,0.10683711814197085,-0.07946634770400175
87,0.06031224467015287,74.97637109058313,1.2278572784661421,0.10694405372697952,-0.0852321874659877
88,0.06031214099265252,74.97637109058313,1.2294523755439313,0.10707484473385051,-0.09235513409130985
89,0.06031203731501638,74.97637109058313,1.231513192852524,0.10723494209750967,-0.1009092980797941
90,0.06031193363726464,74.97637109058313,1.2341070587891074,0.10742168862566055,-0.1109043027306253
91,0.0603118299594174,74.97637109058313,1.2372252678529758,0.10762214863889738,-0.12227434849895108
92,0.06031172628149463,74.97637109058313,1.2407587528922128,0.10781329675105522,-0.13486028315818485
93,0.06031162260351632,74.97637109058313,1.2444885302903381,0.10796425477208217,-0.148387421864658
94,0.06031151892550242,74.97637109058313,1.2480978656835193,0.10803981931489973,-0.16244829085483325
95,0.060311415247472855,74.97637109058313,1.2512044600073782,0.10800520026209275,-0.17649772893433782
96,0.060311311569447607,74.97637109058313,1.2534039484237522,0.10783176479407947,-0.18986612928732147
97,0.06031120789144664,74.97637109058313,1.2543172811504546,0.10750268846225336,-0.20179872046862501
98,0.06031110421348997,74.97637109058313,1.2536397142000388,0.10701736990012932,-0.2115250494510194
99,0.06031100053559766,74.97637109058313,1.2511910566820117,0.10639447131005597,-0.21835042605768298
100,0.060310896857789745,74.97637109058313,1.2469628119255518,0.10567359717703781,-0.2217482691905212
101,0.060310793180086336,74.97637109058313,1.2411492444475516,0.10491402273483771,-0.22142685236723703
102,0.06031068950250758,74.97637109058313,1.2341440765615912,0.10418837109498909,-0.21735145418286625
103,0.06031058582507361,74.97637109058313,1.2264930412481365,0.1035719901178216,-0.2097222190863509
104,0.060310482147804524,74.97637109058313,1.2188118634070761,0.10313139653278136,-0.1989243501373456
105,0.06031037847072047,74.97637109058313,1.2116937432949708,0.10291430899725222,-0.1854677486998539
106,0.06031027479384156,74.97637109058313,1.2056324019677538,0.10294252781832022,-0.16992557883446874
107,0.0603101711171879,74.97637109058313,1.200977172986063,0.1032089046617521,-0.15287879656755887
108,0.06031006744077963,74.97637109058313,1.1979189232847098,0.1036787374107623,-0.13487379813137335
109,0.06030996376463682,74.97637109058313,1.1964950268598182,0.10429496472103045,-0.11639512438446702
110,0.06030986008877961,74.97637109058313,1.196609026340506,0.10498720136276674,-0.09784967295662525
111,0.060309756413228104,74.97637109058313,1.1980670419986887,0.10568419948793999,-0.07956212096555462
112,0.0603096527380024,74.97637109058313,1.2006223901623243,0.10632597098908048,-0.06178740087654816
113,0.06030954906312262,74.97637109058313,1.204010209467231,0.10687071566154936,-0.04474196876631153
114,0.06030944538860888,74.97637109058313,1.2079620099322705,0.10729577986764581,-0.028643211644858512
115,0.060309341714481254,74.97637109058313,1.2122069715782748,0.10759509446904948,-0.013738550505333402
116,0.06030923804075987,74.97637109058313,1.2164754606899841,0.10777486300051396,-0.00030827600032871764
117,0.060309134367464816,74.97637109058313,1.2205134935719542,0.10784858104974426,0.011362705327003507
118,0.06030903069461618,74.97637109058313,1.2241038701580471,0.10783291269950074,0.021034086576670635
119,0.06030892702223407,74.97637109058313,1.2270843035915386,0.10774564853407421,0.028560043439065392
120,0.0603088233503386,74.97637109058313,1.229357381497784,0.10760562992967031,0.033920312060208284
121,0.06030871967894987,74.97637109058313,1.230892552262094,0.10743318525946448,0.03722331138659751
122,0.060308616008088,74.97637109058313,1.2317214423066263,0.10724958577110691,0.03868466288867074
123,0.06030851233777309,74.97637109058313,1.2319291082002695,0.10707546916148829,0.03859146044812798
124,0.060308408668025226,74.97637109058313,1.2316440758449838,0.10692916361108701,0.03726263893026701
125,0.06030830499886454,74.97637109058313,1.2310251238846763,0.10682514154972506,0.03501249403801485
126,0.06030820133031111,74.97637109058313,1.2302408490618155,0.10677226869643254,0.03212064036993487
127,0.06030809766238504,74.97637109058313,1.2294437808831087,0.1067722223270013,0.0288088310461325
128,0.06030799399510642,74.97637109058313,1.2287456944441049,0.10681875692574506,0.02522445522028027
129,0.060307890328495345,74.97637109058313,1.2282016093441057,0.10689798020184985,0.021433258793601025
130,0.06030778666257192,74.97637109058313,1.227808484848788,0.10698973755821414,0.017427284944101423
131,0.06030768299735628,74.97637109058313,1.2275187819542224,0.10707035666367055,0.013150759052355462
132,0.0603075793328685,74.97637109058313,1.2272623725144953,0.10711647641519996,0.008536711214473759
133,0.060307475669128696,74.97637109058313,1.2269693624974722,0.10710900253205587,0.003541377702848047
134,0.06030737200615696,74.97637109058313,1.2265888608381597,0.10703656580226813,-0.0018341824816605367
135,0.06030726834397337,74.97637109058313,1.226099989149122,0.10689877604393588,-0.007539293673548714
136,0.060307164682598044,74.97637109058313,1.2255136161072528,0.10670888726502496,-0.013481575063912711
137,0.06030706102205109,74.97637109058313,1.224866606424223,0.10649317702620661,-0.019539876692069295
138,0.06030695736235263,74.97637109058313,1.2242119420251207,0.1062846636576079,-0.02557840418057939
139,0.06030685370352275,74.97637109058313,1.2236086464586218,0.10611350016902225,-0.03146093295370948
140,0.060306750045581566,74.97637109058313,1.2231138331633797,0.10599956280358226,-0.03706278393843257
141,0.060306646388549184,74.97637109058313,1.222775682826583,0.10595012486297074,-0.04227850484392335
142,0.06030654273244573,74.97637109058313,1.2226265378883128,0.10596146571416701,-0.047024622959730096
143,0.06030643907729129,74.97637109058313,1.2226789435896146,0.10602218432146857,-0.051237910868343686
144,0.060306335423105956,74.97637109058313,1.2229274081260761,0.10611663044079742,-0.05487205701037966
145,0.06030623176990983,74.97637109058313,1.223353719357333,0.10622772667957857,-0.05789675135474953
146,0.060306128117723026,74.97637109058313,1.2239306422357328,0.1063394187033274,-0.060300473302032434
147,0.06030602446656562,74.97637109058313,1.2246220182685403,0.10643906316282885,-0.06209542100978107
148,0.060305920816457734,74.97637109058313,1.2253819381667108,0.10651913072643208,-0.06332274265051581
149,0.06030581716741947,74.97637109058313,1.2261561950728501,0.1065772343256213,-0.06405701967668233
150,0.060305713519470956,74.97637109058313,1.2268863179432428,0.10661456456576428,-0.06440831714342815
151,0.060305609872632296,74.97637109058313,1.227514967210327,0.10663412448526909,-0.06451821091732565
152,0.0603055062269236,74.97637109058313,1.2279926226970101,0.10663975244810463,-0.06454794003256556
153,0.06030540258236498,74.97637109058313,1.228285469815441,0.10663560759090851,-0.06466277031021085
154,0.06030529893897654,74.97637109058313,1.228382834971528,0.10662574108441478,-0.06501885796454572
155,0.06030519529677839,74.97637109058313,1.2283012687540966,0.10661386436412522,-0.06575491819535818
156,0.060305091655790635,74.97637109058313,1.2280821346106443,0.10660329016662937,-0.06698660879504188
157,0.06030498801603336,74.97637109058313,1.2277826300819616,0.10659689779567376,-0.06880048236935409
158,0.060304884377526645,74.97637109058313,1.2274644151347767,0.10659693284246151,-0.07124734158839768
159,0.06030478074029058,74.97637109058313,1.2271838822191918,0.10660444146681071,-0.07433812894883665
160,0.06030467710434524,74.97637109058313,1.226984715562621,0.1066186692802837,-0.07804376855287838
161,0.06030457346971075,74.97637109058313,1.2268917963988095,0.10663706221603554,-0.08229835647995097
162,0.060304469836407214,74.97637109058313,1.2269071819058548,0.10665578250236676,-0.08700816429147912
163,0.06030436620445475,74.97637109058313,1.2270106304683361,0.10667013486172208,-0.0920686560789537
164,0.06030426257387345,74.97637109058313,1.2271652045248977,0.10667481638544897,-0.09738312757306072
165,0.06030415894468343,74.97637109058313,1.2273246393930548,0.10666431815073314,-0.10287117675273799
166,0.0603040553169048,74.97637109058313,1.227438748566437,0.10663364111314065,-0.10846153390005994
167,0.060303951690557654,74.97637109058313,1.2274567656836708,0.10657938498314364,-0.1140753410252999
168,0.060303848065662094,74.97637109058313,1.227331639055666,0.10650120426157636,-0.11961283100342866
169,0.060303744442238245,74.97637109058313,1.2270275076148065,0.10640318689078854,-0.12495387091442378
170,0.060303640820306204,74.97637109058313,1.226528626427897,0.1062941573962857,-0.12997320803119006
171,0.06030353719988607,74.97637109058313,1.2258450170422404,0.10618619954501997,-0.13456279313006117
172,0.06030343358099795,74.97637109058313,1.225011958993257,0.10609191680755226,-0.13865249550695588
173,0.060303329963661945,74.97637109058313,1.2240854875443656,0.1060218413078147,-0.142224945315489
174,0.06030322634789815,74.97637109058313,1.2231388681325697,0.10598340232019769,-0.1453240234063381
175,0.06030312273372666,74.97637109058313,1.2222632960745556,0.10598203472980804,-0.14805693010082538
176,0.0603030191211676,74.97637109058313,1.221571677856777,0.10602329622347048,-0.1505905811899058
177,0.060302915510241084,74.97637109058313,1.2211998772127772,0.10611363748272283,-0.15314612525819526
178,0.06030281190096724,74.97637109058313,1.2212991463101763,0.10625852799203175,-0.15599484331742616
179,0.06030270829336618,74.97637109058313,1.2220180282094868,0.10645901565357306,-0.15945161069252145
180,0.060302604687457975,74.97637109058313,1.2234768322987444,0.10670879739506,-0.16385507075098885
181,0.0603025010832627,74.97637109058313,1.2257405416539584,0.10699302441744461,-0.16952567892749987
182,0.060302397480800435,74.97637109058313,1.2287978483894313,0.10728892990563771,-0.17670430010740473
183,0.06030229388009129,74.97637109058313,1.2325522443344465,0.10756786921465024,-0.1854843045638698
184,0.06030219028115539,74.97637109058313,1.236824802550976,0.10779831257499571,-0.195752341880675
185,0.06030208668401283,74.97637109058313,1.241361959226628,0.10794907569359471,-0.20715259201893563
186,0.060301983088683724,74.97637109058313,1.245842325526948,0.10799211548826447,-0.21908707723538584
187,0.06030187949518817,74.97637109058313,1.2498863795039545,0.1079054440309319,-0.23075566240782758
188,0.06030177590354627,74.97637109058313,1.2530802753509103,0.10767719659263966,-0.2412294680004631
189,0.06030167231377812,74.97637109058313,1.255019195844282,0.10730982734634344,-0.24954793403412104
190,0.06030156872590385,74.97637109058313,1.2553637636371031,0.10682151234234163,-0.25482839141358044
191,0.06030146513994357,74.97637109058313,1.2538980230022094,0.10624355371707578,-0.25637277342196035
192,0.06030136155591739,74.97637109058313,1.2505784025084261,0.10561583779434412,-0.25375228445871356
193,0.06030125797384543,74.97637109058313,1.24556038776847,0.10498250965389606,-0.24685265977380583
194,0.060301154393747766,74.97637109058313,1.2391886271086554,0.10438823384001365,-0.2358722031416415
195,0.06030105081564451,74.97637109058313,1.231949374522967,0.10387525601345046,-0.22127968614158722
196,0.06030094723955577,74.97637109058313,1.2244024306256496,0.1034813184558969,-0.2037493020530279
197,0.06030084366550167,74.97637109058313,1.2171133723887602,0.10323768619109655,-0.1840870812803682
198,0.060300740093502295,74.97637109058313,1.2105960983775126,0.10316702449366581,-0.16315610954316248
199,0.06030063652357774,74.97637109058313,1.205267152020662,0.10328138092737044,-0.14180665589184205
200,0.0603005329557481,74.97637109058313,1.2014141419738473,0.10358037658245217,-0.1208171735235855
201,0.06030042939003347,74.97637109058313,1.1991810563301426,0.10404980408364865,-0.10084913256267121
202,0.060300325826453956,74.97637109058313,1.1985673862830832,0.10466053366417345,-0.08241750466174948
203,0.060300222265029645,74.97637109058313,1.1994341825518764,0.1053676807838411,-0.06587994854755107
204,0.06030011870578063,74.97637109058313,1.201516675382411,0.10611170303059642,-0.051444402262068485
205,0.060300015148727036,74.97637109058313,1.2044543065755444,0.10682441032239334,-0.039185497920087325
206,0.060299911593888963,74.97637109058313,1.2078458014820748,0.10744048497179715,-0.029057098024922384
207,0.060299808041286505,74.97637109058313,1.2113155785959053,0.1079100915499648,-0.020898315508631506
208,0.06029970449093977,74.97637109058313,1.214565519476128,0.10820672841078179,-0.014441309582325187
209,0.060299600942868875,74.97637109058313,1.2173981675976542,0.10832860058225463,-0.009330680011006832
210,0.06029949739709392,74.97637109058313,1.219716060467199,0.10829532172702226,-0.00516100057767303
211,0.06029939385363502,74.97637109058313,1.2215084802780802,0.1081416556891181,-0.0015332745016542783
212,0.060299290312512265,74.97637109058313,1.222831488171654,0.1079096283546645,0.0018805181873055392
213,0.06029918677374576,74.97637109058313,1.2237813061325482,0.10764082001536865,0.005285984986695961
214,0.06029908323735561,74.97637109058313,1.2244636195881253,0.10737047294033791,0.008745744759647355
215,0.06029897970336191,74.97637109058313,1.2249688490224435,0.10712429474507928,0.012193348216706342
216,0.06029887617178478,74.97637109058313,1.2253636042397587,0.10691813117474264,0.015473114593460293
217,0.06029877264264434,74.97637109058313,1.2256969655176408,0.10675973463069888,0.01839008136387957
218,0.060298669115960685,74.97637109058313,1.2260099852369222,0.10665104129232598,0.02075255512027206
219,0.060298565591753915,74.97637109058313,1.2263389482041098,0.10658985376431505,0.022397681479580836
220,0.06029846207004411,74.97637109058313,1.226712227480901,0.1065709811923465,0.023202282947910782
221,0.060298358550851396,74.97637109058313,1.2271460524768296,0.1065870943985411,0.02308463586957135
222,0.06029825503419585,74.97637109058313,1.2276416612846175,0.10662915426505738,0.02199842346514338
223,0.0602981515200976,74.97637109058313,1.2281818950379906,0.10668631760162539,0.019918617707551066
224,0.06029804800857676,74.97637109058313,1.2287270910243273,0.10674581356632161,0.016825775343448052
225,0.06029794449965341,74.97637109058313,1.2292136402518141,0.10679380649509908,0.012703040188913472
226,0.060297840993347666,74.97637109058313,1.2295573312010806,0.10681763946411942,0.007554404741500807
227,0.060297737489679606,74.97637109058313,1.2296621622789607,0.10680842364922001,0.0014338457839133528
228,0.06029763398866935,74.97637109058313,1.2294374400359809,0.10676260518354837,-0.005534004399575553
229,0.06029753049033698,74.97637109058313,1.2288237559016224,0.10668229368006617,-0.013149420922820688
230,0.06029742699470261,74.97637109058313,1.2278189596639362,0.10657502661900069,-0.02114545976389863
231,0.060297323501786355,74.97637109058313,1.2264917091253484,0.10645328009461619,-0.02920678882323578
232,0.060297220011608324,74.97637109058313,1.224978298013688,0.10633350179216687,-0.03700238226973617
233,0.06029711652418861,74.97637109058313,1.223466050044418,0.1062345063498011,-0.04423037629456382
234,0.06029701303954735,74.97637109058313,1.2221669184459134,0.10617519815496991,-0.05066765605978749
235,0.060296909557704656,74.97637109058313,1.2212847277139747,0.1061716785825486,-0.05621558972372089
236,0.06029680607868063,74.97637109058313,1.2209836330703536,0.10623424721242312,-0.06093198152732176
237,0.06029670260249536,74.97637109058313,1.2213685874957767,0.1063652930547497,-0.06503842230452853
238,0.06029659912916893,74.97637109058313,1.2224831465547836,0.10655880355922584,-0.06889731322017918
239,0.060296495658721465,74.97637109058313,1.2243181722740115,0.106801257929255,-0.07296146961625016
240,0.06029639219117305,74.97637109058313,1.2268181943611132,0.10707301631102581,-0.07770641882149522
241,0.06029628872654377,74.97637109058313,1.2298778757791569,0.10734954586303008,-0.08355899581338942
242,0.06029618526485376,74.97637109058313,1.233333856367631,0.10760265558832231,-0.09083255268281927
243,0.06029608180612311,74.97637109058313,1.236963443839002,0.10780250648327243,-0.09967112919640018
244,0.06029597835037192,74.97637109058313,1.2404956945213002,0.10792085116251683,-0.11000168480510994
245,0.06029587489762029,74.97637109058313,1.243631830446758,0.1079353371957633,-0.12150072976275114
246,0.06029577144788833,74.97637109058313,1.2460701166210948,0.10783428065957956,-0.13359276797923247
247,0.060295668001196144,74.97637109058313,1.2475323909576315,0.10762026972807465,-0.1454991617271058
248,0.06029556455756385,74.97637109058313,1.24779030145553,0.10731018630399962,-0.15634102895609958
249,0.06029546111701157,74.97637109058313,1.2466902848147356,0.1069311106806301,-0.16527679040985171
250,0.060295357679559375,74.97637109058313,1.244177839655653,0.10651478952612228,-0.17164039142557522
251,0.060295254245227366,74.97637109058313,1.2403216688089649,0.1060942689299065,-0.17504741140250313
252,0.0602951508140356,74.97637109058313,1.2353334791829784,0.1057040965479417,-0.175444822368907
253,0.06029504738600419,74.97637109058313,1.2295676994095532,0.10538189247207613,-0.1730913327919263
254,0.06029494396115325,74.97637109058313,1.2234827381284126,0.10516716140884795,-0.16847474856414538
255,0.06029484053950291,74.97637109058313,1.2175690384052305,0.10509530910454477,-0.1621960166741761
256,0.060294737121073284,74.97637109058313,1.2122757037136482,0.10518867571504313,-0.15485912860703235
257,0.06029463370588446,74.97637109058313,1.2079609960187738,0.1054480819197506,-0.14699349188825103
258,0.060294530293956566,74.97637109058313,1.204864582324456,0.10584767949924626,-0.13901245137187723
259,0.060294426885309685,74.97637109058313,1.2030907684144956,0.10633497682729082,-0.1311969169768143
260,0.06029432347996392,74.97637109058313,1.2026086082457967,0.10683763945962177,-0.12369343712021516
261,0.060294220077939394,74.97637109058313,1.2032813188363314,0.10727690046037681,-0.11652479166484184
262,0.060294116679256216,74.97637109058313,1.204914483529272,0.10758333042329918,-0.10961728184932668
263,0.060294013283934494,74.97637109058313,1.2072919052346873,0.10770955730999172,-0.10284607271000377
264,0.060293909891994325,74.97637109058313,1.2101806973926281,0.10763818874337598,-0.09609025944308947
265,0.06029380650345581,74.97637109058313,1.2133184542764448,0.10738535077326114,-0.08927986305487506
266,0.06029370311833907,74.97637109058313,1.2164120345328406,0.10699871387321114,-0.08241620212865196
267,0.06029359973666419,74.97637109058313,1.2191690762526548,0.1065475513055344,-0.07555893803087127
268,0.06029349635845125,74.97637109058313,1.2213584110672644,0.10610501730438648,-0.0687896422923682
269,0.06029339298372035,74.97637109058313,1.2228675280138015,0.10572955155931969,-0.062171054735448865
270,0.06029328961249157,74.97637109058313,1.223722170655988,0.1054545036590148,-0.05572074527047086
271,0.060293186244785024,74.97637109058313,1.2240630138486466,0.10528794839174542,-0.049411480232581094
272,0.06029308288062082,74.97637109058313,1.2240980714455536,0.10521827755526776,-0.04319896198294179
273,0.06029297952001907,74.97637109058313,1.224047542349516,0.10522156579939013,-0.03706233722321388
274,0.060292876162999914,74.97637109058313,1.2240933964115326,0.10526870180096903,-0.031034459211428864
275,0.06029277280958344,74.97637109058313,1.224347721660715,0.10533123256149347,-0.025207148655189693
276,0.06029266945978976,74.97637109058313,1.224848248115456,0.10538562051736304,-0.019714707788631318
277,0.060292566113638986,74.97637109058313,1.2255754516465993,0.10541596607168251,-0.01470994039663373
278,0.06029246277115121,74.97637109058313,1.2264769162831812,0.10541535899139311,-0.010344584529059401
279,0.06029235943234653,74.97637109058313,1.2274868406046044,0.10538620283681778,-0.006757241431384104
280,0.060292256097245055,74.97637109058313,1.2285350761471105,0.10534001454374389,-0.004065552305371991
281,0.060292152765866885,74.97637109058313,1.2295466169163916,0.10529682270932077,-0.0023597441500109837
282,0.06029204943823212,74.97637109058313,1.2304376776096886,0.1052831520014618,-0.0016978298553289228
283,0.06029194611436087,74.97637109058313,1.2311155315636524,0.10532726812792262,-0.0021018660903968276
284,0.060291842794273236,74.97637109058313,1.2314869855079655,0.10545213613850138,-0.003551564841740799
285,0.060291739477989305,74.97637109058313,1.2314773001888422,0.10566835080175184,-0.005973671311054987
286,0.060291636165529176,74.97637109058313,1.2310549689990609,0.10596904532709388,-0.009233520911055627
287,0.06029153285691297,74.97637109058313,1.2302481939687184,0.10632861196452176,-0.01313958527456673
288,0.060291429552160804,74.97637109058313,1.2291404723363757,0.10670740343315548,-0.01746379844009368
289,0.060291326251292784,74.97637109058313,1.2278499344742893,0.10706164926846157,-0.021967928764852054
290,0.06029122295432903,74.97637109058313,1.2265051815802144,0.10735405572894847,-0.026425272818415627
291,0.060291119661289624,74.97637109058313,1.2252220943076484,0.10756127465223163,-0.030635336574948623
292,0.06029101637219466,74.97637109058313,1.224084840101139,0.10767683447127689,-0.034432643832191766
293,0.06029091308706424,74.97637109058313,1.2231399360159492,0.1077092018111853,-0.03768981746408373
294,0.06029080980591843,74.97637109058313,1.222406540133811,0.10767628913094522,-0.04031858036504642
295,0.06029070652877733,74.97637109058313,1.2218934193550284,0.10759949328971823,-0.042275839794954646
296,0.06029060325566104,74.97637109058313,1.2216090114702507,0.10749961965396458,-0.04357681329797491
297,0.06029049998658968,74.97637109058313,1.2215589541782417,0.10739454119302284,-0.04430877826189584
298,0.060290396721583386,74.97637109058313,1.2217363540175439,0.10729734590981306,-0.044636829319503794
299,0.06029029346066227,74.97637109058313,1.2221145081789417,0.10721467518987915,-0.044795438971137004
300,0.06029019020384643,74.97637109058313,1.2226479456791608,0.10714614274847102,-0.0450636431254688
301,0.060290086951155966,74.97637109058313,1.2232817714478703,0.1070860231375099,-0.04572846398326738
302,0.060289983702610975,74.97637109058313,1.223967417191504,0.10702735596567292,-0.047045930047057954
303,0.06028988045823154,74.97637109058313,1.2246828424765825,0.1069668275163492,-0.04920706089715197
304,0.06028977721803779,74.97637109058313,1.2254518504632244,0.1069081270933287,-0.05231500674779195
305,0.060289673982049825,74.97637109058313,1.2263515511490872,0.10686223096671583,-0.05638347427124147
306,0.060289570750287756,74.97637109058313,1.2274985459071113,0.10684417235851418,-0.061362664452265986
307,0.06028946752277169,74.97637109058313,1.2290170775203104,0.10686754676577079,-0.06718076922445813
308,0.06028936429952174,74.97637109058313,1.2310035825740986,0.10693951244981108,-0.0737761226048101
309,0.060289261080558015,74.97637109058313,1.233499526229098,0.1070582009438763,-0.08110417505157222
310,0.0602891578659006,74.97637109058313,1.2364726057285746,0.10721236128316189,-0.08912196264020221
311,0.06028905465556958,74.97637109058313,1.2398011029080303,0.10738246197804943,-0.09776217563321936
312,0.06028895144958508,74.97637109058313,1.2432638802810432,0.10754311436092974,-0.10690972324757793
313,0.06028884824796719,74.97637109058313,1.2465458022945242,0.10766673289238558,-0.11639160977993797
314,0.060288745050736024,74.97637109058313,1.2492631537152155,0.1077275888973155,-0.12598467056616952
315,0.06028864185791168,74.97637109058313,1.2510032529222221,0.10770536689338055,-0.13543635620939354
316,0.06028853866951426,74.97637109058313,1.2513711925299658,0.10758839363943327,-0.14448778201643714
317,0.06028843548556385,74.97637109058313,1.250044661391209,0.1073772466718652,-0.15289032387687146
318,0.06028833230608052,74.97637109058313,1.2468395050053194,0.10708862553159684,-0.1604154632423019
319,0.0602882291310844,74.97637109058313,1.241775806635239,0.10675786164157833,-0.16686242113769548
320,0.06028812596059558,74.97637109058313,1.235118137074883,0.10643721172773464,-0.17206275948292798
321,0.0602880227946342,74.97637109058313,1.2273623758635384,0.10618759899894017,-0.1758766192602927
322,0.0602879196332204,74.97637109058313,1.2191625767101846,0.10606468605318504,-0.1781832465358675
323,0.06028781647637428,74.97637109058313,1.211219421399448,0.10610383781262864,-0.17887758136287674
324,0.060287713324115935,74.97637109058313,1.2041658640680823,0.10630945243794127,-0.17787815174034097
325,0.06028761017646546,74.97637109058313,1.198484473927636,0.1066528116045776,-0.17513788200560557
326,0.06028750703344295,74.97637109058313,1.1944769184845836,0.10707956898321333,-0.17064939430733575
327,0.0602874038950685,74.97637109058313,1.1922769794114565,0.10752280978054322,-0.16444740901083146
328,0.06028730076136223,74.97637109058313,1.1918745407606812,0.10791564918791385,-0.15661438832040372
329,0.06028719763234425,74.97637109058313,1.193129047842646,0.10820061230143027,-0.14728876829908233
330,0.06028709450803465,74.97637109058313,1.1957891693398202,0.10833381423846769,-0.13666957226905668
331,0.06028699138845354,74.97637109058313,1.1995453185728242,0.10828171135096747,-0.1250136679823288
332,0.060286888273621005,74.97637109058313,1.2040989790836316,0.10801473712655225,-0.11262911325969048
333,0.06028678516355712,74.97637109058313,1.209200866118827,0.10750757047171076,-0.09986970536802457
334,0.06028668205828199,74.97637109058313,1.2146370739991053,0.10675027115707568,-0.08712675180939675
335,0.06028657895781573,74.97637109058313,1.2201857873850155,0.10576507973069213,-0.07480681599301262
336,0.060286475862178446,74.97637109058313,1.225580445642005,0.10461954227936845,-0.06329293329416574
337,0.060286372771390276,74.97637109058313,1.2305039093305297,0.10342744549488764,-0.05290137673627397
338,0.06028626968547131,74.97637109058313,1.2346183350219944,0.10233385670387965,-0.0438480828887902
339,0.06028616660444167,74.97637109058313,1.2376168192449173,0.10148877028001552,-0.03623200054835736
340,0.060286063528321485,74.97637109058313,1.2392780529556833,0.1010186067385214,-0.030038844024808855
341,0.06028596045713086,74.97637109058313,1.239511282555612,0.10100275340341035,-0.025164593703715658
342,0.06028585739088988,74.97637109058313,1.2383818432891491,0.1014583706018693,-0.021450412865169435
343,0.060285754329618635,74.97637109058313,1.236111325287209,0.10233383342797615,-0.018718012024390662
344,0.060285651273337224,74.97637109058313,1.2330524315286386,0.10351210372980854,-0.016797283482749004
345,0.060285548222065735,74.97637109058313,1.2296377497027209,0.10482932924640972,-0.01553933135971342
346,0.06028544517582425,74.97637109058313,1.2263059200745645,0.10610988266521088,-0.014812529510503877
347,0.06028534213463287,74.97637109058313,1.223427127203609,0.10720500687796838,-0.014490474015267853
348,0.06028523909851174,74.97637109058313,1.2212572713391794,0.10801696533183815,-0.014446394334424519
349,0.060285136067480954,74.97637109058313,1.2199310508523176,0.10850303600206111,-0.014560515796611242
350,0.060285033041560625,74.97637109058313,1.2194805383662355,0.10866719432712926,-0.014734952370161734
351,0.06028493002077084,74.97637109058313,1.219858203463615,0.10854867997915969,-0.014907377493415037
352,0.060284827005131714,74.97637109058313,1.2209519897802974,0.10821122069245671,-0.015059805761719032
353,0.060284723994663336,74.97637109058313,1.222595710397125,0.10773259587747147,-0.01522356723398035
354,0.06028462098938585,74.97637109058313,1.22458360324106,0.10719406274848117,-0.015480782091889762
355,0.06028451798931937,74.97637109058313,1.2266877336496482,0.10667141541035985,-0.015959499102086952
356,0.060284414994484004,74.97637109058313,1.2286707589123518,0.10622951516281756,-0.01681893130415098
357,0.06028431200489984,74.97637109058313,1.230296573118513,0.10591901329671367,-0.018223604069769972
358,0.06028420902058698,74.97637109058313,1.2313513226043653,0.10577236983953807,-0.020309894297054844
359,0.06028410604156551,74.97637109058313,1.2316815645937982,0.10579836164457324,-0.02315335833526414
360,0.06028400306785552,74.97637109058313,1.231238439161283,0.10597769910255553,-0.02674565576991852
361,0.060283900099477115,74.97637109058313,1.2300998568953265,0.10626505302654027,-0.030984796794377097
362,0.06028379713645039,74.97637109058313,1.228448362255793,0.10660130929601257,-0.03567809961895266
363,0.06028369417879546,74.97637109058313,1.2265174012521942,0.106931477164253,-0.040558085142632545
364,0.0602835912265324,74.97637109058313,1.2245425301208965,0.10721732236119204,-0.045313876223051414
365,0.0602834882796813,74.97637109058313,1.2227341982204631,0.10743950096826245,-0.049638305404732165
366,0.06028338533826229,74.97637109058313,1.221260777864583,0.10759319221696563,-0.05328320352198429
367,0.06028328240229547,74.97637109058313,1.2202312171870706,0.10768252323445064,-0.05610776746801699
368,0.060283179471800966,74.97637109058313,1.219681138102212,0.10771594254865607,-0.05810408739364656
369,0.06028307654679891,74.97637109058313,1.219573112609644,0.10770297542975708,-0.059392745733695726
370,0.0602829736273094,74.97637109058313,1.219817825351943,0.10765240170843011,-0.060194979695385974
371,0.060282870713352546,74.97637109058313,1.2203112252538755,0.10757196091113073,-0.06079529009583168
372,0.060282767804948435,74.97637109058313,1.2209724959868828,0.10746945522173611,-0.061504982353168446
373,0.06028266490211715,74.97637109058313,1.2217689575875863,0.10735413654854865,-0.06263035390720932
374,0.060282562004878804,74.97637109058313,1.222724947198575,0.10723710458902623,-0.06444640178745027
375,0.0602824591132535,74.97637109058313,1.2239176981649407,0.10713106109985743,-0.06717641914298923
376,0.060282356227261344,74.97637109058313,1.2254604716091675,0.10705047525901369,-0.07097800574804569
377,0.06028225334692243,74.97637109058313,1.2274730024091374,0.10701110554128222,-0.07593808574371627
378,0.060282150472256844,74.97637109058313,1.2300449274536962,0.10702668727731332,-0.08207765717087294
379,0.06028204760328469,74.97637109058313,1.2332018034056116,0.1071035840435332,-0.08935938212156835
380,0.06028194474002609,74.97637109058313,1.2368806459164365,0.10723687783926232,-0.09769081554271776
381,0.060281841882501165,74.97637109058313,1.2409165255169474,0.10740978455673186,-0.10692412321234956
382,0.060281739030729996,74.97637109058313,1.2450406264019132,0.10759592015344667,-0.11685503879945974
383,0.06028163618473273,74.97637109058313,1.2488922711018537,0.10776350181248615,-0.12722190606124725
384,0.060281533344529466,74.97637109058313,1.2520472703387768,0.10788047079939685,-0.1377095584824274
385,0.060281430510140316,74.97637109058313,1.254061198049035,0.10791977449779609,-0.14796450785931847
386,0.06028132768158535,74.97637109058313,1.2545220843315381,0.10786471557210864,-0.1576211537876003
387,0.06028122485888469,74.97637109058313,1.2531071977559498,0.10771382964888217,-0.16633193011630706
388,0.06028112204205843,74.97637109058313,1.2496422210679976,0.10748412055414452,-0.17379330764674672
389,0.0602810192311267,74.97637109058313,1.2441589685253958,0.10721171480153399,-0.17976218300040706
390,0.06028091642610959,74.97637109058313,1.2369340194438507,0.10694849599258688,-0.18405970952527737
391,0.06028081362702718,74.97637109058313,1.2284811347736573,0.10675283731889268,-0.1865623655970373
392,0.06028071083389959,74.97637109058313,1.2194858609975192,0.10667513326926481,-0.18718762942321746
393,0.06028060804674691,74.97637109058313,1.2106988029990928,0.10674279461347636,-0.18588863731797414
394,0.06028050526558926,74.97637109058313,1.2028197075437526,0.10695038969700445,-0.18266425092995178
395,0.060280402490446715,74.97637109058313,1.196406729123562,0.10725861200986934,-0.17757267464477958
396,0.06028029972133938,74.97637109058313,1.1918343251663177,0.10760248522182646,-0.17073172565631028
397,0.060280196958287374,74.97637109058313,1.1892976754444429,0.10790520156345185,-0.16230357828380143
398,0.06028009420131079,74.97637109058313,1.1888397557263668,0.10809253686282386,-0.15247678295106273
399,0.060279991450429726,74.97637109058313,1.1903742728652122,0.10810556782147453,-0.14145831291148245
400,0.06027988870566428,74.97637109058313,1.1936949604315494,0.10791059098027792,-0.12947830314877387
401,0.06027978596703458,74.97637109058313,1.1984854893442418,0.10750375354003047,-0.11680127694881455
402,0.06027968323456074,74.97637109058313,1.2043417822826412,0.10691071073842598,-0.10373545471031055
403,0.06027958050826286,74.97637109058313,1.2107963732608882,0.1061855518587904,-0.0906348122725537
404,0.06027947778816106,74.97637109058313,1.2173361959442195,0.1054098406770457,-0.0778907622171449
405,0.06027937507427541,74.97637109058313,1.2234302164998472,0.10468491454273002,-0.06590863898209925
406,0.060279272366625995,74.97637109058313,1.2285911205052489,0.1041106999327954,-0.055065294582992114
407,0.060279169665232925,74.97637109058313,1.2324618328425612,0.10375813704543829,-0.045655554980830446
408,0.06027906697011632,74.97637109058313,1.2348788123049061,0.10365284606217602,-0.03784935172208563
409,0.060278964281296296,74.97637109058313,1.2358767983050318,0.1037773521137854,-0.03168044253925802
410,0.060278861598792956,74.97637109058313,1.235643853025823,0.10408379567737644,-0.0270688125541945
411,0.060278758922626394,74.97637109058313,1.2344568059977312,0.10450779762491337,-0.023859684387482736
412,0.060278656252816705,74.97637109058313,1.2326229820636732,0.10498011172980967,-0.021858945751000978
413,0.060278553589383985,74.97637109058313,1.2304413421679057,0.10543566966488786,-0.020855462512601144
414,0.06027845093234834,74.97637109058313,1.2281826783873773,0.10581978582166039,-0.020631830732332015
415,0.0602783482817299,74.97637109058313,1.2260818281588126,0.10609148368246375,-0.020969641083347233
416,0.06027824563754877,74.97637109058313,1.2243358190736808,0.10622498385066513,-0.02165504816660236
417,0.060278142999825084,74.97637109058313,1.2231042924720685,0.1062106646190764,-0.0224879035590588
418,0.06027804036857891,74.97637109058313,1.2225099951461933,0.10605574069763728,-0.023295812782074765
419,0.06027793774383034,74.97637109058313,1.222638856112547,0.10578445724614564,-0.023954744070750458
420,0.060277835125599505,74.97637109058313,1.2235391939835598,0.10543794334659612,-0.024414875323646706
421,0.06027773251390648,74.97637109058313,1.225216717340932,0.10507328617844808,-0.02472222887814298
422,0.060277629908771405,74.97637109058313,1.227621256252067,0.10476031918267067,-0.025024015286132538
423,0.06027752731021437,74.97637109058313,1.2306274038207115,0.10457522538343217,-0.025554089017919824
424,0.06027742471825549,74.97637109058313,1.2340208422814434,0.10459180975647653,-0.026604037648981883
425,0.060277322132914854,74.97637109058313,1.2375041648930822,0.10487150270498156,-0.02848677415038791
426,0.06027721955421257,74.97637109058313,1.2407268839970922,0.1054519740424953,-0.031495626733290844
427,0.060277116982168734,74.97637109058313,1.2433347017799803,0.1063339703974825,-0.03585867186928882
428,0.060277014416803436,74.97637109058313,1.2450301704900892,0.10746744765413048,-0.04169180824904415
429,0.06027691185813677,74.97637109058313,1.2456324795730083,0.10874195938718757,-0.04896282849661519
430,0.06027680930618886,74.97637109058313,1.2451117503864892,0.10999213632081653,-0.057480213187410985
431,0.0602767067609798,74.97637109058313,1.2435735645424035,0.11102719542804265,-0.06691199227000169
432,0.06027660422252968,74.97637109058313,1.241204241787813,0.111676087603956,-0.07683101209278996
433,0.06027650169085863,74.97637109058313,1.238219026533721,0.11182638439089307,-0.08677697417524903
434,0.06027639916598676,74.97637109058313,1.2348363778105176,0.11144482223948529,-0.09632061108142573
435,0.06027629664793416,74.97637109058313,1.2312627200587,0.11058271741064986,-0.10511237890857443
436,0.060276194136720924,74.97637109058313,1.2276674402981478,0.10936889936701236,-0.11290226322569762
437,0.06027609163236719,74.97637109058313,1.2241583535501608,0.10798495632188695,-0.1195299345310678
438,0.06027598913489306,74.97637109058313,1.220788401917933,0.10662128148422235,-0.12489669806363655
439,0.06027588664431861,74.97637109058313,1.2175962694537532,0.10542959801085804,-0.12893377404020037
440,0.06027578416066396,74.97637109058313,1.2146444080748109,0.10449530121001613,-0.13157651862542402
441,0.060275681683949214,74.97637109058313,1.2120296503665537,0.10383718779321036,-0.13274825206809246
442,0.060275579214194484,74.97637109058313,1.2098764904710166,0.10342413419519161,-0.13235522512900247
443,0.06027547675141986,74.97637109058313,1.2083264174808306,0.10319619569541441,-0.1302938810779536
444,0.06027537429564545,74.97637109058313,1.2075211256211043,0.10308371716100317,-0.126470192767944
445,0.06027527184689138,74.97637109058313,1.2075744868649108,0.10302274849810177,-0.12082961690303161
446,0.060275169405177735,74.97637109058313,1.2085385846992824,0.10296681973097,-0.11339513722001701
447,0.06027506697052461,74.97637109058313,1.2103769291128206,0.10289498708507934,-0.10430796280727042
448,0.060274964542952086,74.97637109058313,1.2129528334767563,0.10281552444941404,-0.09385901793072052
449,0.06027486212248029,74.97637109058313,1.2160318237026986,0.10276444629023558,-0.08249361153188937
450,0.06027475970912932,74.97637109058313,1.219298994193598,0.10279844956651038,-0.07077704524373302
451,0.06027465730291928,74.97637109058313,1.222400001671233,0.10298261053855265,-0.05932632524966795
452,0.06027455490387026,74.97637109058313,1.2250077393060899,0.10337367805961341,-0.048729835109098577
453,0.06027445251200236,74.97637109058313,1.2268977969162485,0.1040004259726675,-0.03948096314657893
454,0.06027435012733572,74.97637109058313,1.2280064902697847,0.10484560691198488,-0.03194220845353512
455,0.06027424774989046,74.97637109058313,1.228444896274654,0.10584061096200699,-0.02634223585261706
456,0.060274145379686665,74.97637109058313,1.2284502863354836,0.10688342772209414,-0.02279745088965781
457,0.060274043016744445,74.97637109058313,1.2282927946727216,0.10787245642174824,-0.021343088334882077
458,0.06027394066108391,74.97637109058313,1.228192841613819,0.10873246421573386,-0.021959427069405738
459,0.06027383831272512,74.97637109058313,1.2282895562946674,0.10941923223713695,-0.024586879053241615
460,0.0602737359716882,74.97637109058313,1.2286496924558827,0.10991115014037779,-0.029130305804058086
461,0.06027363363799324,74.97637109058313,1.2292788483033201,0.11020175408562671,-0.03545427972216508
462,0.06027353131166036,74.97637109058313,1.2301136169862228,0.11029761546740134,-0.04337290957746917
463,0.06027342899270969,74.97637109058313,1.231007624132447,0.11021741625289164,-0.052639360511379504
464,0.060273326681161324,74.97637109058313,1.2317367265420258,0.10998836725294316,-0.06293729618486235
465,0.060273224377035375,74.97637109058313,1.232035429073533,0.10964082847524226,-0.07387396309763172
466,0.060273122080351946,74.97637109058313,1.231657515951288,0.10920446226012302,-0.08497675088715696
467,0.06027301979113114,74.97637109058313,1.230439834513497,0.10870770111736196,-0.09569868031989477
468,0.06027291750939306,74.97637109058313,1.228347947560344,0.10817891662044658,-0.10544017767199056
469,0.0602728152351578,74.97637109058313,1.2254948626637048,0.10764664776355143,-0.1135929861005237
470,0.06027271296844544,74.97637109058313,1.2221334269148392,0.10713843059611704,-0.11960541726674614
471,0.060272610709276066,74.97637109058313,1.2186237097622108,0.10667934301367309,-0.12305879239855427
472,0.06027250845766978,74.97637109058313,1.2153780152999265,0.10629064627411679,-0.12373864341598301
473,0.060272406213646684,74.97637109058313,1.2127913191889794,0.10598824080667253,-0.12168391203479333
474,0.0602723039772269,74.97637109058313,1.211168320943414,0.10578126485041617,-0.11720136665106835
475,0.06027220174843053,74.97637109058313,1.210660864050588,0.10567127745925022,-0.11083716825122736
476,0.06027209952727767,74.97637109058313,1.2112341682538983,0.10565171878517314,-0.10330315185711011
477,0.06027199731378844,74.97637109058313,1.212677944867996,0.10570758972556976,-0.09536662346012652
478,0.060271895107982976,74.97637109058313,1.214662358794991,0.10581634585583807,-0.08772815589977892
479,0.060271792909881404,74.97637109058313,1.2168199026117423,0.10595097927448842,-0.08092022959744886
480,0.060271690719503834,74.97637109058313,1.2188262105842649,0.10608506935183541,-0.07525073790012764
481,0.060271588536870375,74.97637109058313,1.2204585887261656,0.1061983682939633,-0.07079612961635987
482,0.0602714863620011,74.97637109058313,1.221623286219055,0.10628076904965528,-0.06743549211621795
483,0.060271384194916074,74.97637109058313,1.2223514051795459,0.10633292734611997,-0.06491426733664041
484,0.06027128203563541,74.97637109058313,1.2227682202832875,0.10636377208808295,-0.0629261105042657
485,0.06027117988417922,74.97637109058313,1.2230452168057167,0.10638662413491877,-0.061197019994666244
486,0.06027107774056762,74.97637109058313,1.2233466517016227,0.106415010994638,-0.05955129062567462
487,0.060270975604820705,74.97637109058313,1.223782889212324,0.10645837933100882,-0.05794212616808795
488,0.060270873476958566,74.97637109058313,1.2243830519331436,0.106518586635383,-0.05644216945685529
489,0.06027077135700132,74.97637109058313,1.2250957629247223,0.10658893197855795,-0.055202912444760915
490,0.06027066924496907,74.97637109058313,1.2258152013205141,0.10665638233890957,-0.05439789944468915
491,0.060270567140881914,74.97637109058313,1.2264173851316464,0.1067056109691919,-0.05416280505564498
492,0.06027046504475992,74.97637109058313,1.2267914890492573,0.1067234567399244,-0.05454371555534982
493,0.060270362956623205,74.97637109058313,1.2268625218364624,0.1067035237921032,-0.055466664186824464
494,0.0602702608764919,74.97637109058313,1.2266083976007274,0.10664968469134767,-0.05673973240181197
495,0.060270158804386104,74.97637109058313,1.2260685436838108,0.10657587890550171,-0.05808822801888306
496,0.06027005674032592,74.97637109058313,1.2253352345668336,0.10650159947097103,-0.05921067689736729
497,0.06026995468433146,74.97637109058313,1.2245260298824894,0.10644594124070976,-0.059837723430812374
498,0.06026985263642283,74.97637109058313,1.2237498993672775,0.1064234861360891,-0.059777171369294814
499,0.060269750596620146,74.97637109058313,1.2230850963172002,0.1064427948614868,-0.058934942019589626
500,0.060269648564943525,74.97637109058313,1.222578231027714,0.10650642989787737,-0.05731412893628095
501,0.060269546541413054,74.97637109058313,1.2222594901629775,0.10661185513479907,-0.05500408420059338
502,0.06026944452604884,74.97637109058313,1.2221625368852131,0.1067533353566456,-0.05216808827200753
503,0.060269342518870984,74.97637109058313,1.222342148702166,0.10692418267839399,-0.049028322996182504
504,0.0602692405198996,74.97637109058313,1.2228864826107861,0.10711798946424288,-0.04584558735792116
505,0.06026913852915476,74.97637109058313,1.2239195502468334,0.10732860244632475,-0.04289825250201871
506,0.06026903654665658,74.97637109058313,1.2255882616557512,0.10754974780253991,-0.04046895549802782
507,0.06026893457242517,74.97637109058313,1.2280307473897376,0.10777476236328201,-0.03884424654861259
508,0.06026883260648065,74.97637109058313,1.231330562307163,0.10799605113260355,-0.038324747399866015
509,0.06026873064884311,74.97637109058313,1.23547105834381,0.1082041409128561,-0.039234370814223346
510,0.06026862869953267,74.97637109058313,1.240304777785164,0.10838681215123462,-0.04191386036273352
511,0.060268526758569425,74.97637109058313,1.2455416114882478,0.1085282797700884,-0.046692156967099656
512,0.06026842482597345,74.97637109058313,1.2507525883569626,0.10860801284340459,-0.053840445900516835
513,0.060268322901764856,74.97637109058313,1.2553927665096787,0.1086003104764777,-0.0635181948457754
514,0.060268220985963725,74.97637109058313,1.2588513499808236,0.10847684478858191,-0.07572120013765918
515,0.060268119078590164,74.97637109058313,1.2605298619107668,0.1082128863158816,-0.09024249632579791
516,0.060268017179664304,74.97637109058313,1.2599381778804013,0.10779572962133803,-0.10665603290921508
517,0.06026791528920627,74.97637109058313,1.2567905508207091,0.10723284327811566,-0.12432946960835492
518,0.06026781340723616,74.97637109058313,1.2510824484118264,0.1065574235576241,-0.14246596873384773
519,0.060267711533774075,74.97637109058313,1.2431308303996509,0.10582905534961048,-0.16016639709393668
520,0.060267609668840115,74.97637109058313,1.233557939009299,0.1051268067322995,-0.17649936832531757
521,0.0602675078124544,74.97637109058313,1.2232039005460875,0.1045341253782012,-0.19057145276050713
522,0.06026740596463701,74.97637109058313,1.2129864165623616,0.1041201450904628,-0.20159539731054807
523,0.06026730412540806,74.97637109058313,1.2037594374079204,0.1039253667880474,-0.20895103696624945
524,0.06026720229478765,74.97637109058313,1.1962088164263667,0.10395673802997547,-0.21222872738799495
525,0.06026710047279588,74.97637109058313,1.1907865508081215,0.1041908488683273,-0.2112488460035588
526,0.06026699865945285,74.97637109058313,1.187683400499612,0.10458101159399509,-0.20605882257678979
527,0.06026689685477866,74.97637109058313,1.1868511692229449,0.10506580488619292,-0.19691347948836185
528,0.06026679505879341,74.97637109058313,1.1880668664770309,0.10557894686580031,-0.18424600038660646
529,0.06026669327151719,74.97637109058313,1.191004077248561,0.10606029330930139,-0.1686377638248264
530,0.06026659149297012,74.97637109058313,1.1952810369553444,0.1064656931249525,-0.15079282409512776
531,0.060266489723172306,74.97637109058313,1.2004860911049353,0.10677209337758758,-0.13151484749252804
532,0.060266387962143876,74.97637109058313,1.2062021333334751,0.10697641620529096,-0.11167615834233349
533,0.060266286209904915,74.97637109058313,1.2120394823296847,0.10709017256936013,-0.09216922443456496
534,0.060266184466475525,74.97637109058313,1.2176654969774705,0.10713290265395894,-0.07384263949799402
535,0.060266082731875795,74.97637109058313,1.2228182092902768,0.10712663803933584,-0.05743675297055237
536,0.06026598100612585,74.97637109058313,1.2273046323592762,0.10709210360311268,-0.043535702602162885
537,0.0602658792892458,74.97637109058313,1.2309921509561867,0.10704627032884624,-0.03254206482762042
538,0.06026577758125576,74.97637109058313,1.2337992403332025,0.10700096617197055,-0.024668445807543408
539,0.060265675882175844,74.97637109058313,1.2356894407237053,0.10696262065640981,-0.019937240642287652
540,0.06026557419202616,74.97637109058313,1.236670101135558,0.10693286207780071,-0.018187172980744005
541,0.06026547251082679,74.97637109058313,1.236790795626415,0.10690948296420097,-0.019093172984297156
542,0.06026537083859785,74.97637109058313,1.236134468042201,0.10688765530161512,-0.022203758139056725
543,0.060265269175359445,74.97637109058313,1.234802771519917,0.10686138636039519,-0.026989684189495124
544,0.06026516752113168,74.97637109058313,1.2329062733588747,0.10682489601163447,-0.032889985497397495
545,0.06026506587593465,74.97637109058313,1.2305680321376478,0.10677358456439434,-0.03934435741024842
546,0.060264964239788436,74.97637109058313,1.2279354656548185,0.10670471525036604,-0.04581334795541282
547,0.06026486261271314,74.97637109058313,1.2251866233362996,0.10661815731202598,-0.05179796877701631
548,0.06026476099472886,74.97637109058313,1.222522986859437,0.10651718137822679,-0.05686656559452128
549,0.060264659385855734,74.97637109058313,1.2201496607770275,0.10640871232882237,-0.06068526642845626
550,0.06026455778611386,74.97637109058313,1.218246027026818,0.10630233062081935,-0.06304271862844549
551,0.06026445619552333,74.97637109058313,1.2169329095463561,0.10620809663895422,-0.0638613012555275
552,0.060264354614104225,74.97637109058313,1.2162475915982176,0.10613410863059891,-0.06319094578807392
553,0.06026425304187665,74.97637109058313,1.2161376987742187,0.10608486066794906,-0.06118827809291662
554,0.06026415147886073,74.97637109058313,1.2164782156729994,0.10606117120244474,-0.05808884636370675
555,0.06026404992507656,74.97637109058313,1.2171068844536113,0.1060615770419627,-0.05417709261124861
556,0.06026394838054425,74.97637109058313,1.2178649140516524,0.10608400596866183,-0.049753388100808205
557,0.06026384684528391,74.97637109058313,1.2186289965474661,0.10612660997327446,-0.04509909870096272
558,0.06026374531931566,74.97637109058313,1.219330202495799,0.10618782984699845,-0.040446180410938455
559,0.06026364380265962,74.97637109058313,1.2199645050401464,0.10626646787667769,-0.03595968307064191
560,0.0602635422953359,74.97637109058313,1.2205974085568576,0.10636215492740993,-0.03173723587339215
561,0.0602634407973646,74.97637109058313,1.221358124462464,0.1064758362848139,-0.027822398915811702
562,0.06026333930876582,74.97637109058313,1.2224202381096014,0.10660969241461767,-0.024226042474171983
563,0.06026323782955964,74.97637109058313,1.2239726454016393,0.10676652927395718,-0.02095436248721032
564,0.06026313635976618,74.97637109058313,1.2261863854703186,0.10694887209582521,-0.01804489952637317
565,0.060263034899405515,74.97637109058313,1.22918252241338,0.10715759153921532,-0.015604527315847876
566,0.06026293344849778,74.97637109058313,1.2330056662262383,0.10739055309072344,-0.01383495965242789
567,0.06026283200706307,74.97637109058313,1.2376034027912777,0.10764230966056261,-0.013035540394053233
568,0.06026273057512149,74.97637109058313,1.2428093987948239,0.10790443295310795,-0.013584314269769365
569,0.060262629152693176,74.97637109058313,1.2483328679271863,0.10816515496284167,-0.015902429997625547
570,0.0602625277397982,74.97637109058313,1.2537617850512641,0.10840821633161424,-0.020404154000446987
571,0.06026242633645664,74.97637109058313,1.2585836754106874,0.10861220854520863,-0.027436409200600417
572,0.06026232494268859,74.97637109058313,1.2622224394796189,0.10875192809259125,-0.03721851436289907
573,0.06026222355851416,74.97637109058313,1.2640912328751481,0.10880241222223835,-0.0497931941016154
574,0.06026212218395347,74.97637109058313,1.263664705168904,0.1087448081717034,-0.06499313692860925
575,0.06026202081902662,74.97637109058313,1.2605698482554886,0.1085724093123962,-0.0824252651667617
576,0.06026191946375373,74.97637109058313,1.2546823710943773,0.10829579928332896,-0.1014773997734268
577,0.060261818118154876,74.97637109058313,1.2462016409152146,0.10794596040578144,-0.12134822994893259
578,0.06026171678225019,74.97637109058313,1.235670665242778,0.10757233159078922,-0.14109573299916903
579,0.06026161545605977,74.97637109058313,1.2239176327603307,0.10723290143368519,-0.15970228183817597
580,0.06026151413960373,74.97637109058313,1.211929128005751,0.10697824296942114,-0.17615652963358175
581,0.060261412832902185,74.97637109058313,1.2007021124718908,0.1068368864395271,-0.18954250379697388
582,0.06026131153597526,74.97637109058313,1.1911234657341023,0.10680908218138163,-0.19911941991793583
583,0.06026121024884304,74.97637109058313,1.1838918590803758,0.10686970561688625,-0.20438205633122017
584,0.060261108971525625,74.97637109058313,1.179465784693747,0.10697629697588776,-0.20509987199652616
585,0.060261007704043114,74.97637109058313,1.1780251846097634,0.10707881686544744,-0.2013331130117292
586,0.060260906446415595,74.97637109058313,1.1794653340007526,0.10712864316803024,-0.19342099021158607
587,0.06026080519866319,74.97637109058313,1.183447240706333,0.10708412953370527,-0.1819411999813442
588,0.060260703960806,74.97637109058313,1.1894832069339563,0.10691341512749167,-0.16765087475359758
589,0.060260602732864106,74.97637109058313,1.1970026259829118,0.10659971562402934,-0.15142390936903902
590,0.06026050151485763,74.97637109058313,1.2053738878908207,0.10615209562245559,-0.13419254907866884
591,0.06026040030680668,74.97637109058313,1.2139126115362575,0.10561569419206979,-0.11689030689973577
592,0.06026029910873137,74.97637109058313,1.221923443495594,0.10506874525837612,-0.10039016241983169
593,0.060260197920651806,74.97637109058313,1.228788441617694,0.10460047237897264,-0.0854392462687023
594,0.0602600967425881,74.97637109058313,1.2340626583693572,0.10428164934498883,-0.07259971881952514
595,0.06025999557456035,74.97637109058313,1.2375250834970164,0.10414675655237407,-0.06220714560509711
596,0.060259894416588675,74.97637109058313,1.2391735178616967,0.10419385543835584,-0.05435528774020768
597,0.06025979326869317,74.97637109058313,1.2391871482436443,0.1043948341309362,-0.04891257537992085
598,0.060259692130893945,74.97637109058313,1.237876165785575,0.10470776137217615,-0.045567554837978044
599,0.06025959100321107,74.97637109058313,1.2356243846781436,0.10508720871314099,-0.043891353378001846
600,0.06025948988566464,74.97637109058313,1.2328326145554493,0.10549120232725014,-0.04340289053656157
601,0.060259388778274754,74.97637109058313,1.2298748539118087,0.10588510016515912,-0.04362777299944803
602,0.060259287681061535,74.97637109058313,1.2270734931084504,0.10624332952740698,-0.04414798084179068
603,0.06025918659404507,74.97637109058313,1.2246900907803844,0.10654984755244963,-0.04464083764548532
604,0.060259085517245466,74.97637109058313,1.2229230169259775,0.10679770040005235,-0.04490267407329282
605,0.06025898445068282,74.97637109058313,1.2219027170909618,0.10698748049619587,-0.044852801088318954
606,0.060258883394377266,74.97637109058313,1.221680556663768,0.1071244062211404,-0.044520467560169384
607,0.06025878234834891,74.97637109058313,1.2222160025479407,0.10721440674318788,-0.04402303958942107
608,0.06025868131261785,74.97637109058313,1.2233728561510318,0.1072606379834173,-0.043541508361356965
609,0.06025858028720419,74.97637109058313,1.2249347163226973,0.10726188145792812,-0.043293867543715746
610,0.06025847927212804,74.97637109058313,1.2266406635952543,0.10721291781294595,-0.043504363648708286
611,0.0602583782674095,74.97637109058313,1.2282293879772768,0.10710624248776984,-0.04436905568416137
612,0.06025827727306868,74.97637109058313,1.2294766217929558,0.10693471697749243,-0.04602195634146974
613,0.0602581762891257,74.97637109058313,1.230219251929259,0.1066943838984616,-0.048508090530524385
614,0.06025807531560066,74.97637109058313,1.2303683056402364,0.10638661686175932,-0.05177017496446507
615,0.060257974352513656,74.97637109058313,1.2299132859721074,0.10601987855768966,-0.05565228739800488
616,0.0602578733998848,74.97637109058313,1.2289160125721081,0.10561150719273049,-0.059916680778549475
617,0.06025777245773421,74.97637109058313,1.227492553079347,0.10518874682623638,-0.06426657536825893
618,0.06025767152608197,74.97637109058313,1.2257867600789476,0.10478809791933502,-0.06837320793202843
619,0.06025757060494818,74.97637109058313,1.2239411483474745,0.10445295003435554,-0.0719099134903963
620,0.06025746969435297,74.97637109058313,1.2220711816178342,0.10422943282032968,-0.07458914793075813
621,0.060257368794316445,74.97637109058313,1.2202516916916857,0.10415998704530238,-0.07618938834550898
622,0.0602572679048587,74.97637109058313,1.2185244519020748,0.10427474645628294,-0.07656315205771252
623,0.060257167025999835,74.97637109058313,1.2169288570915655,0.1045819125802998,-0.07563111659188179
624,0.06025706615775993,74.97637109058313,1.2155460714230233,0.10505948468909836,-0.07337384606135111
625,0.06025696530015906,74.97637109058313,1.2145334853160241,0.10565329671838834,-0.069826591845132
626,0.06025686445321737,74.97637109058313,1.2141202404378149,0.10628748040910706,-0.06507615909758299
627,0.06025676361695496,74.97637109058313,1.2145553784864627,0.10688622767583512,-0.059261013219426645
628,0.06025666279139195,74.97637109058313,1.2160368115287559,0.1073948749402129,-0.05257888659084347
629,0.06025656197654841,74.97637109058313,1.2186590797896326,0.10778877653920317,-0.04530180205674103
630,0.060256461172444445,74.97637109058313,1.2223942334574411,0.10806977353204746,-0.037790094437552636
631,0.06025636037910016,74.97637109058313,1.2270972127311395,0.1082577067849363,-0.030492068125165753
632,0.060256259596535695,74.97637109058313,1.2325223777881336,0.10838299189985608,-0.023920142896206316
633,0.06025615882477115,74.97637109058313,1.2383438895088068,0.10848136922201669,-0.018607074060597112
634,0.06025605806382666,74.97637109058313,1.2441782564606472,0.10858878640586193,-0.015056178782601874
635,0.0602559573137223,74.97637109058313,1.2496072410478785,0.10873495053647736,-0.013699092959070808
636,0.060255856574478156,74.97637109058313,1.2541975651777884,0.10893694867855215,-0.014867648035039286
637,0.06025575584611437,74.97637109058313,1.257517811267518,0.10919524095583209,-0.01877831523342541
638,0.060255655128651026,74.97637109058313,1.2591613305316354,0.1094923538272813,-0.025520573628971886
639,0.06025555442210822,74.97637109058313,1.2587865867134462,0.10979361646439612,-0.03504139270336109
640,0.06025545372650606,74.97637109058313,1.2561770826259453,0.11005028758476702,-0.04712875503402247
641,0.060255353041864655,74.97637109058313,1.251308540094946,0.11020573871088055,-0.06140589145942743
642,0.060255252368204115,74.97637109058313,1.244403364236888,0.11020468519685382,-0.07734419230227435
643,0.060255151705544525,74.97637109058313,1.2359512544739863,0.11000432238240825,-0.09429200799066956
644,0.06025505105390601,74.97637109058313,1.2266735903237633,0.10958424428741648,-0.11151198300706049
645,0.06025495041330867,74.97637109058313,1.2174222353002842,0.10895128685372213,-0.1282246084368145
646,0.06025484978377259,74.97637109058313,1.2090380986415894,0.10813823852239937,-0.14366105928821948
647,0.06025474916531789,74.97637109058313,1.2022160333869019,0.10719923066655204,-0.15712550716451618
648,0.06025464855796468,74.97637109058313,1.197407099142609,0.10620531439978506,-0.1680577996180858
649,0.06025454796173307,74.97637109058313,1.1947662471513423,0.10524049010040946,-0.17608074781665886
650,0.06025444737664314,74.97637109058313,1.1941553514761107,0.10439335908001518,-0.18101773168149604
651,0.06025434680271503,74.97637109058313,1.1952173936222816,0.1037394578320888,-0.18287446396947413
652,0.0602542462399688,74.97637109058313,1.1975038756895164,0.10332021048327525,-0.18179179489733743
653,0.06025414568842457,74.97637109058313,1.200595149958144,0.10313285633392626,-0.17798891149984997
654,0.06025404514810244,74.97637109058313,1.2041663533956823,0.1031366773698617,-0.17171803071417951
655,0.06025394461902253,74.97637109058313,1.2079962449246515,0.10326829488457269,-0.1632427686577263
656,0.06025384410120493,74.97637109058313,1.2119421110018562,0.1034582933111237,-0.15284193229742402
657,0.06025374359466974,74.97637109058313,1.215907175821102,0.10364579293205009,-0.140832480031233
658,0.06025364309943709,74.97637109058313,1.2198129860615288,0.10378936810832522,-0.1275994134549423
659,0.06025354261552709,74.97637109058313,1.2235727260333547,0.10387335335890072,-0.11361699531456458
660,0.060253442142959815,74.97637109058313,1.2270631138880872,0.10390905099497698,-0.09944660965835343
661,0.060253341681755404,74.97637109058313,1.230108467567659,0.10393096318662566,-0.08570319168857897
662,0.06025324123193397,74.97637109058313,1.232495225426458,0.10398910737595357,-0.0729939540550686
663,0.06025314079351559,74.97637109058313,1.2340154774438474,0.10413849032968256,-0.06184636534529429
664,0.06025304036652037,74.97637109058313,1.234519140688645,0.1044261775849513,-0.052648067983887374
665,0.06025293995096843,74.97637109058313,1.233959698258397,0.10487682140481593,-0.045613305360638776
666,0.06025283954687986,74.97637109058313,1.2324274660681689,0.1054799417403275,-0.04077776610255595
667,0.06025273915427477,74.97637109058313,1.2301552340052202,0.1061869549789127,-0.03801926724875474
668,0.06025263877317327,74.97637109058313,1.2274774596451565,0.10692546089147292,-0.037100903241127636
669,0.06025253840359548,74.97637109058313,1.2247539371910465,0.10762418934874958,-0.037726943098477
670,0.06025243804556147,74.97637109058313,1.222297750172459,0.10823008424799373,-0.03959490193658268
671,0.06025233769909136,74.97637109058313,1.2203311433909814,0.10870914075508557,-0.04242921338250849
672,0.06025223736420523,74.97637109058313,1.218961507043337,0.10903988613770392,-0.04599143790320719
673,0.06025213704092319,74.97637109058313,1.218168142987685,0.10921006114828304,-0.05007095747193046
674,0.06025203672926536,74.97637109058313,1.2178097059570006,0.10921775925713136,-0.05446446038136707
675,0.06025193642925184,74.97637109058313,1.217667661881348,0.10907280144331441,-0.058953546546162146
676,0.06025183614090274,74.97637109058313,1.2175185432830846,0.10879610948621238,-0.06328895868275548
677,0.06025173586423814,74.97637109058313,1.2172032680679508,0.10841804784672283,-0.06718682217231703
678,0.06025163559927818,74.97637109058313,1.2166651186821464,0.10797635570657566,-0.07033865301053104
679,0.06025153534604296,74.97637109058313,1.2159501447459873,0.10751303957268675,-0.07243512857455511
680,0.060251435104552574,74.97637109058313,1.2151809796315292,0.10707011779893467,-0.07320062171046582
681,0.06025133487482713,74.97637109058313,1.2145186839897522,0.10668499383301676,-0.07242963670528822
682,0.06025123465688674,74.97637109058313,1.214123368402949,0.10638666158991851,-0.07001473309575544
683,0.060251134450751496,74.97637109058313,1.2141227601152111,0.10619388006053986,-0.06596167424123407
684,0.06025103425644152,74.97637109058313,1.214599135963139,0.10611516085011767,-0.0603921005836293
685,0.0602509340739769,74.97637109058313,1.215601005710738,0.1061493414071072,-0.05353235031288013
686,0.06025083390337773,74.97637109058313,1.2171729124935244,0.1062866920503737,-0.04568900146044625
687,0.06025073374466414,74.97637109058313,1.2193848244407954,0.10651174892619508,-0.03722132347403037
688,0.060250633597856235,74.97637109058313,1.2223420749788092,0.1068076943097916,-0.028525964192818293
689,0.060250533462974126,74.97637109058313,1.2261648100427047,0.10715960551145724,-0.020040988144689808
690,0.0602504333400379,74.97637109058313,1.2309363465777903,0.10755356181185845,-0.012262613111258681
691,0.06025033322906766,74.97637109058313,1.2366298926825867,0.10797181714931876,-0.005760088421617419
692,0.060250233130083486,74.97637109058313,1.2430340695810296,0.10838775684133219,-0.001172565469331428
693,0.0602501330431055,74.97637109058313,1.2497100886585142,0.10876420759725984,0.0008255348104990978
694,0.06025003296815381,74.97637109058313,1.2560141598453072,0.1090563002933338,-0.0004070029093263651
695,0.06024993290524853,74.97637109058313,1.261192594848341,0.10921817197534896,-0.005390593785188732
696,0.060249832854409775,74.97637109058313,1.2645175139818994,0.10921141211683426,-0.014441450144321528
697,0.06024973281565767,74.97637109058313,1.2654143660312576,0.10901273453814177,-0.027609352457696412
698,0.06024963278901229,74.97637109058313,1.263550453630772,0.10861943587279445,-0.04464260391659355
699,0.06024953277449377,74.97637109058313,1.2588826809681668,0.10805252938106001,-0.0649809478465212
700,0.06024943277212217,74.97637109058313,1.2516761828440672,0.10735767470734722,-0.08777786360529846
701,0.0602493327819176,74.97637109058313,1.242492619208935,0.10660296070973731,-0.11195473954922754
702,0.06024923280390017,74.97637109058313,1.23212897503512,0.10587117633291096,-0.13628509834073055
703,0.060249132838089976,74.97637109058313,1.221500080279658,0.10524545308099634,-0.15949838922567744
704,0.060249032884507135,74.97637109058313,1.2114916269321991,0.1047918910239541,-0.1803879189373779
705,0.06024893294317174,74.97637109058313,1.2028273446757163,0.10454570876816215,-0.19790829383504677
706,0.0602488330141039,74.97637109058313,1.1959878517127855,0.10450566531887484,-0.21124866271234322
707,0.06024873309732373,74.97637109058313,1.1911996652414165,0.10463845146576699,-0.21986948577328552
708,0.06024863319285136,74.97637109058313,1.1884829045800038,0.10489158958695642,-0.22350080677759754
709,0.06024853330070689,74.97637109058313,1.187720135480457,0.10520929813513634,-0.22211752189845943
710,0.06024843342091042,74.97637109058313,1.1887104105244657,0.10554448795169499,-0.21591484543084863
711,0.06024833355348204,74.97637109058313,1.1912001503876692,0.10586384635229794,-0.20529612986192375
712,0.06024823369844182,74.97637109058313,1.1949034528768585,0.10614747721685854,-0.19086779184419547
713,0.060248133855809884,74.97637109058313,1.1995189470219834,0.10638597243656049,-0.17342662616514445
714,0.06024803402560632,74.97637109058313,1.2047373447034102,0.1065769109253646,-0.15392491929109625
715,0.06024793420785123,74.97637109058313,1.2102380375840522,0.10672182765521046,-0.13340581039967792
716,0.06024783440256476,74.97637109058313,1.2156905293140219,0.10682449717619542,-0.1129145224548686
717,0.06024773460976701,74.97637109058313,1.2207771899487059,0.10689052731271816,-0.09340457463457318
718,0.0602476348294781,74.97637109058313,1.2252285340929505,0.10692667507288561,-0.07566131346183641
719,0.0602475350617181,74.97637109058313,1.2288463340494502,0.10693892144197031,-0.060257082608792194
720,0.06024743530650713,74.97637109058313,1.2315032880987695,0.10693067420899122,-0.047541235943065245
721,0.0602473355638653,74.97637109058313,1.233127432648988,0.10690240326074117,-0.037657456454162554
722,0.06024723583381273,74.97637109058313,1.2336868636954288,0.10685229594806811,-0.030573102808161366
723,0.06024713611636953,74.97637109058313,1.2331881580290256,0.10677764258181438,-0.026106779007399876
724,0.0602470364115558,74.97637109058313,1.2316939539598748,0.10667724560612968,-0.02394951655358573
725,0.060246936719391644,74.97637109058313,1.229352769860742,0.10655435284816123,-0.023683472024308205
726,0.060246837039897194,74.97637109058313,1.2264212934628143,0.10641911288800539,-0.0248055874084104
727,0.06024673737309254,74.97637109058313,1.2232567522022504,0.10628937538619217,-0.026761883437376427
728,0.06024663771899774,74.97637109058313,1.2202730630643182,0.10618847924926514,-0.028992521477040727
729,0.06024653807763289,74.97637109058313,1.2178790228371854,0.10614039493428722,-0.030982522573498473
730,0.06024643844901808,74.97637109058313,1.2164265514104255,0.10616482427994973,-0.03231106953339334
731,0.06024633883317344,74.97637109058313,1.2161820874074643,0.10627422511459497,-0.032693919593435525
732,0.06024623923011907,74.97637109058313,1.2173126493983066,0.10647251023687146,-0.032016237540025014
733,0.06024613963987507,74.97637109058313,1.219873052279733,0.10675430432232651,-0.030353027860840376
734,0.06024604006246155,74.97637109058313,1.2237911421776795,0.10710410840673797,-0.027972473131023093
735,0.060245940497898665,74.97637109058313,1.2288567832339343,0.10749578654052852,-0.02531968575508084
736,0.06024584094620652,74.97637109058313,1.2347201419850566,0.10789376383490396,-0.022983277412122173
737,0.060245741407405226,74.97637109058313,1.240902433716644,0.10825674466938902,-0.021647560988037187
738,0.06024564188151488,74.97637109058313,1.2468235257170222,0.10854315586756877,-0.0220295114559908
739,0.060245542368555574,74.97637109058313,1.2518507984679732,0.1087169454623079,-0.02479905370503961
740,0.0602454428685474,74.97637109058313,1.2553674840964675,0.10875258613723934,-0.030487492096173532
741,0.060245343381510455,74.97637109058313,1.2568486570064372,0.10863809992652033,-0.03939824970019315
742,0.060245243907464836,74.97637109058313,1.2559287108624178,0.1083754366628068,-0.05153653738359103
743,0.06024514444643065,74.97637109058313,1.252452778345669,0.10797930414238639,-0.06656706720928161
744,0.06024504499842803,74.97637109058313,1.24651451762613,0.10747648567253186,-0.08380456730682179
745,0.06024494556347709,74.97637109058313,1.2384781488918881,0.10690579545678427,-0.10224611397655455
746,0.06024484614159793,74.97637109058313,1.2289712022284758,0.10631667456348307,-0.1206522223773799
747,0.06024474673281067,74.97637109058313,1.2188341275518673,0.10576460933116882,-0.13766952582993308
748,0.06024464733713535,74.97637109058313,1.2090240828630108,0.10530292867426021,-0.15197717710971276
749,0.0602445479545921,74.97637109058313,1.200483419582721,0.10497269319312738,-0.16243958009365786
750,0.06024444858520102,74.97637109058313,1.193998022961439,0.10479472769328545,-0.16824816412454652
751,0.06024434922898222,74.97637109058313,1.1900833804416617,0.10476773167332619,-0.1690285336207644
752,0.06024424988595582,74.97637109058313,1.18893068199314,0.10487309570976543,-0.16488846830428108
753,0.06024415055614193,74.97637109058313,1.1904167774621843,0.10508275345634602,-0.15639623178574197
754,0.06024405123956064,74.97637109058313,1.1941545366968196,0.1053652160570888,-0.14449766403811204
755,0.060243951936232096,74.97637109058313,1.1995595289399072,0.10568840007177276,-0.13039014923300388
756,0.06024385264617636,74.97637109058313,1.2059271965050515,0.10602128472692562,-0.11537190708104847
757,0.06024375336941355,74.97637109058313,1.2125216954648912,0.10633609531658521,-0.10068547456986171
758,0.06024365410596376,74.97637109058313,1.218666989662895,0.10661072918365017,-0.08737724018351618
759,0.06024355485584709,74.97637109058313,1.2238242730824245,0.10683057195053047,-0.07619468094693368
760,0.06024345561908365,74.97637109058313,1.2276442196699822,0.10698937632769928,-0.06753508005255715
761,0.060243356395693524,74.97637109058313,1.2299880935613798,0.10708892560788616,-0.06144663851596429
762,0.06024325718569685,74.97637109058313,1.230916616163901,0.10713745793021076,-0.057672958967939086
763,0.06024315798911373,74.97637109058313,1.230651332627119,0.10714745102985132,-0.05572954203518263
764,0.06024305880596427,74.97637109058313,1.2295200275256646,0.10713314300590009,-0.055000683799125795
765,0.06024295963626856,74.97637109058313,1.2279018026457347,0.10710790086637406,-0.05484158894440014
766,0.060242860480046685,74.97637109058313,1.2261808143185573,0.10708202362325693,-0.05467016343490751
767,0.06024276133731877,74.97637109058313,1.224705513235277,0.10706177276067413,-0.05404002727700368
768,0.06024266220810495,74.97637109058313,1.2237474426910175,0.10704965570910757,-0.05269107715189344
769,0.060242563092425344,74.97637109058313,1.2234615906869089,0.10704497960827822,-0.05057138292276246
770,0.06024246399030003,74.97637109058313,1.223858714768992,0.10704417912835243,-0.0478233338526497
771,0.06024236490174911,74.97637109058313,1.2248023364101763,0.10704171143373833,-0.04473391164820134
772,0.06024226582679269,74.97637109058313,1.226038086545341,0.10703181441844364,-0.04165972723361153
773,0.06024216676545089,74.97637109058313,1.2272518457175856,0.10701008265731192,-0.038945195284469755
774,0.0602420677177438,74.97637109058313,1.2281414566825197,0.10697408618526118,-0.036852899926142935
775,0.06024196868369154,74.97637109058313,1.2284807867953231,0.10692352798137178,-0.03552046125953785
776,0.06024186966331419,74.97637109058313,1.2281568402419794,0.10686056129626018,-0.034950165884766904
777,0.06024177065663186,74.97637109058313,1.2271738220032713,0.10678974968586691,-0.03502637891469095
778,0.06024167166366466,74.97637109058313,1.2256355424083254,0.1067171859895013,-0.03554799884358529
779,0.060241572684432705,74.97637109058313,1.2237221987119837,0.10664958387260477,-0.03626527406109676
780,0.060241473718956114,74.97637109058313,1.221668562323242,0.10659399327054303,-0.036916189456789726
781,0.06024137476725497,74.97637109058313,1.219740895523954,0.10655767941281336,-0.037260318860678175
782,0.060241275829349385,74.97637109058313,1.218207925762781,0.10654778928295185,-0.03710745034001185
783,0.06024117690525947,74.97637109058313,1.217308351283991,0.10657113528881763,-0.036336976205077455
784,0.06024107799500533,74.97637109058313,1.2172266377832477,0.1066346977620407,-0.03490663998689946
785,0.06024097909860707,74.97637109058313,1.2180889717891592,0.10674695957484355,-0.03285514490336854
786,0.060240880216084786,74.97637109058313,1.2199774775875536,0.10691865267884192,-0.030305099506076735
787,0.06024078134745856,74.97637109058313,1.2229432902945014,0.10716057435793001,-0.02747050052905767
788,0.06024068249274846,74.97637109058313,1.2269976860762395,0.10747824125059159,-0.024669540963633427
789,0.0602405836519746,74.97637109058313,1.232079959077168,0.10786603567686849,-0.022336444593467824
790,0.06024048482515713,74.97637109058313,1.2380193322843478,0.10830308975886364,-0.02101819196759541
791,0.060240386012316155,74.97637109058313,1.2445079079444517,0.10875154252283258,-0.021343325632032843
792,0.060240287213471806,74.97637109058313,1.2510940116845162,0.10915816100603445,-0.023960986305456834
793,0.060240188428644224,74.97637109058313,1.2572034019900167,0.10946012830761603,-0.02945906978075573
794,0.060240089657853504,74.97637109058313,1.2621912341168555,0.1095938739190668,-0.03827593381862126
795,0.06023999090111975,74.97637109058313,1.2654168163329265,0.10950493712765473,-0.050622287638482345
796,0.06023989215846303,74.97637109058313,1.2663273410676699,0.10915749793238717,-0.06642807609996347
797,0.06023979342990344,74.97637109058313,1.2645405955986526,0.10854300271408178,-0.08532210460213988
798,0.06023969471546108,74.97637109058313,1.2599222357097,0.10768751377134603,-0.10664341899125387
799,0.06023959601515604,74.97637109058313,1.2526492375038765,0.10665608359215982,-0.1294780182974606
800,0.060239497329008414,74.97637109058313,1.2432357213816145,0.10555023749001856,-0.15271515961104024
801,0.06023939865703829,74.97637109058313,1.2324882620396471,0.1044949277623339,-0.17512397265960394
802,0.0602392999992658,74.97637109058313,1.221380108799939,0.10361622771079719,-0.19545673245028503
803,0.06023920135571105,74.97637109058313,1.2108788247077924,0.10301675461027657,-0.212577629265375
804,0.06023910272639417,74.97637109058313,1.2017850633740244,0.10275646122023188,-0.2255942823756647
805,0.060239004111335245,74.97637109058313,1.1946265601708803,0.10284310856018668,-0.2339546023644502
806,0.060238905510554414,74.97637109058313,1.1896280416194085,0.10323447268260148,-0.23748116875548925
807,0.0602388069240718,74.97637109058313,1.1867545038610579,0.10385207698478796,-0.23634043832283289
808,0.0602387083519075,74.97637109058313,1.1857977742009178,0.10460104795317536,-0.23096547175228038
809,0.06023860979408161,74.97637109058313,1.1864617746327186,0.10538758207233104,-0.221958692792581
810,0.06023851125061423,74.97637109058313,1.1884180804454985,0.10612976201091989,-0.20999793536608932
811,0.06023841272152547,74.97637109058313,1.1913374928116298,0.10676380714825058,-0.19576176211702165
812,0.06023831420683542,74.97637109058313,1.1949184113900837,0.10724879587272688,-0.17988330803509794
813,0.06023821570656419,74.97637109058313,1.198913796543547,0.1075693053313859,-0.1629352054258952
814,0.060238117220731885,74.97637109058313,1.2031389167069615,0.10773353123181945,-0.1454396438106928
815,0.060238018749358635,74.97637109058313,1.2074517367255282,0.1077668829848111,-0.12788958298497624
816,0.060237920292464546,74.97637109058313,1.2117217816095325,0.1077035869188001,-0.11076361764207786
817,0.0602378218500697,74.97637109058313,1.2158109522140133,0.10757868403567188,-0.09452047555414658
818,0.06023772342219419,74.97637109058313,1.2195756537556255,0.10742217947850474,-0.0795702675962569
819,0.06023762500885814,74.97637109058313,1.2228837632675091,0.10725648994918818,-0.06623411419500201
820,0.06023752661008165,74.97637109058313,1.2256346774655709,0.10709676411548977,-0.054712739381681925
821,0.060237428225884834,74.97637109058313,1.2277721225853744,0.10695241445456571,-0.045080640434342394
822,0.06023732985628778,74.97637109058313,1.2292843571459384,0.10682849816267442,-0.03730630143002729
823,0.0602372315013106,74.97637109058313,1.230194616638221,0.10672687421754935,-0.0312830701554699
824,0.06023713316097339,74.97637109058313,1.230551654862644,0.10664782713513771,-0.02685405829432542
825,0.060237034835296244,74.97637109058313,1.2304278784590814,0.10659195509010753,-0.02382647111422879
826,0.06023693652429927,74.97637109058313,1.2299223300940731,0.10656102130827967,-0.021980621564307218
827,0.06023683822800258,74.97637109058313,1.2291594565296227,0.1065572838355211,-0.021078519843213506
828,0.06023673994642631,74.97637109058313,1.2282770314500802,0.1065822572479461,-0.02087422038493345
829,0.06023664167959056,74.97637109058313,1.2274039559062335,0.10663545470596639,-0.02112841500924532
830,0.06023654342751543,74.97637109058313,1.2266351012148673,0.10671270853102023,-0.021627286624857196
831,0.060236445190221026,74.97637109058313,1.2260112717735003,0.10680467434092697,-0.0221994800336036
832,0.060236346967727464,74.97637109058313,1.225512149617205,0.10689738959851204,-0.022722897954099548
833,0.060236248760054845,74.97637109058313,1.2250709184540853,0.10697552595062312,-0.023117896965781506
834,0.060236150567223236,74.97637109058313,1.2246108276237675,0.10702655617822558,-0.023331261635203285
835,0.06023605238925275,74.97637109058313,1.2240871165684408,0.10704344961227119,-0.023320594956571693
836,0.06023595422616351,74.97637109058313,1.2235106759325338,0.10702518126766504,-0.023047611457288612
837,0.06023585607797566,74.97637109058313,1.222942211949938,0.10697601813234242,-0.02248216995152225
838,0.06023575794470928,74.97637109058313,1.2224655525574488,0.10690458821729588,-0.021612762558858196
839,0.060235659826384465,74.97637109058313,1.222156672494493,0.10682294087699329,-0.0204580288390174
840,0.0602355617230213,74.97637109058313,1.2220587210008764,0.10674504854931012,-0.01907552063822942
841,0.06023546363463989,74.97637109058313,1.222166381465592,0.1066842110471147,-0.01756433404366709
842,0.06023536556126035,74.97637109058313,1.2224228608813759,0.1066503625533241,-0.01605754833475007
843,0.0602352675029028,74.97637109058313,1.2227347237798138,0.10664907213973465,-0.014702233190495764
844,0.060235169459587345,74.97637109058313,1.2230057201957896,0.10668217807775704,-0.013630384477909941
845,0.0602350714313341,74.97637109058313,1.2231801585950228,0.10674864627300985,-0.012929777587893793
846,0.06023497341816317,74.97637109058313,1.2232776057349755,0.10684529635931841,-0.01262528018771069
847,0.060234875420094675,74.97637109058313,1.2234034908401974,0.10696794174627464,-0.012678049464157874
848,0.06023477743714869,74.97637109058313,1.2237338815355843,0.10711298271436388,-0.013003976107546215
849,0.060234679469345326,74.97637109058313,1.2244850857043443,0.10727882651954344,-0.013507360208331435
850,0.06023458151670468,74.97637109058313,1.2258787253882377,0.10746661142148958,-0.014124169819788167
851,0.06023448357924687,74.97637109058313,1.2281030601560745,0.10767977532045317,-0.014868330303326082
852,0.06023438565699199,74.97637109058313,1.231268013902552,0.10792125585794694,-0.015870649952595236
853,0.06023428774996012,74.97637109058313,1.235360954344302,0.10818789223764003,-0.017398284545127256
854,0.06023418985817139,74.97637109058313,1.2402178940771382,0.10846465307987077,-0.019846847040463467
855,0.060234091981645886,74.97637109058313,1.2455192627792073,0.10872215543903858,-0.023702755690606224
856,0.06023399412040372,74.97637109058313,1.2508079875619322,0.10891860664721498,-0.029479489270023727
857,0.060233896274465015,74.97637109058313,1.2555248560905041,0.10900581466994044,-0.03763949701028528
858,0.06023379844384988,74.97637109058313,1.259063365376665,0.10893835672861792,-0.04851781208748117
859,0.060233700628578433,74.97637109058313,1.260847246423571,0.10868363109755985,-0.06225969187311294
860,0.060233602828670796,74.97637109058313,1.2604214722715354,0.1082301274497646,-0.07877741518380074
861,0.060233505044147054,74.97637109058313,1.257536744217323,0.10759284095068791,-0.09772777443397274
862,0.060233407275027316,74.97637109058313,1.2522097541820245,0.10681592162119419,-0.11851294233351727
863,0.06023330952133171,74.97637109058313,1.2447450421423432,0.10597131261286935,-0.14030846449307596
864,0.06023321178308035,74.97637109058313,1.2357004176145572,0.10515028555783885,-0.16212031552359427
865,0.06023311406029333,74.97637109058313,1.2257892878274241,0.10444687706104315,-0.18286893268700607
866,0.06023301635299072,74.97637109058313,1.215750157244518,0.10393784999772462,-0.20149101909927977
867,0.060232918661192646,74.97637109058313,1.2062383165127326,0.10366713114489363,-0.21703941577519137
868,0.060232820984919215,74.97637109058313,1.1977767907648948,0.1036409154155938,-0.22875530371674024
869,0.06023272332419053,74.97637109058313,1.1907606220781335,0.10383411681201377,-0.23609764233063352
870,0.060232625679026694,74.97637109058313,1.185479910358809,0.10420243013391657,-0.23873925208181643
871,0.0602325280494478,74.97637109058313,1.182135254300956,0.1046925365116888,-0.2365550303379835
872,0.06023243043547393,74.97637109058313,1.1808427126506371,0.10524782805407501,-0.22962088148337464
873,0.06023233283712518,74.97637109058313,1.1816308610249175,0.10581231829518487,-0.21822281582377862
874,0.06023223525442167,74.97637109058313,1.1844255497379952,0.10633598681731891,-0.20286476329046257
875,0.06023213768738352,74.97637109058313,1.1890221752633499,0.10678139042346323,-0.18426675517056673
876,0.06023204013603084,74.97637109058313,1.1950634289855366,0.10712807532941163,-0.16334908657974256
877,0.06023194260038373,74.97637109058313,1.2020487183326563,0.10737197985880982,-0.14119320449926273
878,0.060231845080462316,74.97637109058313,1.2093837805742629,0.1075204597068873,-0.11896581625051718
879,0.060231747576286694,74.97637109058313,1.2164577755724524,0.10758591549687578,-0.09780371514912811
880,0.06023165008787695,74.97637109058313,1.2227300100563043,0.10758126249700889,-0.07868177087715818
881,0.06023155261525321,74.97637109058313,1.2278084457409735,0.10751898220216068,-0.06230340122351084
882,0.06023145515843557,74.97637109058313,1.2314997143485853,0.10741266684031207,-0.049044199045871914
883,0.06023135771744417,74.97637109058313,1.2338144834704108,0.10727840641056485,-0.0389568423415419
884,0.060231260292299124,74.97637109058313,1.2349280938872385,0.10713443049231526,-0.03182781855798405
885,0.06023116288302051,74.97637109058313,1.2351133286247618,0.10699899325665911,-0.027265939734667708
886,0.060231065489628435,74.97637109058313,1.2346666627585452,0.10688726490647507,-0.024798370732756526
887,0.06023096811214298,74.97637109058313,1.233845023144194,0.10680848208584785,-0.023954925173731764
888,0.060230870750584274,74.97637109058313,1.2328253869593557,0.10676477004916508,-0.024330222719104212
889,0.06023077340497242,74.97637109058313,1.2316942572632985,0.10675226809868936,-0.025617809075078705
890,0.06023067607532751,74.97637109058313,1.230465685595651,0.10676376384422813,-0.02761299742893432
891,0.060230578761669686,74.97637109058313,1.2291156094243816,0.10679113509613367,-0.030187481444510892
892,0.06023048146401904,74.97637109058313,1.227614950698347,0.10682637355276423,-0.03324700643901803
893,0.060230384182395694,74.97637109058313,1.2259515126238727,0.10686158138472249,-0.036688125147306454
894,0.060230286916819725,74.97637109058313,1.2241430492609557,0.10688902867440749,-0.04036713091760006
895,0.06023018966731124,74.97637109058313,1.2222471109929502,0.10690141222351558,-0.044086858236555865
896,0.060230092433890346,74.97637109058313,1.2203662597904996,0.10689240206044945,-0.04760308687361062
897,0.06022999521657716,74.97637109058313,1.2186422282096818,0.10685837897656465,-0.05065024018334346
898,0.06022989801539181,74.97637109058313,1.2172369716576739,0.10680116307683106,-0.052980463083557305
899,0.060229800830354396,74.97637109058313,1.2163049682441816,0.10672946007059529,-0.05440473672465372
900,0.060229703661485015,74.97637109058313,1.2159620098718966,0.10665711576282332,-0.05482457884757256
901,0.060229606508803775,74.97637109058313,1.216254729585423,0.10659903334924181,-0.05424781496988795
902,0.060229509372330785,74.97637109058313,1.2171393604419174,0.10656735061131518,-0.052787194518698594
903,0.06022941225208615,74.97637109058313,1.2184832096936369,0.10656957031214771,-0.05064158352314616
904,0.06022931514808996,74.97637109058313,1.2200953970396873,0.10660853362788972,-0.04806101723227351
905,0.060229218060362334,74.97637109058313,1.2217761678583623,0.10668311261689352,-0.045304218299458965
906,0.06022912098892336,74.97637109058313,1.2233623697018545,0.10678856736600399,-0.04260233494907277
907,0.0602290239337931,74.97637109058313,1.2247510121742735,0.1069166253527274,-0.040139096222907754
908,0.06022892689499165,74.97637109058313,1.225898928504942,0.10705637398785352,-0.03804924410927437
909,0.060228829872539136,74.97637109058313,1.2268092865354119,0.1071960913128282,-0.036428078441760374
910,0.06022873286645567,74.97637109058313,1.2275151508980011,0.10732444749896197,-0.035340819574296044
911,0.06022863587676138,74.97637109058313,1.228061629661181,0.10743032638211836,-0.03482642137077726
912,0.060228538903476375,74.97637109058313,1.228484192900893,0.10750251021841364,-0.03489808183964924
913,0.06022844194662076,74.97637109058313,1.2287878576978044,0.10753055334849532,-0.03554251183264008
914,0.06022834500621464,74.97637109058313,1.228940489437991,0.1075071937171353,-0.03671776039948106
915,0.06022824808227814,74.97637109058313,1.2288876617713713,0.1074315597147664,-0.038351100242069884
916,0.060228151174831365,74.97637109058313,1.2285785298669563,0.10731099691771369,-0.04034043553995028
917,0.06022805428389444,74.97637109058313,1.2279845292411717,0.1071597320442713,-0.04256116700151176
918,0.06022795740948749,74.97637109058313,1.2271040570921603,0.10699539514978272,-0.04487710205522662
919,0.060227860551630624,74.97637109058313,1.225959134015519,0.1068357509638594,-0.04715263881524006
920,0.06022776371034392,74.97637109058313,1.2245918164118235,0.10669649109431867,-0.04926409562790039
921,0.06022766688564747,74.97637109058313,1.2230631870755835,0.10658977151987807,-0.05110830064332974
922,0.06022757007756137,74.97637109058313,1.2214539238834157,0.10652352610090604,-0.05260657606794536
923,0.06022747328610571,74.97637109058313,1.219866042732213,0.10650194792963431,-0.0537034914558746
924,0.0602273765113006,74.97637109058313,1.2184272525935875,0.10652708583758246,-0.054363253386318436
925,0.06022727975316615,74.97637109058313,1.217296536927075,0.1066004764889554,-0.05457034998520727
926,0.06022718301172247,74.97637109058313,1.216661706457486,0.10672332174127255,-0.05433951365624995
927,0.06022708628698964,74.97637109058313,1.2167184830749966,0.10689487307524252,-0.053732179942563525
928,0.060226989578987755,74.97637109058313,1.2176359857138221,0.10711051959348929,-0.0528697091271036
929,0.06022689288773695,74.97637109058313,1.2195295698359834,0.10736179331722846,-0.05193564644143741
930,0.06022679621325734,74.97637109058313,1.222455129238635,0.10763899251924504,-0.05116905860987746
931,0.06022669955556903,74.97637109058313,1.2264161437203802,0.10793438833984294,-0.050858391936200543
932,0.06022660291469214,74.97637109058313,1.2313622627023642,0.10824241998955351,-0.05134306226113784
933,0.060226506290646784,74.97637109058313,1.2371656283304582,0.1085546696561939,-0.05301945422802507
934,0.06022640968345309,74.97637109058313,1.243580479124928,0.10885168699980777,-0.05633672375757396
935,0.06022631309313114,74.97637109058313,1.2502072774996646,0.1090970549024885,-0.061767894241772196
936,0.06022621651970106,74.97637109058313,1.2564826635583004,0.10923784408361395,-0.06975478027362632
937,0.06022611996318295,74.97637109058313,1.261708776509648,0.10921226397214527,-0.08063523509403756
938,0.060226023423596925,74.97637109058313,1.2651288654941593,0.10896288153759151,-0.09456270170348567
939,0.06022592690096307,74.97637109058313,1.2660442986259859,0.1084520321110362,-0.11143181954721046
940,0.06022583039530146,74.97637109058313,1.2639522682574493,0.10767573992999858,-0.13082845273494892
941,0.06022573390663221,74.97637109058313,1.2586743514922811,0.10667354969085238,-0.15201871311487963
942,0.06022563743497542,74.97637109058313,1.2504435097338582,0.10553142878551597,-0.17398187262886108
943,0.0602255409803512,74.97637109058313,1.2399156570665382,0.10437350570614247,-0.19548473792926685
944,0.060225444542779644,74.97637109058313,1.2280813252186533,0.10334062103914383,-0.2151937214027736
945,0.06022534812228088,74.97637109058313,1.2160891555695954,0.10256090863861232,-0.23181874280551276
946,0.06022525171887501,74.97637109058313,1.205037949421529,0.10212326596334832,-0.24426962205092648
947,0.06022515533258213,74.97637109058313,1.1958057738923449,0.10206307044088024,-0.25178869496424156
948,0.06022505896342236,74.97637109058313,1.1889554722040478,0.10236295021891532,-0.2540243253577646
949,0.0602249626114158,74.97637109058313,1.1847138344899548,0.10296410397506305,-0.25103173284340224
950,0.06022486627658258,74.97637109058313,1.182999059200912,0.10378044357768129,-0.2432122319598426
951,0.060224769958942805,74.97637109058313,1.1834831203579108,0.10471162128675808,-0.23121473190512243
952,0.06022467365851658,74.97637109058313,1.1856902629402308,0.1056561915839837,-0.21582452645632177
953,0.06022457737532402,74.97637109058313,1.1891139964243798,0.10652580827226037,-0.19786230047033293
954,0.06022448110938525,74.97637109058313,1.1933108439053945,0.10725746876416994,-0.17811265307219587
955,0.060224384860720334,74.97637109058313,1.1979410371240016,0.10781952279765748,-0.15729134280007903
956,0.06022428862934938,74.97637109058313,1.2027619949540749,0.10820972230159338,-0.13604575725478388
957,0.06022419241529249,74.97637109058313,1.2076013613529735,0.108446900822572,-0.11497339646608404
958,0.06022409621856978,74.97637109058313,1.2123284247666961,0.1085598719643771,-0.09464183085340608
959,0.060224000039201336,74.97637109058313,1.216826768515287,0.1085772866622366,-0.0755961441103359
960,0.06022390387720729,74.97637109058313,1.2209692078860617,0.10852086881046301,-0.05834619790718931
961,0.060223807732607756,74.97637109058313,1.2246041250843809,0.10840323890984956,-0.04333653951297967
962,0.060223711605422836,74.97637109058313,1.2275638660416446,0.10823040971409904,-0.030908016551782956
963,0.0602236154956726,74.97637109058313,1.2296951955412114,0.1080071104659038,-0.021259653302614912
964,0.06022351940337716,74.97637109058313,1.230898425881994,0.10774202167449198,-0.014420359967975468
965,0.06022342332855663,74.97637109058313,1.2311584438766068,0.10745076183788448,-0.010241197659073909
966,0.06022332727123113,74.97637109058313,1.2305579933757635,0.10715539355905379,-0.00841234367625362
967,0.06022323123142077,74.97637109058313,1.2292713950925638,0.10688054330793062,-0.00850025679210479
968,0.06022313520914566,74.97637109058313,1.2275406076016087,0.10664859876027624,-0.009998447264186663
969,0.06022303920442593,74.97637109058313,1.2256387618778144,0.1064767455412839,-0.012385298868224322
970,0.06022294321728165,74.97637109058313,1.2238302542415358,0.10637600918084078,-0.015179617109615068
971,0.06022284724773292,74.97637109058313,1.2223368042436014,0.10635097402808004,-0.017982881877115046
972,0.06022275129579984,74.97637109058313,1.221314285834754,0.1063994304711287,-0.02050083241379323
973,0.060222655361502515,74.97637109058313,1.2208411527670295,0.10651205909178263,-0.02254630369705455
974,0.06022255944486107,74.97637109058313,1.2209186256406823,0.10667292780388583,-0.024033321335021212
975,0.06022246354589561,74.97637109058313,1.221480314085231,0.10686103551051107,-0.02496941921912541
976,0.06022236766462626,74.97637109058313,1.2224045285354541,0.10705218388739111,-0.025443814200387257
977,0.060222271801073125,74.97637109058313,1.2235252239685683,0.10722132481633471,-0.025607078477265975
978,0.06022217595525631,74.97637109058313,1.2246469437479,0.10734617906612291,-0.025641903097753774
979,0.06022208012719593,74.97637109058313,1.2255729506346864,0.10741137343373791,-0.025725996522113083
980,0.06022198431691211,74.97637109058313,1.2261465271338732,0.10741139921447362,-0.02599117712169208
981,0.06022188852442491,74.97637109058313,1.2262882471135546,0.10735178240118635,-0.026491691743039503
982,0.06022179274975442,74.97637109058313,1.2260056274635038,0.10724817007806532,-0.02719747725875128
983,0.06022169699292078,74.97637109058313,1.2253690165408944,0.1071224409812303,-0.028014210967188966
984,0.06022160125394409,74.97637109058313,1.224472520894938,0.10699661728311106,-0.028815117989220505
985,0.06022150553284445,74.97637109058313,1.2234063625527285,0.10688777179786006,-0.029467577703647274
986,0.06022140982964196,74.97637109058313,1.2222531801478642,0.1068063949803706,-0.02984806794867542
987,0.060221314144356726,74.97637109058313,1.22109968713549,0.10675786289866555,-0.029849648885157287
988,0.06022121847700883,74.97637109058313,1.220044637919067,0.1067447716671078,-0.029391216928960486
989,0.06022112282761839,74.97637109058313,1.2191922151783612,0.10676801990074158,-0.028434701504438158
990,0.060221027196205534,74.97637109058313,1.2186369841844136,0.10682623087793522,-0.027005862326439662
991,0.06022093158279037,74.97637109058313,1.2184528973776074,0.10691477306019101,-0.025206060022645492
992,0.060220835987393,74.97637109058313,1.2186905162684987,0.10702587337178437,-0.02320568674416702
993,0.06022074041003356,74.97637109058313,1.2193809037486254,0.10715062478942712,-0.02122053034047157
994,0.060220644850732134,74.97637109058313,1.2205484790752044,0.10728278626811945,-0.019480696853296984
995,0.06022054930950883,74.97637109058313,1.2222325143164494,0.1074229192273541,-0.01820647963779437
996,0.060220453786383764,74.97637109058313,1.2245020849506885,0.10757980350631254,-0.017605493765384967
997,0.060220358281377034,74.97637109058313,1.2274448858435119,0.10776657938133834,-0.017894200221310608
998,0.06022026279450876,74.97637109058313,1.2311293357917343,0.10799328392290578,-0.01932928453026476
999,0.06022016732579905,74.97637109058313,1.2355583425569805,0.10826041543217411,-0.022226787257662174
1000,0.06022007187526798,74.97637109058313,1.2406308558093946,0.10855541558981974,-0.026955338865623953
1001,0.06021997644293565,74.97637109058313,1.2461154363690454,0.10885084621535922,-0.03390288034531723
1002,0.06021988102882214,74.97637109058313,1.2516374376677533,0.10910411105042558,-0.043422580031946545
1003,0.06021978563294757,74.97637109058313,1.2566886922425557,0.10926028200378156,-0.05576491518326714
1004,0.06021969025533207,74.97637109058313,1.260672042073871,0.10925912529750809,-0.071005999171432
1005,0.06021959489599575,74.97637109058313,1.2629809708226027,0.10904572471233279,-0.08898786746187592
1006,0.06021949955495875,74.97637109058313,1.2630945437084835,0.10858252788292179,-0.10928872336842946
1007,0.06021940423224118,74.97637109058313,1.260662114549972,0.10786022633237434,-0.13123377217444746
1008,0.06021930892786315,74.97637109058313,1.2555667388489655,0.10690550528409609,-0.15394139491707803
1009,0.06021921364184476,74.97637109058313,1.2479695411802454,0.10578414081462362,-0.17638647356525625
1010,0.06021911837420611,74.97637109058313,1.2383298048123508,0.10459743681403623,-0.19746401160618957
1011,0.06021902312496731,74.97637109058313,1.2273792649639406,0.10347000257194308,-0.21605088507179493
1012,0.06021892789414844,74.97637109058313,1.2160355026063094,0.1025298689965908,-0.23107750311337769
1013,0.0602188326817696,74.97637109058313,1.2052693168733717,0.10188623075099813,-0.2416189698392506
1014,0.06021873748785089,74.97637109058313,1.1959601112069038,0.10161082858238647,-0.246997683535566
1015,0.060218642312412425,74.97637109058313,1.1887724145115957,0.10172651944854647,-0.24687258483524166
1016,0.06021854715547429,74.97637109058313,1.1840836391469953,0.10220514285608748,-0.24128762872265702
1017,0.0602184520170566,74.97637109058313,1.18198126401955,0.10297603894060187,-0.23066379017339145
1018,0.06021835689717946,74.97637109058313,1.182316012539555,0.10394320964767367,-0.21573786825611282
1019,0.060218261795862996,74.97637109058313,1.1847711744137794,0.10500440740872855,-0.19746819447448483
1020,0.06021816671312731,74.97637109058313,1.18891631623541,0.10606497442167913,-0.17693243454639918
1021,0.060218071648992524,74.97637109058313,1.194247011957354,0.10704439642122217,-0.1552335942880729
1022,0.06021797660347875,74.97637109058313,1.200230533294424,0.10787862154639744,-0.13341736567528262
1023,0.0602178815766061,74.97637109058313,1.2063624750576811,0.10852214214984747,-0.11239970179319195
1024,0.06021778656839468,74.97637109058313,1.2122176666092261,0.10895146762385166,-0.09291002681696534
1025,0.06021769157886461,74.97637109058313,1.2174780883959653,0.10916775772145264,-0.07546110550946271
1026,0.060217596608036,74.97637109058313,1.2219374731967092,0.10919478379291923,-0.06034959723541528
1027,0.06021750165592894,74.97637109058313,1.2254938983146049,0.10907180311900387,-0.04768018505001719
1028,0.060217406722563524,74.97637109058313,1.2281371419194596,0.10884501632264029,-0.03740484200756774
1029,0.06021731180795983,74.97637109058313,1.2299304635118686,0.10856083020452731,-0.02937078855682237
1030,0.060217216912137966,74.97637109058313,1.2309866724777707,0.10826107210705055,-0.02336741913416618
1031,0.060217122035118045,74.97637109058313,1.2314411905678182,0.1079789872286411,-0.019162418316004775
1032,0.060217027176920165,74.97637109058313,1.2314260172146234,0.10773599141185283,-0.016525948441188522
1033,0.06021693233756445,74.97637109058313,1.2310477381716034,0.10754040140081672,-0.015248079020154242
1034,0.060216837517071,74.97637109058313,1.2303731678479328,0.10738862128387687,-0.015149568712833886
1035,0.06021674271545994,74.97637109058313,1.229427998973863,0.10726771425158196,-0.016079254031883383
1036,0.06021664793275137,74.97637109058313,1.2282107930078852,0.1071588620445879,-0.017895433182440898
1037,0.06021655316896538,74.97637109058313,1.2267174497533413,0.10704267067601045,-0.020439261996302412
1038,0.060216458424122106,74.97637109058313,1.224967711055282,0.1069059436139522,-0.023512220171495506
1039,0.06021636369824167,74.97637109058313,1.2230270751288352,0.10674714669092371,-0.02686473340118893
1040,0.06021626899134419,74.97637109058313,1.2210199731555555,0.10657830326893274,-0.030197972217058333
1041,0.06021617430344978,74.97637109058313,1.2191299796448056,0.10642291067469783,-0.033181589615932344
1042,0.06021607963457853,74.97637109058313,1.2175835426278503,0.10631037295091614,-0.03549078902202974
1043,0.06021598498475054,74.97637109058313,1.2166200223216803,0.10626884893780329,-0.036859414229051424
1044,0.060215890353985925,74.97637109058313,1.2164588848213074,0.10631955527357094,-0.03713655626338595
1045,0.06021579574230477,74.97637109058313,1.2172754428113752,0.10647402812684457,-0.03633147258000546
1046,0.06021570114972717,74.97637109058313,1.2191871916773045,0.10673340291397534,-0.03463585546585317
1047,0.06021560657627322,74.97637109058313,1.2222420661192566,0.1070881905123961,-0.032419730099627654
1048,0.06021551202196304,74.97637109058313,1.2263990826122086,0.1075178034758564,-0.03020406426463665
1049,0.060215417486816754,74.97637109058313,1.2315022076170425,0.10798991830471723,-0.02861664602434446
1050,0.06021532297085447,74.97637109058313,1.237258135825595,0.10846056559830017,-0.02833878206643739
1051,0.06021522847409628,74.97637109058313,1.243228575706491,0.10887623567662182,-0.03004850714525911
1052,0.060215133996562295,74.97637109058313,1.2488452482569248,0.10917863997947345,-0.03435857569209746
1053,0.06021503953827263,74.97637109058313,1.2534574485287733,0.10931177422197971,-0.04174290637963808
1054,0.060214945099247415,74.97637109058313,1.2564159812594995,0.1092304812235848,-0.05245516096034771
1055,0.06021485067950673,74.97637109058313,1.257178956293871,0.10890938364567722,-0.06645910034794078
1056,0.06021475627907068,74.97637109058313,1.255411462511753,0.10835050746483527,-0.08339254859209241
1057,0.06021466189795937,74.97637109058313,1.2510568070471064,0.10758792766686737,-0.10257289339730885
1058,0.06021456753619289,74.97637109058313,1.2443724469767765,0.10668838165155692,-0.12303782237060382
1059,0.060214473193791355,74.97637109058313,1.235926852698499,0.10574660223760646,-0.14361308123554076
1060,0.060214378870774854,74.97637109058313,1.226543185394515,0.10487348828593937,-0.16300613792630383
1061,0.06021428456716348,74.97637109058313,1.2171790294146743,0.10417719726353876,-0.17992708647273128
1062,0.06021419028297736,74.97637109058313,1.2087623232554092,0.10374187526196973,-0.19322854791280525
1063,0.0602140960182366,74.97637109058313,1.2020335928898784,0.10361106697073853,-0.20204298014920447
1064,0.06021400177296132,74.97637109058313,1.197439092225192,0.1037802997446171,-0.20588998211574988
1065,0.06021390754717165,74.97637109058313,1.195092045828704,0.10419968912012799,-0.20472700272496747
1066,0.0602138133408877,74.97637109058313,1.1948050825480632,0.10478620621230925,-0.19892424958129423
1067,0.06021371915412958,74.97637109058313,1.1961858361028757,0.10544369551716053,-0.1891686274303131
1068,0.06021362498691741,74.97637109058313,1.1987591543554363,0.106084223818003,-0.17633396324388267
1069,0.06021353083927128,74.97637109058313,1.2020641293378647,0.10664282142356238,-0.16136389739895954
1070,0.060213436711211286,74.97637109058313,1.2056996788276204,0.10708284668437344,-0.14519056343014994
1071,0.06021334260275756,74.97637109058313,1.20933161963366,0.10739406294032022,-0.1286838958628456
1072,0.06021324851393022,74.97637109058313,1.2126894727011173,0.10758612774893148,-0.11261623858429387
1073,0.06021315444474936,74.97637109058313,1.2155686710776108,0.10767992793469258,-0.0976318652353831
1074,0.060213060395235066,74.97637109058313,1.2178355858522503,0.10769924600061608,-0.08421957723791478
1075,0.06021296636540745,74.97637109058313,1.2194278188692058,0.10766490062874472,-0.07269328534374038
1076,0.06021287235528663,74.97637109058313,1.2203499026550226,0.10759250445204215,-0.06318712448239466
1077,0.0602127783648927,74.97637109058313,1.220669414632425,0.10749320409649515,-0.05566688340754588
1078,0.06021268439424576,74.97637109058313,1.2205119662024733,0.10737561459496163,-0.0499551556532211
1079,0.06021259044336592,74.97637109058313,1.2200475960163675,0.10724757916418626,-0.04576886002289215
1080,0.06021249651227326,74.97637109058313,1.2194665433174965,0.10711725319606782,-0.04276703219747131
1081,0.060212402600987945,74.97637109058313,1.2189513732686557,0.10699330474635821,-0.04059969137541423
1082,0.060212308709530066,74.97637109058313,1.2186540272721822,0.10688411641313947,-0.03894596473216299
1083,0.06021221483791972,74.97637109058313,1.2186813474323797,0.10679672035385465,-0.0375374796750489
1084,0.06021212098617701,74.97637109058313,1.2190889995393805,0.10673672642414989,-0.036170623240915835
1085,0.06021202715432205,74.97637109058313,1.2198828648197215,0.10670889754669778,-0.034710955490412
1086,0.06021193334237493,74.97637109058313,1.2210245429601956,0.10671665079379355,-0.033091928100301884
1087,0.060211839550355764,74.97637109058313,1.2224365382809006,0.10676040170512284,-0.03131226022391205
1088,0.06021174577828465,74.97637109058313,1.224006590327157,0.10683647609605687,-0.02943474938739168
1089,0.06021165202618171,74.97637109058313,1.2255943299346346,0.1069372987485643,-0.02758252805701097
1090,0.06021155829406704,74.97637109058313,1.2270429276681942,0.10705189959378568,-0.025925500779796485
1091,0.06021146458196075,74.97637109058313,1.2281953363173954,0.107166172748041,-0.02465445718537286
1092,0.060211370889882945,74.97637109058313,1.228912624871969,0.10726394753764171,-0.023948338946339878
1093,0.06021127721785375,74.97637109058313,1.2290929866195244,0.1073299753821652,-0.02394299932322625
1094,0.06021118356589325,74.97637109058313,1.2286910625362273,0.10735365944725762,-0.02470518024618401
1095,0.06021108993402156,74.97637109058313,1.227733665103145,0.107330839925862,-0.02621213792992971
1096,0.06021099632225879,74.97637109058313,1.2263230004955665,0.10726279206147277,-0.028341691707446312
1097,0.06021090273062507,74.97637109058313,1.2246202539342916,0.10715459092246313,-0.030881066436966434
1098,0.06021080915914049,74.97637109058313,1.2228114821882203,0.10701500921924151,-0.033556904951147756
1099,0.060210715607825184,74.97637109058313,1.221067301205028,0.1068572546889917,-0.036077382586996797
1100,0.06021062207669925,74.97637109058313,1.2195124690401953,0.10669850395190382,-0.038171018166626915
1101,0.06021052856578275,74.97637109058313,1.218216226038297,0.10655793240934035,-0.03961147199907282
1102,0.060210435075095804,74.97637109058313,1.217200896797166,0.10645438772686579,-0.0402272131740942
1103,0.060210341604658525,74.97637109058313,1.216459598732095,0.10640424901300789,-0.039899354038440596
1104,0.060210248154491025,74.97637109058313,1.2159811556243738,0.10641967375893724,-0.03855321250138119
1105,0.06021015472461341,74.97637109058313,1.2157844711164656,0.1065080002657509,-0.03615491847423438
1106,0.0602100613150458,74.97637109058313,1.2159518437020584,0.10667249382870113,-0.03272428051460862
1107,0.06020996792580828,74.97637109058313,1.2166392556695689,0.10691339401838929,-0.0283635097070716
1108,0.060209874556921,74.97637109058313,1.21805253744462,0.1072280939065151,-0.023289807048783272
1109,0.06020978120840405,74.97637109058313,1.2203993746235455,0.10760985077337935,-0.01785724199771783
1110,0.06020968788027754,74.97637109058313,1.2238354830445113,0.10804546543704219,-0.012558740552765164
1111,0.060209594572561594,74.97637109058313,1.2284163013120115,0.10851325679205365,-0.00800805895299292
1112,0.06020950128527632,74.97637109058313,1.2340561165319042,0.10898204431048349,-0.004906419051540712
1113,0.06020940801844184,74.97637109058313,1.2404982619103835,0.10941147346421017,-0.003994636735571535
1114,0.060209314772078214,74.97637109058313,1.247311597981499,0.1097547818507639,-0.005986854553876943
1115,0.06020922154620555,74.97637109058313,1.2539266199794725,0.10996387287403743,-0.011486304569194907
1116,0.060209128340843965,74.97637109058313,1.2597016149791282,0.1099943114770606,-0.02089439563451119
1117,0.060209035156013536,74.97637109058313,1.263996500093931,0.10980927932872042,-0.0343319387738533
1118,0.060208941991734384,74.97637109058313,1.26624286102605,0.10938445974784533,-0.05159193150518018
1119,0.060208848848026617,74.97637109058313,1.266008147604279,0.10871477696023965,-0.07213833966522203
1120,0.06020875572491035,74.97637109058313,1.2630513513361976,0.10782077203329052,-0.0951537283273376
1121,0.0602086626224057,74.97637109058313,1.2573687199511672,0.10675229676487097,-0.11962189515980479
1122,0.060208569540532775,74.97637109058313,1.2492276688708375,0.10558887262898273,-0.1444198648561541
1123,0.06020847647931168,74.97637109058313,1.239175281931009,0.10443497794481707,-0.16839808193368128
1124,0.0602083834387625,74.97637109058313,1.2279959446464044,0.10340698910314362,-0.1904466264988482
1125,0.06020829041890538,74.97637109058313,1.216607059251256,0.10261260716135387,-0.2095598071879724
1126,0.060208197419760405,74.97637109058313,1.2059204881814407,0.10213037686870916,-0.2249054635385214
1127,0.060208104441347686,74.97637109058313,1.1967186066969344,0.1019975051045233,-0.23588800269427493
1128,0.06020801148368735,74.97637109058313,1.1895754174759405,0.10220868649428828,-0.24218608125557298
1129,0.0602079185467995,74.97637109058313,1.184821474501307,0.10272348988039806,-0.24375245319013314
1130,0.06020782563070421,74.97637109058313,1.182537838418457,0.10347705820517637,-0.2407788650533018
1131,0.06020773273542159,74.97637109058313,1.1825735868632952,0.10438909261286883,-0.23364258407487276
1132,0.06020763986097177,74.97637109058313,1.1845929927931362,0.10537052581505968,-0.2228519904740133
1133,0.06020754700737485,74.97637109058313,1.1881502993118096,0.10633154860674797,-0.2089999070845461
1134,0.06020745417465096,74.97637109058313,1.1927692560198322,0.10719285112346316,-0.19272808606864028
1135,0.0602073613628202,74.97637109058313,1.1979995760523865,0.10789637458780856,-0.17470589457722857
1136,0.06020726857190265,74.97637109058313,1.2034436360469547,0.1084103987555349,-0.1556216353542098
1137,0.06020717580191843,74.97637109058313,1.208767699460082,0.10872798020137676,-0.13617539035968387
1138,0.06020708305288766,74.97637109058313,1.2137086074327255,0.10886150985810328,-0.11705920414514115
1139,0.06020699032483045,74.97637109058313,1.2180755327710155,0.1088364901882447,-0.09891971581726382
1140,0.0602068976177669,74.97637109058313,1.221746525087195,0.10868631146178327,-0.08231091923408326
1141,0.06020680493171713,74.97637109058313,1.224663550557591,0.10844799383769968,-0.06765069297353783
1142,0.060206712266701254,74.97637109058313,1.2268280524667596,0.10815819394429846,-0.05519473405704464
1143,0.06020661962273936,74.97637109058313,1.2282947237412545,0.10785006040539662,-0.045037270895551255
1144,0.06020652699985155,74.97637109058313,1.2291603215973579,0.10755194881777322,-0.03713748951478426
1145,0.060206434398057944,74.97637109058313,1.2295465816402937,0.10728720845375879,-0.031359664441845826
1146,0.06020634181737865,74.97637109058313,1.2295779994559428,0.10707323770185843,-0.02751354696545148
1147,0.060206249257833744,74.97637109058313,1.229357752950942,0.10691973451458249,-0.025387821769331118
1148,0.060206156719443356,74.97637109058313,1.2289483809191522,0.10682793828943037,-0.0247729422340154
1149,0.06020606420222759,74.97637109058313,1.2283643480086393,0.10679173805451138,-0.025468186094352304
1150,0.06020597170620657,74.97637109058313,1.2275797062313705,0.10679946309148426,-0.027269756435751052
1151,0.060205879231400375,74.97637109058313,1.2265467054386532,0.10683518910799501,-0.029945539902017225
1152,0.060205786777829104,74.97637109058313,1.2252173041293997,0.10687995990671885,-0.0332097567705168
1153,0.06020569434551288,74.97637109058313,1.2235641045415637,0.1069140274127141,-0.03671178661020202
1154,0.06020560193447183,74.97637109058313,1.221601426828917,0.10692046061003335,-0.04004909258152221
1155,0.06020550954472607,74.97637109058313,1.2194034490846803,0.106889229915441,-0.042803520904254155
1156,0.0602054171762957,74.97637109058313,1.217111083496578,0.10682047143580366,-0.044586762168122004
1157,0.06020532482920083,74.97637109058313,1.2149219886247375,0.10672631757564925,-0.04507665393377918
1158,0.06020523250346158,74.97637109058313,1.2130693304337836,0.10663103975968023,-0.0440364024582857
1159,0.06020514019909805,74.97637109058313,1.2118034543867457,0.1065689869880512,-0.04132439680303651
1160,0.06020504791613032,74.97637109058313,1.211383527488381,0.10657989650010688,-0.036909904140904636
1161,0.06020495565457851,74.97637109058313,1.212067138283898,0.10670144975446687,-0.030902791359944035
1162,0.060204863414462705,74.97637109058313,1.2140788137873104,0.10695986435034499,-0.023588742207993393
1163,0.06020477119580302,74.97637109058313,1.2175564059471418,0.10736122197222742,-0.015449684748332856
1164,0.06020467899861957,74.97637109058313,1.2224958698988952,0.10788673051224847,-0.007152515442559596
1165,0.06020458682293248,74.97637109058313,1.2287164329907307,0.10849299158966401,0.0004963196628071729
1166,0.060204494668761876,74.97637109058313,1.2358548442445954,0.10911618727110026,0.006619874311106424
1167,0.06020440253612786,74.97637109058313,1.2433871145846884,0.10967901358395071,0.010350180499827503
1168,0.06020431042505054,74.97637109058313,1.2506751823858615,0.11010005662775692,0.010910471580873193
1169,0.06020421833555,74.97637109058313,1.2570362986649681,0.11030520265368311,0.007695944128927067
1170,0.060204126267646346,74.97637109058313,1.2618259146065496,0.11023966371091906,0.00034533277090102385
1171,0.06020403422135971,74.97637109058313,1.264515657798043,0.10987816844305533,-0.011208273172999295
1172,0.06020394219671019,74.97637109058313,1.264749857821439,0.10923033619649232,-0.0267173503351499
1173,0.060203850193717906,74.97637109058313,1.262378372295297,0.10833977413690936,-0.04563399633403501
1174,0.06020375821240294,74.97637109058313,1.2574772843421713,0.10727888907209829,-0.06715228674865294
1175,0.06020366625278542,74.97637109058313,1.2503660402182708,0.10614243116158195,-0.09026834118744809
