,time,sample_rate,Red,Green,Blue
0,-0.000827858207669023,74.44181549706052,0.867216576878224,0.0018367927492670452,-0.24227518151476468
1,-0.0008278562237647556,74.44181549706052,0.8634796958922534,0.0017220724282506312,-0.23929295479098497
2,-0.0008278541587520177,74.44181549706052,0.8599778308758623,0.0016144379388787458,-0.236004496627915
3,-0.0008278518951002539,74.44181549706052,0.8571041921801885,0.0015189197749826179,-0.2323310276836005
4,-0.0008278493423901828,74.44181549706052,0.8552868504233067,0.0014390434406059093,-0.2281816280322484
5,-0.0008278464448587181,74.44181549706052,0.854974726611384,0.0013765396380812185,-0.22347898221767398
6,-0.0008278431821242777,74.44181549706052,0.8565990172582405,0.0013314658541703208,-0.21820313472036462
7,-0.0008278395649855224,74.44181549706052,0.8605158725736882,0.0013024917916789201,-0.2124431280935582
8,-0.0008278356283451818,74.44181549706052,0.8669410419316899,0.001287185587394597,-0.20644316778461283
9,-0.0008278314230153711,74.44181549706052,0.8758802875565168,0.0012823787895837788,-0.2006294572585589
10,-0.0008278270077282022,74.44181549706052,0.8870591827199509,0.001284644579239294,-0.19560765735940616
11,-0.000827822442229444,74.44181549706052,0.899866187724475,0.001290765190607889,-0.19212793791602084
12,-0.0008278177819360045,74.44181549706052,0.9133295284576456,0.0012980891340643502,-0.1910234899134165
13,-0.000827813074316806,74.44181549706052,0.9261420558859644,0.0013047826287240106,-0.19313474715699205
14,-0.0008278083569198258,74.44181549706052,0.9367351837303901,0.0013099135215457463,-0.19922858294824913
15,-0.0008278036568127715,74.44181549706052,0.9434019558952088,0.0013132223962299626,-0.2099118275180561
16,-0.0008277989911212477,74.44181549706052,0.9444857248687135,0.0013145721502522548,-0.225533816082331
17,-0.0008277943683226953,74.44181549706052,0.9386577067633257,0.0013132674750325865,-0.24607997100664056
18,-0.0008277897899718077,74.44181549706052,0.9252722485005166,0.0013077996175232087,-0.2710721730644317
19,-0.0008277852525788918,74.44181549706052,0.9047135706027511,0.0012968593787899578,-0.29950378499698826
20,-0.0008277807494237161,74.44181549706052,0.8785778344919167,0.0012813199159248518,-0.3298434732299989
21,-0.0008277762721531164,74.44181549706052,0.8495431635234332,0.0012650037641549433,-0.3601377861646706
22,-0.0008277718120730545,74.44181549706052,0.8209038303682953,0.0012528229933079142,-0.3882199668770594
23,-0.0008277673610996358,74.44181549706052,0.7959139454410944,0.0012479027075483616,-0.41199145219992656
24,-0.0008277629123758886,74.44181549706052,0.7771708189965191,0.0012501320018415971,-0.42970566605959654
25,-0.0008277584605909654,74.44181549706052,0.7662213262915365,0.001256797180394186,-0.4401821695936247
26,-0.0008277540020564196,74.44181549706052,0.7634592810836153,0.0012644248935660622,-0.4429136332105209
27,-0.0008277495346019162,74.44181549706052,0.768266671749623,0.0012705112378141993,-0.4380675283927258
28,-0.0008277450573522965,74.44181549706052,0.7792865750007506,0.0012741939332248538,-0.4264039549501606
29,-0.0008277405704416664,74.44181549706052,0.7947346694338203,0.0012758743618242958,-0.40913281532152973
30,-0.0008277360747103546,74.44181549706052,0.8127072581320425,0.0012764590042182937,-0.38773574428011764
31,-0.0008277315714191393,74.44181549706052,0.8314480485776677,0.0012769095771888973,-0.36378664357763607
32,-0.0008277270620036485,74.44181549706052,0.8495170354477894,0.0012783829447144588,-0.3388046505612688
33,-0.000827722547881396,74.44181549706052,0.8658301628426738,0.0012826324387715717,-0.3141558553374165
34,-0.0008277180303152511,74.44181549706052,0.8796060556286618,0.0012920577160896467,-0.2909969874943749
35,-0.0008277135103305755,74.44181549706052,0.8902975363987464,0.001309169509268496,-0.270242930287833
36,-0.0008277089886788338,74.44181549706052,0.8975594915860811,0.0013357191982968466,-0.25254484215899775
37,-0.0008277044658380215,74.44181549706052,0.9012526622832621,0.0013718051060969756,-0.23827700897237544
38,-0.0008276999420394207,74.44181549706052,0.9014584314670823,0.001415262406461074,-0.2275370113131751
39,-0.0008276954173106215,74.44181549706052,0.898486100447869,0.001461653085576117,-0.2201628570649348
40,-0.0008276908915260287,74.44181549706052,0.8928662555978996,0.0015048328156097503,-0.21576724252439564
41,-0.00082768636445784,74.44181549706052,0.8853234946223664,0.0015379115906432375,-0.2137882300986129
42,-0.0008276818358224274,74.44181549706052,0.8767197087396841,0.0015547098060122277,-0.21355550696385558
43,-0.0008276773053189386,74.44181549706052,0.867969061877021,0.0015514883894827208,-0.21436707527749072
44,-0.0008276727726585932,74.44181549706052,0.8599388749581696,0.0015279883976620154,-0.21556561860289977
45,-0.0008276682375844792,74.44181549706052,0.8533558109370991,0.0014872489873263524,-0.21660305160593857
46,-0.0008276636998826359,74.44181549706052,0.8487329890169454,0.0014347498195661276,-0.2170850322898658
47,-0.0008276591593858245,74.44181549706052,0.8463264828265933,0.0013774084770790758,-0.21679116333079554
48,-0.0008276546159717006,74.44181549706052,0.8461270359903559,0.0013223930309244792,-0.21567104934245743
49,-0.0008276500695571559,74.44181549706052,0.8478915167487912,0.0012758035874978718,-0.213820237910202
50,-0.0008276455200904674,74.44181549706052,0.8512085156542755,0.0012416858221785993,-0.21144210490380602
51,-0.0008276409675426367,74.44181549706052,0.8555789084426675,0.0012218573050619458,-0.2088040197540424
52,-0.0008276364118989884,74.44181549706052,0.8604881077484448,0.001216452125693691,-0.206197220572687
53,-0.0008276318531517699,74.44181549706052,0.8654533944982572,0.0012244613634416258,-0.20390510789131938
54,-0.0008276272912941819,74.44181549706052,0.8700445560294865,0.0012438673382801169,-0.20217871282187144
55,-0.0008276227263160134,74.44181549706052,0.8738918415088076,0.0012717563246076673,-0.20121812094192382
56,-0.0008276181582008478,74.44181549706052,0.8766981034349488,0.0013046813184906163,-0.20116012991672752
57,-0.0008276135869246638,74.44181549706052,0.878262153744116,0.0013390369070523866,-0.20207063228379563
58,-0.0008276090124555697,74.44181549706052,0.878508509262167,0.0013713035429211182,-0.20394013584897144
59,-0.0008276044347543769,74.44181549706052,0.87750820471971,0.0013982369818141894,-0.20668378557984032
60,-0.000827599853775716,74.44181549706052,0.8754721126000427,0.0014170956915136438,-0.21014792409865066
61,-0.000827595269469435,74.44181549706052,0.8727106728719675,0.0014260230347302282,-0.214124234842639
62,-0.0008275906817820638,74.44181549706052,0.8695733565203337,0.001424547135166096,-0.2183730546806314
63,-0.0008275860906581826,74.44181549706052,0.8663895754220767,0.0014138606812187302,-0.22265538562302684
64,-0.0008275814960415922,74.44181549706052,0.8634275366761045,0.0013965216888976288,-0.22676586294736
65,-0.0008275768978762255,74.44181549706052,0.8608785050448944,0.0013756197366437718,-0.23055395434845136
66,-0.000827572296106788,74.44181549706052,0.8588646221501118,0.0013539267231331036,-0.23392591992994577
67,-0.0008275676906791411,74.44181549706052,0.8574591952682186,0.0013335739647890332,-0.23683267943439784
68,-0.0008275630815404655,74.44181549706052,0.8567042129381682,0.0013162770511405027,-0.2392563843885006
69,-0.0008275584686392487,74.44181549706052,0.8566118028622454,0.0013035887727589144,-0.2412043184342262
70,-0.0008275538519251503,74.44181549706052,0.8571459206285268,0.0012966902261203343,-0.24270978031364915
71,-0.0008275492313487925,74.44181549706052,0.8581990474760353,0.0012958735268617813,-0.24383387246666283
72,-0.0008275446068615163,74.44181549706052,0.8595895527662633,0.0013003816915075428,-0.24466069597703016
73,-0.0008275399784151379,74.44181549706052,0.861092461217179,0.0013088425332623288,-0.24528213516401637
74,-0.0008275353459617276,74.44181549706052,0.8624899080699409,0.0013197085323654004,-0.2457767831231202
75,-0.0008275307094534275,74.44181549706052,0.8636123146550418,0.0013312398182867503,-0.24619314282137933
76,-0.0008275260688423136,74.44181549706052,0.8643519570274967,0.0013414444311061677,-0.24654353184846015
77,-0.0008275214240803039,74.44181549706052,0.864655040970859,0.0013485697802771038,-0.24680780165100222
78,-0.0008275167751191077,74.44181549706052,0.8645084256868176,0.0013519534307791933,-0.2469437267596395
79,-0.0008275121219102094,74.44181549706052,0.863926133847435,0.0013523847812480234,-0.24690194753014538
80,-0.0008275074644048787,74.44181549706052,0.8629341986733157,0.00135148005345119,-0.2466418609006187
81,-0.0008275028025541991,74.44181549706052,0.8615632935932435,0.0013505769446315995,-0.24614190581737264
82,-0.0008274981363091061,74.44181549706052,0.8598635694187624,0.0013500971860173744,-0.2453994743852787
83,-0.0008274934656204286,74.44181549706052,0.857940021925037,0.0013497405305560855,-0.2444229695531442
84,-0.0008274887904389293,74.44181549706052,0.8559869978561611,0.0013490630171033163,-0.24322318608000973
85,-0.0008274841107153395,74.44181549706052,0.854297568713095,0.001347804461115885,-0.24180878151772767
86,-0.000827479426400388,74.44181549706052,0.8532405032739478,0.0013458366675990702,-0.24018709051460382
87,-0.0008274747374448207,74.44181549706052,0.8532186510422373,0.0013431288777848765,-0.2383712461623444
88,-0.0008274700437994146,74.44181549706052,0.8546268801668951,0.0013399530990227738,-0.2363940183341441
89,-0.0008274653454149829,74.44181549706052,0.8578146160250691,0.0013370041920362829,-0.23432575802324704
90,-0.0008274606422423764,74.44181549706052,0.8630467961910391,0.0013351027432421658,-0.23229214873579776
91,-0.0008274559342324807,74.44181549706052,0.8704588080306012,0.0013346692619002009,-0.23049002789754358
92,-0.0008274512213362111,74.44181549706052,0.8800065503926812,0.0013354647112466817,-0.229202417033456
93,-0.0008274465035045054,74.44181549706052,0.8914119962686126,0.0013368822866238405,-0.2288117228410782
94,-0.0008274417806883166,74.44181549706052,0.9041021693251353,0.0013385047435064293,-0.22980413474100375
95,-0.0008274370528386066,74.44181549706052,0.9171478653405286,0.0013402621379179742,-0.23275395909135296
96,-0.000827432319906341,74.44181549706052,0.9292304671489866,0.0013420089832806904,-0.23827758554679845
97,-0.0008274275818424845,74.44181549706052,0.9386862562437556,0.0013430836831746058,-0.24695354598862349
98,-0.0008274228385979981,74.44181549706052,0.943675984138472,0.001342229895034963,-0.25921489726840974
99,-0.0008274180901238369,74.44181549706052,0.9424898519768182,0.001337627113382877,-0.2752286705247057
100,-0.0008274133363709498,74.44181549706052,0.9339396148169092,0.0013269572959262997,-0.29478347797551757
101,-0.0008274085772902792,74.44181549706052,0.9177449345269703,0.001308215120454589,-0.3172123873242444
102,-0.0008274038128327625,74.44181549706052,0.8947978852887251,0.0012817102110644631,-0.3413814853780742
103,-0.0008273990429493318,74.44181549706052,0.8671818540024184,0.0012518169140063062,-0.36576740731984597
104,-0.0008273942675909167,74.44181549706052,0.8378711290580909,0.0012260747857796434,-0.38862428375028396
105,-0.0008273894867084444,74.44181549706052,0.8101737993007018,0.0012115849062010544,-0.40820812923167255
106,-0.0008273847002528402,74.44181549706052,0.787107666383697,0.0012115514354445814,-0.42300344128904144
107,-0.0008273799081750293,74.44181549706052,0.7708987831059911,0.0012243230979346498,-0.4318988544242141
108,-0.0008273751104259369,74.44181549706052,0.7626999247510183,0.0012446985221410984,-0.43428271470590457
109,-0.0008273703069564895,74.44181549706052,0.7625500193897458,0.0012661729117370134,-0.43005899354821403
110,-0.0008273654977176146,74.44181549706052,0.7695489355060594,0.001283266015892022,-0.4196047503686597
111,-0.0008273606826602402,74.44181549706052,0.7821712160695944,0.0012932380871566531,-0.4036953925777769
112,-0.0008273558617352959,74.44181549706052,0.798606319795879,0.001296436265613705,-0.3834152821223984
113,-0.0008273510348937125,74.44181549706052,0.8170327758025636,0.0012951021785529678,-0.3600589183808881
114,-0.0008273462020864217,74.44181549706052,0.8358037804430174,0.0012915078052763672,-0.3350234787678608
115,-0.0008273413632643549,74.44181549706052,0.853569849610024,0.0012869234648145162,-0.30970019582766145
116,-0.0008273365183784444,74.44181549706052,0.8693438463177345,0.0012823328289924627,-0.28538004331804045
117,-0.0008273316673796224,74.44181549706052,0.8824837021963806,0.0012801138991225195,-0.2631857249753715
118,-0.0008273268102188212,74.44181549706052,0.8925951745455037,0.0012847354247202266,-0.24402738709903748
119,-0.0008273219468469727,74.44181549706052,0.8994201403972358,0.0013013822702104701,-0.22856709660077718
120,-0.0008273170772150088,74.44181549706052,0.9027958675567223,0.0013334510740398804,-0.2171795226826467
121,-0.0008273122012738609,74.44181549706052,0.9027071706552444,0.0013806466323670356,-0.20991377699349048
122,-0.0008273073189744603,74.44181549706052,0.8993712112392184,0.0014384353859947408,-0.2064792861012774
123,-0.0008273024302677379,74.44181549706052,0.8932804091379472,0.0014985714376468064,-0.2062781067051441
124,-0.0008272975351046248,74.44181549706052,0.8851783580547801,0.0015504089516552879,-0.20848480401703365
125,-0.0008272926334360522,74.44181549706052,0.8759871968294365,0.0015831548090601535,-0.212153594810676
126,-0.0008272877252129513,74.44181549706052,0.8667066535264485,0.0015888520907733504,-0.2163303054903189
127,-0.0008272828103862534,74.44181549706052,0.8582935604342057,0.0015648183028980497,-0.22015689606461825
128,-0.0008272778889068892,74.44181549706052,0.8515369890015175,0.0015142409572654438,-0.2229609159004716
129,-0.0008272729607257898,74.44181549706052,0.8469595109731827,0.0014450173700033156,-0.2243187368178381
130,-0.000827268025793886,74.44181549706052,0.8447740973364585,0.0013677791224327445,-0.2240794612169983
131,-0.000827263084062109,74.44181549706052,0.8449020877505203,0.0012936694444963298,-0.22234403903211927
132,-0.0008272581354813898,74.44181549706052,0.8470316424003195,0.0012322732219591972,-0.21940916117785694
133,-0.0008272531800026596,74.44181549706052,0.8506903343126918,0.0011902895274403646,-0.21569461416640892
134,-0.0008272482175768497,74.44181549706052,0.8553174933269699,0.0011710407859420813,-0.21166935380847063
135,-0.0008272432481548915,74.44181549706052,0.8603321566937389,0.0011743881977070085,-0.20778482426025444
136,-0.000827238271687716,74.44181549706052,0.8651924801491849,0.001196986357819239,-0.20442083468623343
137,-0.0008272332881262545,74.44181549706052,0.8694426632690309,0.0012331669963375669,-0.20184735826344305
138,-0.0008272282974214381,74.44181549706052,0.8727484052175366,0.0012763273263815345,-0.20020341747028206
139,-0.0008272232995241976,74.44181549706052,0.8749225404235776,0.0013201885195487876,-0.19949198011479102
140,-0.0008272182943854638,74.44181549706052,0.8759356677972925,0.0013594743089384595,-0.19958935516521556
141,-0.0008272132819561673,74.44181549706052,0.8759000910895623,0.001390190138483865,-0.20026997707206248
142,-0.0008272082621872392,74.44181549706052,0.8750226386985132,0.0014099159740271453,-0.20124715745158941
143,-0.0008272032350296109,74.44181549706052,0.8735446686717188,0.0014181474730721312,-0.20222392980942294
144,-0.0008271982004342134,74.44181549706052,0.8716981976572289,0.0014163238606340538,-0.2029423251491643
145,-0.0008271931583519776,74.44181549706052,0.8696883468992086,0.0014072939366064968,-0.20322098209758022
146,-0.0008271881087338348,74.44181549706052,0.8676916685536266,0.0013944100802234238,-0.2029769656008925
147,-0.0008271830515307162,74.44181549706052,0.865861388344831,0.0013806370935524107,-0.2022305831285898
148,-0.0008271779866935527,74.44181549706052,0.8643372287136056,0.001368003151492903,-0.20109192237193096
149,-0.0008271729141732753,74.44181549706052,0.8632488816414954,0.0013576066479797574,-0.1997324597677799
150,-0.0008271678339208151,74.44181549706052,0.8626953724543746,0.0013500108835219175,-0.19835327859223023
151,-0.0008271627458871028,74.44181549706052,0.8627027940211646,0.001345510963608465,-0.19716165040253594
152,-0.0008271576500230698,74.44181549706052,0.8631923694250332,0.0013440831488742149,-0.19635774342693896
153,-0.0008271525462796471,74.44181549706052,0.8639904578157359,0.0013453543884958325,-0.19612468035668365
154,-0.0008271474346077662,74.44181549706052,0.8648788973787578,0.0013488015595194231,-0.19661603143683812
155,-0.0008271423149583583,74.44181549706052,0.8656553613075852,0.0013538802065154135,-0.19793985512219034
156,-0.0008271371872823549,74.44181549706052,0.8661777006102687,0.0013598440924273401,-0.20014133927315242
157,-0.0008271320515306872,74.44181549706052,0.8663887782178246,0.0013656425943633043,-0.20318956081795816
158,-0.0008271269076542863,74.44181549706052,0.8663257213666611,0.0013702581422211815,-0.20697847127000318
159,-0.000827121755604083,74.44181549706052,0.8661044035560815,0.00137308665988555,-0.2113497274483098
160,-0.000827116595331008,74.44181549706052,0.8658695687519288,0.0013738988891066133,-0.21613205408956487
161,-0.0008271114267859919,74.44181549706052,0.8657297824941377,0.0013725527961587593,-0.22117945463178065
162,-0.0008271062499199653,74.44181549706052,0.8657161268364194,0.0013688461129051782,-0.2263917537545565
163,-0.0008271010646838592,74.44181549706052,0.8657832040978847,0.0013626963132153064,-0.23171336016748978
164,-0.0008270958710286042,74.44181549706052,0.8658348944519797,0.0013545275903908429,-0.23711657081634469
165,-0.0008270906689051313,74.44181549706052,0.8657462488148076,0.0013454427605122281,-0.24257805755907616
166,-0.0008270854582643714,74.44181549706052,0.8653747556784547,0.0013368589557886507,-0.24805487654848174
167,-0.0008270802390572555,74.44181549706052,0.8645795843135745,0.001329821510311871,-0.25346394146858153
168,-0.000827075011234715,74.44181549706052,0.8632635569412194,0.0013245823788360707,-0.2586701230965294
169,-0.0008270697747476808,74.44181549706052,0.8614202706742053,0.0013207879032341371,-0.26349108613201344
170,-0.000827064529547084,74.44181549706052,0.859150685667375,0.0013180021826794093,-0.26772157747100583
171,-0.0008270592755838556,74.44181549706052,0.856639866418479,0.00131599919710334,-0.2711661766232327
172,-0.0008270540128089269,74.44181549706052,0.8541220183830712,0.001314651134368961,-0.27366320075322365
173,-0.0008270487411732292,74.44181549706052,0.8518652605077143,0.0013137264591986336,-0.275090261989876
174,-0.0008270434606276939,74.44181549706052,0.8501797939296051,0.0013128522636525212,-0.27535462743740063
175,-0.0008270381711232524,74.44181549706052,0.8494289540952826,0.0013116469911998287,-0.2743805036159289
176,-0.0008270328726108358,74.44181549706052,0.8500248017645464,0.0013099250723336284,-0.27210810437388366
177,-0.0008270275650413753,74.44181549706052,0.8524044317696222,0.0013077835212724246,-0.2685156995482817
178,-0.0008270222483658017,74.44181549706052,0.8569850030840455,0.0013055294971423554,-0.2636670515657221
179,-0.0008270169225350457,74.44181549706052,0.8640870491323644,0.0013036695999767572,-0.2577743755767123
180,-0.0008270115875000376,74.44181549706052,0.8738184602449817,0.0013030286008654712,-0.25125590227296324
181,-0.0008270062432117081,74.44181549706052,0.8859364566791478,0.001304762360863791,-0.2447648417573465
182,-0.0008270008896209878,74.44181549706052,0.8997366353530141,0.0013100260698455197,-0.2391737273509777
183,-0.0008269955266788074,74.44181549706052,0.9140231944925753,0.0013194019667735661,-0.23550814208626553
184,-0.0008269901543360975,74.44181549706052,0.9271803595055065,0.0013324974988701986,-0.23483420008983327
185,-0.0008269847725437886,74.44181549706052,0.937330011460531,0.0013477930056818462,-0.2381148373363463
186,-0.0008269793812528117,74.44181549706052,0.9425613587063232,0.0013625175323747198,-0.24605597145306804
187,-0.0008269739804140982,74.44181549706052,0.9412306078100728,0.0013728136007970357,-0.25896341329205325
188,-0.0008269685699785791,74.44181549706052,0.9323106341372766,0.0013746218335687027,-0.276631224139225
189,-0.0008269631498971853,74.44181549706052,0.9157265912844684,0.0013652266799837733,-0.29828403662266845
190,-0.0008269577201208484,74.44181549706052,0.8925723780346084,0.0013451291254385227,-0.322594066293093
191,-0.0008269522806004997,74.44181549706052,0.8650883586412522,0.001319182131029152,-0.3477841045823308
192,-0.00082694683128707,74.44181549706052,0.8363290886968948,0.0012951481237926058,-0.37181237174866577
193,-0.0008269413721314903,74.44181549706052,0.8095828763074802,0.00127966521451851,-0.39261574322179954
194,-0.0008269359030846922,74.44181549706052,0.7877431439569704,0.0012745650632288018,-0.40836731563473827
195,-0.0008269304240976068,74.44181549706052,0.7728501504500456,0.0012761855059473563,-0.41769470331387354
196,-0.0008269249351211651,74.44181549706052,0.7659083046296714,0.0012775578584712597,-0.41982057504804615
197,-0.0008269194361062975,74.44181549706052,0.7669377943787332,0.0012717282085895555,-0.4146186277553514
198,-0.0008269139270039345,74.44181549706052,0.7751470941533768,0.0012545401754051181,-0.4025986076980138
199,-0.0008269084077650063,74.44181549706052,0.789147681361094,0.0012259991476385394,-0.3848318176901602
200,-0.0008269028783404435,74.44181549706052,0.8071909854429205,0.0011902799495124273,-0.36282362893404857
201,-0.0008268973386811768,74.44181549706052,0.8274060773640265,0.0011548933303059767,-0.33834763970679266
202,-0.0008268917887381373,74.44181549706052,0.8479891504313525,0.0011292641777177715,-0.31326546663876803
203,-0.0008268862284622557,74.44181549706052,0.8673131376377118,0.0011226671671993556,-0.2893528914807746
204,-0.000826880657804463,74.44181549706052,0.8839835513516519,0.0011417902935846472,-0.2681435374393701
205,-0.0008268750767156904,74.44181549706052,0.8968952998796358,0.0011887766940467022,-0.2507989397351346
206,-0.0008268694851468688,74.44181549706052,0.9053089349656186,0.0012605614390550624,-0.23801950251360995
207,-0.0008268638830489291,74.44181549706052,0.9089165651261072,0.0013495173501855673,-0.23001125270301948
208,-0.000826858270372802,74.44181549706052,0.9078615800999961,0.00144468644345827,-0.226511129623502
209,-0.0008268526470694187,74.44181549706052,0.902701576723631,0.0015331783453971168,-0.22685970138989656
210,-0.0008268470130897099,74.44181549706052,0.8943259871792302,0.001602174942024585,-0.2301068096298909
211,-0.0008268413683846067,74.44181549706052,0.8838430570887389,0.0016417203904239383,-0.23513779641985944
212,-0.00082683571290504,74.44181549706052,0.8724483679679397,0.0016471273884968497,-0.24080576340752105
213,-0.0008268300466019407,74.44181549706052,0.8612944519268741,0.0016195444398901969,-0.24605138504965196
214,-0.00082682436942624,74.44181549706052,0.8513877397531565,0.0015647337720795735,-0.24999449640936092
215,-0.0008268186813288686,74.44181549706052,0.8435277382411112,0.0014913293573963842,-0.251991780250718
216,-0.0008268129822607573,74.44181549706052,0.8382786919526272,0.0014093172536282486,-0.251665661294648
217,-0.000826807272172837,74.44181549706052,0.835949007061585,0.0013286410692577887,-0.24891400986166004
218,-0.0008268015510160381,74.44181549706052,0.8365637423401143,0.0012580584933796516,-0.24390633565494696
219,-0.0008267958187412908,74.44181549706052,0.8398434723083896,0.0012045579043649458,-0.23706278889209792
220,-0.0008267900752995257,74.44181549706052,0.8452220401390542,0.0011730023190722277,-0.22900552827412987
221,-0.0008267843206416735,74.44181549706052,0.8519237095369159,0.0011654711722426008,-0.22047723696998148
222,-0.0008267785547186651,74.44181549706052,0.8590873017788566,0.0011805683977265038,-0.21223727884971091
223,-0.0008267727774814313,74.44181549706052,0.8659020338086671,0.001213491308233196,-0.2049586454091363
224,-0.0008267669888809027,74.44181549706052,0.8717217428329603,0.0012571533831351545,-0.19914934460782657
225,-0.0008267611888680102,74.44181549706052,0.8761371001080894,0.0013039233792119646,-0.19511277808226735
226,-0.0008267553773936844,74.44181549706052,0.8789936209892419,0.0013472627570908537,-0.19294844245784482
227,-0.0008267495544088566,74.44181549706052,0.880354204430444,0.0013825900450969459,-0.19258182075360114
228,-0.0008267437198644574,74.44181549706052,0.8804246493989099,0.0014072712215427588,-0.1938075206626457
229,-0.0008267378737114182,74.44181549706052,0.8794719129278102,0.0014203556451029076,-0.19633544739576386
230,-0.0008267320159006697,74.44181549706052,0.8777575382725916,0.0014224314294901679,-0.19983736462946516
231,-0.0008267261463831423,74.44181549706052,0.8754975003626362,0.0014153541051653052,-0.20399021354869085
232,-0.0008267202651097668,74.44181549706052,0.8728544900895173,0.0014017116015452265,-0.2085065115058158
233,-0.0008267143720314741,74.44181549706052,0.8699595962550981,0.0013842350984536766,-0.21314329267170234
234,-0.0008267084670991954,74.44181549706052,0.8669456352492719,0.0013654736188886674,-0.21769246780938223
235,-0.0008267025502638616,74.44181549706052,0.8639703348437721,0.0013477771815792775,-0.2219666683621037
236,-0.0008266966214764039,74.44181549706052,0.8612202995816065,0.0013331512735090321,-0.2257941855350981
237,-0.0008266906806877528,74.44181549706052,0.858900127208247,0.0013228742516767859,-0.22902585320457755
238,-0.0008266847278488389,74.44181549706052,0.8572102977455506,0.0013174053155229396,-0.23154778202865475
239,-0.0008266787629105924,74.44181549706052,0.8563103695067376,0.0013167051463960399,-0.23329412941797517
240,-0.0008266727858239442,74.44181549706052,0.8562714166143842,0.0013205050861629728,-0.2342583499215032
241,-0.0008266667965398243,74.44181549706052,0.8570415347372439,0.0013282801203002297,-0.23450111754240174
242,-0.0008266607950091632,74.44181549706052,0.8584519611684941,0.0013390799924086249,-0.23414953788157225
243,-0.0008266547811828911,74.44181549706052,0.8602671929534935,0.001351431520825896,-0.23338322530871786
244,-0.0008266487550119383,74.44181549706052,0.8622530728016342,0.001363411374038924,-0.23240876944168212
245,-0.0008266427164472356,74.44181549706052,0.8642278640705289,0.0013729317439778468,-0.23142925147683596
246,-0.0008266366654397135,74.44181549706052,0.8660751411163816,0.001378154701208225,-0.23061800337140034
247,-0.0008266306019403029,74.44181549706052,0.8677210668315302,0.0013778574901615194,-0.23010512106093609
248,-0.0008266245258999346,74.44181549706052,0.8690975769111703,0.0013717560013681714,-0.22997953076127137
249,-0.0008266184372695394,74.44181549706052,0.8701136464775701,0.001360732486403532,-0.23030136700866863
250,-0.0008266123360000482,74.44181549706052,0.8706439244138063,0.0013466468556631148,-0.23111460976914605
251,-0.0008266062220423922,74.44181549706052,0.8705372439082778,0.0013317432547039914,-0.2324511742352612
252,-0.0008266000953475021,74.44181549706052,0.8696490737235832,0.0013181591035784604,-0.2343237715112546
253,-0.0008265939558663086,74.44181549706052,0.8678959180122513,0.001307809275767909,-0.23671152776414373
254,-0.0008265878035497425,74.44181549706052,0.8653123893623176,0.0013022910818153263,-0.23954535275766645
255,-0.0008265816383487352,74.44181549706052,0.8620836326026725,0.0013024258642965836,-0.24269919926988548
256,-0.0008265754602142172,74.44181549706052,0.8585412112971087,0.001307742639942203,-0.24599126126021742
257,-0.0008265692690971195,74.44181549706052,0.8551337574100983,0.0013165371245113025,-0.24919648828511332
258,-0.0008265630649483722,74.44181549706052,0.8523898577074313,0.0013265698360501923,-0.25206889796260556
259,-0.0008265568477189056,74.44181549706052,0.850875223521221,0.0013358872895975287,-0.2543715915363402
260,-0.0008265506173596504,74.44181549706052,0.8511336567702986,0.001343342093037968,-0.25591352794707395
261,-0.0008265443738215369,74.44181549706052,0.8536137301887687,0.001348692775903381,-0.2565914313396491
262,-0.0008265381170554952,74.44181549706052,0.8586034727211513,0.0013523200724442897,-0.25643190376845243
263,-0.0008265318470124556,74.44181549706052,0.8661909395519755,0.001354814898396618,-0.2556249534327676
264,-0.0008265255636433486,74.44181549706052,0.8762391487906184,0.0013567624584755627,-0.25453976748427215
265,-0.0008265192668991043,74.44181549706052,0.8883468496846096,0.001358678107959785,-0.25371825483307153
266,-0.0008265129567306531,74.44181549706052,0.9017870647562997,0.0013608519633022825,-0.2538463238450156
267,-0.0008265066330889254,74.44181549706052,0.9154516561992883,0.00136319712169296,-0.2557028367027998
268,-0.0008265002959248519,74.44181549706052,0.9278469502814027,0.0013652134858587398,-0.2600855899725881
269,-0.0008264939451893633,74.44181549706052,0.9371764373959047,0.0013658082308476566,-0.26771642422200603
270,-0.0008264875808333909,74.44181549706052,0.9415319810980194,0.0013629592039951296,-0.2791301182656035
271,-0.0008264812028078659,74.44181549706052,0.9392024599664595,0.0013536784765619378,-0.29455294766105505
272,-0.0008264748110637194,74.44181549706052,0.929078265970672,0.0013347697244705367,-0.3137848883447184
273,-0.0008264684055518827,74.44181549706052,0.9110693733087899,0.0013047383787346922,-0.3361147906123085
274,-0.0008264619862232865,74.44181549706052,0.8863851230720757,0.0012663236574605766,-0.3603059549950046
275,-0.000826455553028862,74.44181549706052,0.857504810220101,0.0012275303281392331,-0.3846800583453746
276,-0.0008264491059195391,74.44181549706052,0.8277657856881879,0.0011991823525157365,-0.4073014775769901
277,-0.0008264426448462474,74.44181549706052,0.800679653839924,0.0011899090634171082,-0.4262298010587567
278,-0.0008264361697599165,74.44181549706052,0.779218715559368,0.0012019597803403486,-0.43978143657926255
279,-0.0008264296806114761,74.44181549706052,0.7653077637214645,0.0012304965497626189,-0.4467375186290031
280,-0.0008264231773518561,74.44181549706052,0.7596455295589668,0.0012663369348317032,-0.44645796721001985
281,-0.0008264166599319872,74.44181549706052,0.7618347996059978,0.0013000834846637274,-0.4388985021524003
282,-0.0008264101283027995,74.44181549706052,0.7706875354379826,0.001325211597768871,-0.424556615388589
283,-0.0008264035824152237,74.44181549706052,0.7845568806478826,0.0013388440884972083,-0.4043772572882234
284,-0.0008263970222201901,74.44181549706052,0.8016271623304172,0.0013407912400725276,-0.37963605987871823
285,-0.0008263904476686294,74.44181549706052,0.8201606701755666,0.0013325003865982679,-0.35180936859721046
286,-0.0008263838587114725,74.44181549706052,0.838687275233476,0.0013168152941972619,-0.322444283702244
287,-0.0008263772552996504,74.44181549706052,0.8560919502116321,0.0012980246666154036,-0.29304589066246134
288,-0.0008263706373840944,74.44181549706052,0.8715815482277423,0.0012814579679490158,-0.26499129451561854
289,-0.0008263640049157358,74.44181549706052,0.884581103842044,0.0012725783902482945,-0.2394654567524546
290,-0.0008263573578455055,74.44181549706052,0.8946466242517774,0.0012757387181336094,-0.21740723739875004
291,-0.0008263506961243342,74.44181549706052,0.9014458089066189,0.0012927804760980172,-0.19946197447423528
292,-0.0008263440197031515,74.44181549706052,0.9047973486619622,0.0013221481389143334,-0.1859480337306881
293,-0.0008263373285328871,74.44181549706052,0.9047303950723282,0.0013591822879249309,-0.17684632356629917
294,-0.000826330622564471,74.44181549706052,0.901530287348291,0.00139737521019412,-0.17181636659424493
295,-0.0008263239017488328,74.44181549706052,0.8957492359053493,0.0014298465536278747,-0.17024001433030425
296,-0.0008263171660369026,74.44181549706052,0.8881682027942064,0.0014505584611629089,-0.17129461960478384
297,-0.0008263104153796106,74.44181549706052,0.8797069169439363,0.0014553795031697005,-0.17405360574854997
298,-0.0008263036497278877,74.44181549706052,0.8712969235090938,0.0014432680025505229,-0.17760278933811494
299,-0.0008262968690326649,74.44181549706052,0.8637487901705122,0.0014170235549379412,-0.18115220120559591
300,-0.0008262900732448724,74.44181549706052,0.857649393845488,0.0013825569054817213,-0.18411968355594166
301,-0.0008262832623154411,74.44181549706052,0.853314526363347,0.0013467109697431737,-0.18616739852084793
302,-0.0008262764361953014,74.44181549706052,0.850802696378672,0.0013149628504757359,-0.18718898211613041
303,-0.0008262695948353835,74.44181549706052,0.8499766127760104,0.0012902424059952219,-0.18726408748826862
304,-0.0008262627381866177,74.44181549706052,0.8505858575071253,0.001273058511311921,-0.18660191512626098
305,-0.0008262558661999341,74.44181549706052,0.8523433029618295,0.0012624181819969242,-0.18548691875958592
306,-0.0008262489788262628,74.44181549706052,0.8549741065911651,0.0012570050829664326,-0.18423187647820588
307,-0.000826242076016534,74.44181549706052,0.8582256058234928,0.0012561646679019969,-0.18314076693802703
308,-0.0008262351577216785,74.44181549706052,0.861844267951841,0.0012602424079860574,-0.18248313514058148
309,-0.000826228223892627,74.44181549706052,0.8655451930354481,0.0012700742914984132,-0.18247933338689865
310,-0.0008262212744803101,74.44181549706052,0.8690040048603203,0.0012859742257531968,-0.18329130654772616
311,-0.0008262143094356588,74.44181549706052,0.871886917046911,0.00130700097636779,-0.18501196953520616
312,-0.000826207328709603,74.44181549706052,0.8739120881810051,0.001331084026620369,-0.1876525325580266
313,-0.0008262003322530725,74.44181549706052,0.8749176473782417,0.0013558058683612666,-0.19113481911938054
314,-0.000826193320016997,74.44181549706052,0.8749069855891601,0.0013791341327006367,-0.19529603683190772
315,-0.0008261862919523066,74.44181549706052,0.87404828315906,0.0013997022769374125,-0.1999086941207413
316,-0.0008261792480099324,74.44181549706052,0.8726221467162397,0.0014167749799891673,-0.20471352385763017
317,-0.0008261721881408049,74.44181549706052,0.870937394888653,0.0014300902102976007,-0.20945851636034968
318,-0.0008261651122958548,74.44181549706052,0.8692521454882239,0.0014396126703401636,-0.213933712640885
319,-0.0008261580204260125,74.44181549706052,0.8677270570708746,0.0014452844441976255,-0.21799326384359044
320,-0.0008261509124822075,74.44181549706052,0.8664143385852427,0.0014468519799925867,-0.22156301995633912
321,-0.0008261437884153699,74.44181549706052,0.8652763014396248,0.0014437739925810228,-0.22463709976452434
322,-0.000826136648176429,74.44181549706052,0.8642303084259488,0.0014353566040468666,-0.22726604196807512
323,-0.0008261294917163141,74.44181549706052,0.8632130016874895,0.00142122706162887,-0.22953680466533363
324,-0.0008261223189859553,74.44181549706052,0.8622374697363837,0.0014018510275455416,-0.23154820734618456
325,-0.0008261151299362825,74.44181549706052,0.8614066353177359,0.00137873530131484,-0.23339129539182488
326,-0.0008261079245182266,74.44181549706052,0.8608705832948652,0.0013543225872917812,-0.23514238604792895
327,-0.0008261007026827182,74.44181549706052,0.8607568947649126,0.0013316197725165293,-0.23686652333209274
328,-0.0008260934643806881,74.44181549706052,0.8611188292651191,0.00131349174863106,-0.23862259485492676
329,-0.0008260862095630674,74.44181549706052,0.861918322320007,0.0013018763728153617,-0.2404659869351886
330,-0.0008260789381807871,74.44181549706052,0.8630249574580049,0.0012973778818350869,-0.24245140113907496
331,-0.0008260716501847782,74.44181549706052,0.8642210692290515,0.0012993565932875222,-0.2446356698175789
332,-0.0008260643455259712,74.44181549706052,0.8652365360763303,0.00130633210370783,-0.24707295716252606
333,-0.0008260570241552958,74.44181549706052,0.8658259735553577,0.0013164537672606168,-0.24979628937259563
334,-0.0008260496860236815,74.44181549706052,0.8658518327797107,0.0013277648727285111,-0.25279112319100383
335,-0.0008260423310820575,74.44181549706052,0.8653216492273893,0.0013382640591168013,-0.2559760841882753
336,-0.0008260349592813537,74.44181549706052,0.8643648813973305,0.00134610016398509,-0.25920352095821986
337,-0.0008260275705725003,74.44181549706052,0.8631751386016051,0.0013499528671927935,-0.2622809110972564
338,-0.0008260201649064279,74.44181549706052,0.861954502995675,0.0013493686513227365,-0.26500402131355694
339,-0.0008260127422340673,74.44181549706052,0.8608802474357026,0.001344997235535218,-0.2671912919472849
340,-0.0008260053025063491,74.44181549706052,0.8600861452848741,0.001338504358473749,-0.26871216782641066
341,-0.0008259978456742036,74.44181549706052,0.859641825804697,0.001331869693687935,-0.26950362844465636
342,-0.0008259903716885604,74.44181549706052,0.8595333050072239,0.0013265371126900693,-0.2695713352465378
343,-0.0008259828805003488,74.44181549706052,0.8596639555026863,0.0013231618019599269,-0.2689771294335905
344,-0.0008259753720604976,74.44181549706052,0.8598857709614022,0.001321933560911924,-0.26781863604698863
345,-0.0008259678463199353,74.44181549706052,0.8600461568618482,0.0013229300936593814,-0.26620732479401316
346,-0.0008259603032295907,74.44181549706052,0.860022861409724,0.0013261873212372024,-0.2642504069056174
347,-0.0008259527427403929,74.44181549706052,0.8597358328807869,0.0013316204547943313,-0.26203909176760626
348,-0.0008259451648032713,74.44181549706052,0.8591505231664713,0.0013390276646509322,-0.25964190351894584
349,-0.0008259375693691555,74.44181549706052,0.8582918212815748,0.0013481026589243186,-0.2571009294871791
350,-0.0008259299563889747,74.44181549706052,0.8572679700312696,0.0013582322521538198,-0.25443118118296815
351,-0.0008259223258136588,74.44181549706052,0.8562875291087738,0.0013681351190772285,-0.2516241531147921
352,-0.0008259146775941378,74.44181549706052,0.8556624153596293,0.0013757201768656295,-0.24865518406698645
353,-0.0008259070116813431,74.44181549706052,0.8558060949046894,0.001378471126494868,-0.24549476154871
354,-0.0008258993280262084,74.44181549706052,0.8572264265933843,0.001374243037824012,-0.24212721825619937
355,-0.0008258916265796694,74.44181549706052,0.8604872949875375,0.0013620946509266848,-0.23858081583992533
356,-0.0008258839072926638,74.44181549706052,0.86611141391972,0.001342832323062392,-0.23496746161278456
357,-0.0008258761701161303,74.44181549706052,0.8744293113246133,0.0013190286519224566,-0.23152202804015465
358,-0.0008258684150010081,74.44181549706052,0.8854154698850438,0.00129440522716847,-0.2286278274391178
359,-0.0008258606418982354,74.44181549706052,0.8985631748763983,0.0012727321701245552,-0.22681890324118462
360,-0.0008258528507587488,74.44181549706052,0.9128326944226927,0.0012567078040860641,-0.22675581156632138
361,-0.0008258450415334813,74.44181549706052,0.9266850303584386,0.0012473195434502457,-0.22917261787267748
362,-0.0008258372141733615,74.44181549706052,0.9382083205405655,0.0012437968558235808,-0.23479137904323488
363,-0.0008258293686293109,74.44181549706052,0.9453462998234081,0.001244040319269289,-0.24420586937214278
364,-0.000825821504852243,74.44181549706052,0.946222672569032,0.0012454235008759482,-0.2577500520386051
365,-0.0008258136227930625,74.44181549706052,0.9395208369955064,0.001245589037037552,-0.27537819043495315
366,-0.0008258057224026641,74.44181549706052,0.9248466823674018,0.001243069334879355,-0.29658361104321096
367,-0.000825797803631934,74.44181549706052,0.9029785238868142,0.0012382989058971174,-0.3203758658852843
368,-0.0008257898664317518,74.44181549706052,0.8758892416321232,0.0012346725606525789,-0.34533021804525454
369,-0.0008257819107529956,74.44181549706052,0.8464610496449164,0.001237699107331862,-0.36971555337953316
370,-0.000825773936546548,74.44181549706052,0.8179465725182316,0.0012518078817851845,-0.3916878070922677
371,-0.0008257659437633044,74.44181549706052,0.7933685138131141,0.001277293407119676,-0.40951263721434694
372,-0.0008257579323541825,74.44181549706052,0.7750564606648433,0.0013096834637516177,-0.421771438697854
373,-0.0008257499022701328,74.44181549706052,0.7644029693063937,0.0013414872642741836,-0.4275151386041542
374,-0.0008257418534621493,74.44181549706052,0.7618118178083072,0.0013650433312995837,-0.4263492802669332
375,-0.0008257337858812775,74.44181549706052,0.7667866590240076,0.0013752620303774344,-0.41844846543386016
376,-0.0008257256994786197,74.44181549706052,0.7781237448781659,0.0013713588943453402,-0.40450775463097133
377,-0.0008257175942053343,74.44181549706052,0.7941638730513396,0.001356887897285652,-0.38564710099365634
378,-0.0008257094700126269,74.44181549706052,0.8130414241162951,0.0013379614651974467,-0.3632871325629759
379,-0.0008257013268517317,74.44181549706052,0.8328873360923547,0.0013205715010749309,-0.33900791718503337
380,-0.000825693164673882,74.44181549706052,0.8519902399544321,0.0013085700482378321,-0.3143986673840448
381,-0.0008256849834302679,74.44181549706052,0.8689365388045494,0.0013033090030344927,-0.29091322296318534
382,-0.0008256767830719845,74.44181549706052,0.8827174797049656,0.0013045201013942118,-0.2697519646635754
383,-0.0008256685635499722,74.44181549706052,0.8927700611593843,0.0013112330721588394,-0.2517853339076484
384,-0.0008256603248149531,74.44181549706052,0.898942730697833,0.001322126398567856,-0.23752368942943736
385,-0.0008256520668173739,74.44181549706052,0.9014112053291576,0.0013355852136670507,-0.2271304195017878
386,-0.0008256437895073608,74.44181549706052,0.900581224892838,0.001349824692585487,-0.22046944291096263
387,-0.000825635492834702,74.44181549706052,0.8970024507074738,0.001363131822712712,-0.21717300680600685
388,-0.0008256271767488663,74.44181549706052,0.8913010994722851,0.0013741551066467335,-0.21671283351551585
389,-0.0008256188411990744,74.44181549706052,0.8841329066642439,0.001382103935353509,-0.2184607866241342
390,-0.0008256104861344315,74.44181549706052,0.876156232709705,0.00138674087394878,-0.2217346580803009
391,-0.000825602111504128,74.44181549706052,0.8680198435696522,0.001388236012662967,-0.22583460538885755
392,-0.0008255937172577107,74.44181549706052,0.8603532985350705,0.0013869920315081415,-0.23007970150394802
393,-0.0008255853033454102,74.44181549706052,0.8537464655941684,0.0013834383738805787,-0.23385102180856449
394,-0.0008255768697185076,74.44181549706052,0.848711284362064,0.0013778826128101871,-0.2366416616355519
395,-0.0008255684163297039,74.44181549706052,0.8456271975710731,0.0013706316471105199,-0.23810766092452598
396,-0.0008255599431334438,74.44181549706052,0.8446787366137414,0.0013623451324259875,-0.2381071578749262
397,-0.0008255514500861319,74.44181549706052,0.8458047924813843,0.0013542531717684624,-0.23671211889427685
398,-0.0008255429371461706,74.44181549706052,0.8486867555482406,0.001347968205860504,-0.23418322916372422
399,-0.0008255344042737412,74.44181549706052,0.8527916077234353,0.0013449577184711785,-0.23091251120768327
400,-0.0008255258514302578,74.44181549706052,0.8574636231011116,0.0013459227882876798,-0.22734992685183525
401,-0.0008255172785774393,74.44181549706052,0.8620438626320511,0.0013503533482348475,-0.22393087990289864
402,-0.0008255086856759696,74.44181549706052,0.8659903073328135,0.0013564978823676886,-0.2210159956767367
403,-0.0008255000726837668,74.44181549706052,0.868967881270628,0.001361884551369375,-0.2188521377003808
404,-0.0008254914395539398,74.44181549706052,0.8708821871467515,0.001364302488094254,-0.2175614513338645
405,-0.0008254827862325847,74.44181549706052,0.87184626904371,0.0013628101804005039,-0.21715732582560038
406,-0.0008254741126566546,74.44181549706052,0.8720929835748565,0.0013581822987149233,-0.21757726316748824
407,-0.0008254654187522216,74.44181549706052,0.8718677567584855,0.0013524869206422803,-0.21871955594646128
408,-0.0008254567044335199,74.44181549706052,0.8713444657926224,0.0013480150009871714,-0.22047226152661803
409,-0.0008254479696032124,74.44181549706052,0.870595328510566,0.0013461570028578105,-0.22272688270804228
410,-0.0008254392141543278,74.44181549706052,0.8696160673177749,0.0013468359516651603,-0.22537678958402804
411,-0.0008254304379742713,74.44181549706052,0.8683772395156096,0.0013487878104965188,-0.22830866155748855
412,-0.0008254216409511876,74.44181549706052,0.866869843576173,0.0013503991076767366,-0.2313963358589185
413,-0.0008254128229827512,74.44181549706052,0.8651362233513299,0.0013504249979957308,-0.23449984645438227
414,-0.0008254039839871554,74.44181549706052,0.8632897407728536,0.001348275202660708,-0.2374673738270963
415,-0.000825395123915689,74.44181549706052,0.861514453221683,0.0013441144538994564,-0.24014014942593023
416,-0.000825386242765825,74.44181549706052,0.8600295875793642,0.0013388563558984154,-0.24236318205797325
417,-0.0008253773405932566,74.44181549706052,0.8590253003996414,0.001333820179612639,-0.24400168587355253
418,-0.0008253684175208338,74.44181549706052,0.8586030440271859,0.001330229663649933,-0.24495947109773028
419,-0.0008253594737419607,74.44181549706052,0.8587527875121566,0.0013290378828022115,-0.24519508641765717
420,-0.0008253505095157926,74.44181549706052,0.8593711450952952,0.0013310120467394742,-0.2447316234235209
421,-0.0008253415251516313,74.44181549706052,0.8603021761986734,0.001336546003099688,-0.24365674485728925
422,-0.0008253325209803387,74.44181549706052,0.861384592940018,0.0013450806514833896,-0.24211149996020423
423,-0.0008253234973114847,74.44181549706052,0.8624967852152755,0.0013547606197258206,-0.24026930426750645
424,-0.0008253144543763642,74.44181549706052,0.8635869672891111,0.0013630711381536248,-0.2383101881546461
425,-0.0008253053922589849,74.44181549706052,0.8646682733062749,0.0013682230383122275,-0.23639803607731502
426,-0.0008252963108195882,74.44181549706052,0.8657707629243779,0.0013699722054653313,-0.2346669516432803
427,-0.0008252872096180875,74.44181549706052,0.8668764568051458,0.001369097582390235,-0.23321789540738738
428,-0.0008252780878477533,74.44181549706052,0.8678833938926422,0.0013664234773689474,-0.23212146663613972
429,-0.0008252689442921846,74.44181549706052,0.8686248960690194,0.0013625392771615887,-0.23142007124880867
430,-0.0008252597773206351,74.44181549706052,0.8689309678316136,0.0013580177749308727,-0.2311255246096349
431,-0.0008252505849375511,74.44181549706052,0.8686943756626773,0.001353358525876186,-0.2312142079117471
432,-0.0008252413649011396,74.44181549706052,0.8679094992284772,0.001348663951806577,-0.2316250857750286
433,-0.000825232114922327,74.44181549706052,0.8666756780720062,0.0013436249604177619,-0.23226453720622428
434,-0.0008252228329490999,74.44181549706052,0.8651722321646114,0.0013380848455465874,-0.2330173310461064
435,-0.0008252135175316468,74.44181549706052,0.8636093650746404,0.0013326896552685744,-0.2337585100056341
436,-0.0008252041682509689,74.44181549706052,0.8621599592074252,0.0013288031202869667,-0.23436280233822235
437,-0.0008251947861781574,74.44181549706052,0.8608972564340175,0.001327618412921118,-0.23471352793846578
438,-0.0008251853743143628,74.44181549706052,0.8597774833842352,0.0013292570269625593,-0.2347117535621055
439,-0.0008251759379442574,74.44181549706052,0.8586872911939424,0.0013324797814779985,-0.23428151732444946
440,-0.0008251664848208182,74.44181549706052,0.8575340986900473,0.001335044489508853,-0.23336785213086703
441,-0.0008251570250894624,74.44181549706052,0.8563313559833992,0.0013344641128503806,-0.23192989318399287
442,-0.0008251475708583291,74.44181549706052,0.8552439904978527,0.0013288062861605938,-0.22993506478787312
443,-0.000825138135332377,74.44181549706052,0.8545913562718914,0.001317178610844887,-0.22735951433596485
444,-0.0008251287314553136,74.44181549706052,0.8548198509236012,0.0012997879466098202,-0.22419673860322428
445,-0.0008251193700477366,74.44181549706052,0.8564497388577557,0.0012777762862423373,-0.22047452718390032
446,-0.0008251100574934372,74.44181549706052,0.859995979265973,0.0012530441144478692,-0.2162792787700457
447,-0.0008251007931075668,74.44181549706052,0.8658740905992411,0.0012280014371135036,-0.21178467851498955
448,-0.0008250915664165094,74.44181549706052,0.87431077203874,0.0012052199241838347,-0.2072798487695541
449,-0.0008250823546824835,74.44181549706052,0.8852693528480388,0.0011872449214098515,-0.20319025051527675
450,-0.0008250731211049918,74.44181549706052,0.8983839875558498,0.0011766564542324267,-0.200083640828699
451,-0.0008250638142111966,74.44181549706052,0.9128976676569046,0.0011760666971973872,-0.19865568964227281
452,-0.0008250543689896976,74.44181549706052,0.9276218366795916,0.001187777555921244,-0.19969234435054303
453,-0.0008250447103064031,74.44181549706052,0.9409559461194251,0.001213116289117309,-0.20400503541881745
454,-0.0008250347590462326,74.44181549706052,0.9510039686895301,0.0012516716075893033,-0.21233492993988598
455,-0.0008250244412316898,74.44181549706052,0.9558029881876283,0.0013007727878062167,-0.225230167851495
456,-0.000825013700066193,74.44181549706052,0.9536479987337422,0.0013554661040440393,-0.2429131350964043
457,-0.0008250025104335843,74.44181549706052,0.9434698770735391,0.0014090373855360954,-0.26516415903571783
458,-0.0008249908948668592,74.44181549706052,0.9251957896240359,0.0014542905495802429,-0.29124867503064494
459,-0.0008249789394085408,74.44181549706052,0.8999769712389425,0.0014856529903032663,-0.31991070388810455
460,-0.0008249668071735035,74.44181549706052,0.8701435495815094,0.0015009290245157714,-0.3494498662739705
461,-0.0008249547468668641,74.44181549706052,0.8388259954216252,0.001501164468838584,-0.3778863644498807
462,-0.0008249430931015583,74.44181549706052,0.8093535607972467,0.0014888915839757163,-0.40319267077530285
463,-0.0008249322552172048,74.44181549706052,0.7846466406478302,0.0014663334131326043,-0.42354357277857174
464,-0.0008249226915484139,74.44181549706052,0.7667823952121592,0.0014345606640232455,-0.4375277028283332
465,-0.0008249148668480959,74.44181549706052,0.7568127459662535,0.0013936973573107606,-0.444279273622783
466,-0.0008249091919398702,74.44181549706052,0.754822461820069,0.0013438127738121626,-0.44351903588923597
467,-0.0008249059467108139,74.44181549706052,0.7601409005178359,0.0012859693045653943,-0.4355226012439345
468,-0.0008249051902512736,74.44181549706052,0.7715891647897234,0.0012230156311595175,-0.4210459705283029
469,-0.000824906665198911,74.44181549706052,0.7876812852051671,0.0011598062214377178,-0.401229882830939
470,-0.0008249097069300223,74.44181549706052,0.8067764081155122,0.0011025885802382392,-0.37749095573463004
471,-0.0008249131718104187,74.44181549706052,0.8272220749904213,0.001057708041572704,-0.35140306611000377
472,-0.0008249154017811678,74.44181549706052,0.8474969521499516,0.001030245815115667,-0.3245771132093575
473,-0.0008249142444958652,74.44181549706052,0.8663133973229856,0.0010232587530761938,-0.2985510276765542
474,-0.0008249071483378181,74.44181549706052,0.8826468052916429,0.0010379849116673352,-0.2746986339691858
475,-0.0008248913491861436,74.44181549706052,0.8957122479256807,0.0010746901886571712,-0.2541582785565387
476,-0.0008248641600814053,74.44181549706052,0.9049436726924597,0.0011331179663225455,-0.23777669237527327
477,-0.0008248233654440491,74.44181549706052,0.9100079382938204,0.0012118677771177833,-0.22606568232987637
478,-0.0008247677080075075,74.44181549706052,0.9108406926890542,0.0013072677418709345,-0.21917539330004618
479,-0.0008246974393824704,74.44181549706052,0.907672690937769,0.0014127001137685226,-0.21688924692116784
480,-0.0008246148850127708,74.44181549706052,0.9010285980165986,0.0015186986171494337,-0.21864300753687987
481,-0.0008245249527885924,74.44181549706052,0.8916983686444401,0.0016137906575429254,-0.22357204157765603
482,-0.0008244354941264432,74.44181549706052,0.8806807374764517,0.0016861209133827704,-0.23059356725020358
483,-0.00082435741008793,74.44181549706052,0.8690902509895402,0.001725698802461418,-0.23852334063877972
484,-0.0008243043869628681,74.44181549706052,0.8580294647410668,0.001726718330553768,-0.2462114191145579
485,-0.0008242921500010973,74.44181549706052,0.8484543320507143,0.0016891576277694765,-0.2526715667440182
486,-0.0008243371449900636,74.44181549706052,0.8410737378583762,0.001618983710561544,-0.2571784247836563
487,-0.0008244545989495868,74.44181549706052,0.8363063126349318,0.0015267867161594688,-0.2593157316050782
488,-0.0008246559758884183,74.44181549706052,0.8342868451733862,0.0014253101837620457,-0.2589752200064503
489,-0.0008249459317579756,74.44181549706052,0.8348995958686304,0.0013268092763055938,-0.2563197772426601
490,-0.0008253189818497968,74.44181549706052,0.8378241065344417,0.001241229470963338,-0.2517269693590416
491,-0.0008257562174557545,74.44181549706052,0.8425905020195325,0.0011756375013364693,-0.24572398002112633
492,-0.000826222535664007,74.44181549706052,0.8486385081542283,0.0011343199845848238,-0.2389215540873961
493,-0.0008266649608894537,74.44181549706052,0.8553687615468665,0.0011186531093926137,-0.23195237329063104
494,-0.0008270127187178122,74.44181549706052,0.8621815746975834,0.001126855665836733,-0.2254160564175947
495,-0.0008271797477862192,74.44181549706052,0.868511546247606,0.0011544856787806658,-0.21983267853249766
496,-0.0008270702777670952,74.44181549706052,0.8738690014897745,0.0011957358832544874,-0.21560852936157732
497,-0.0008265879360006354,74.44181549706052,0.8778855825186229,0.0012446193228843935,-0.21301609247067474
498,-0.0008256485515162251,74.44181549706052,0.880348478425085,0.001295545834652801,-0.21218655144671295
499,-0.0008241963919309153,74.44181549706052,0.8812112466679117,0.0013436179197054395,-0.21311132180266812
500,-0.0008222229992910344,74.44181549706052,0.8805806793763808,0.0013848859745975433,-0.2156495543967331
501,-0.0008197871083392665,74.44181549706052,0.8786843218722475,0.0014164751909220826,-0.2195425723128642
502,-0.0008170333824045369,74.44181549706052,0.875824984245264,0.0014366348046521084,-0.22444021767978706
503,-0.0008142069633256884,74.44181549706052,0.8723345000254188,0.0014447230005770028,-0.2299407776504313
504,-0.000811660206311209,74.44181549706052,0.8685407509279676,0.0014410034634400753,-0.2356382509943821
505,-0.0008098475880712212,74.44181549706052,0.8647517331574004,0.0014264497330474363,-0.24116629790914765
506,-0.0008093047852226231,74.44181549706052,0.8612473842950703,0.001402875756480321,-0.24622948490524196
507,-0.0008106084741109352,74.44181549706052,0.8582670090956519,0.0013732064216488466,-0.2506184185305594
508,-0.0008143146445256643,74.44181549706052,0.8559902858906641,0.001341379315732113,-0.25421227464140406
509,-0.0008208752533534933,74.44181549706052,0.8545210514172515,0.001311714344457462,-0.25697427917446686
510,-0.000830535909644016,74.44181549706052,0.8538814236401834,0.0012880614531843803,-0.2589431595331988
511,-0.0008432209227740579,74.44181549706052,0.8540150763619849,0.0012730569681024275,-0.2602206879148549
512,-0.000858416275977769,74.44181549706052,0.8547963018407427,0.0012676594041228792,-0.2609541184884602
513,-0.0008750655711973642,74.44181549706052,0.8560441495317388,0.0012711852225170863,-0.2613138102669361
514,-0.0008914982229454244,74.44181549706052,0.8575403760983465,0.0012818709555081278,-0.2614691772234629
515,-0.000905412487672719,74.44181549706052,0.8590491744034299,0.0012975351885311846,-0.26156605591571874
516,-0.0009139374892262937,74.44181549706052,0.8603417364260957,0.0013159534028165905,-0.2617070584478304
517,-0.0009137973420177304,74.44181549706052,0.8612317226174755,0.001334950602908533,-0.26193885365095937
518,-0.0009015958841866644,74.44181549706052,0.8616179055451153,0.0013524660627189154,-0.2622536310479668
519,-0.0008742316394448284,74.44181549706052,0.8615150008232995,0.0013668587146110451,-0.2626082218538231
520,-0.0008294389324523158,74.44181549706052,0.8610516993106562,0.0013772828112027036,-0.26295512255534215
521,-0.0007664325490284019,74.44181549706052,0.8604342467071449,0.0013836727189521522,-0.2632739473728823
522,-0.0006866105643726835,74.44181549706052,0.8598985208389057,0.0013864094942183764,-0.2635932274855118
523,-0.0005942443857647352,74.44181549706052,0.8596800010016373,0.0013860620643494576,-0.2639985263874108
524,-0.0004970590538092434,74.44181549706052,0.860014162247247,0.0013832612891848753,-0.26463017248177034
525,-0.000406583819806999,74.44181549706052,0.8611531825782397,0.0013787144085473423,-0.265678606653697
526,-0.0003381373369059319,74.44181549706052,0.8633712192482343,0.0013732908455139385,-0.2673835214426989
527,-0.00031030861096426347,74.44181549706052,0.8669402519453909,0.0013677651329716174,-0.2700353475324657
528,-0.0003438096886430855,74.44181549706052,0.8720770151302207,0.001362203275000883,-0.27397034359887934
529,-0.0004596142676809905,74.44181549706052,0.8788706867412857,0.0013556641427679937,-0.2795493234566595
530,-0.0006763623936767341,74.44181549706052,0.8871987581997516,0.001346563160237112,-0.2871156756056489
531,-0.0010071076538070956,74.44181549706052,0.8966413518835122,0.0013332969945091323,-0.2969356086633864
532,-0.0014556093287597341,74.44181549706052,0.9064211678088225,0.0013146803951566716,-0.3091265574239999
533,-0.0020125233223801556,74.44181549706052,0.9154070325715418,0.0012901423213378433,-0.32357992296530136
534,-0.002652012846060023,74.44181549706052,0.9222051420499487,0.0012598122215664988,-0.33988780150358827
535,-0.0033294674360785036,74.44181549706052,0.9253351775207226,0.0012245649893011985,-0.3572900150580588
536,-0.0039811651932784116,74.44181549706052,0.923473643056492,0.0011860107289076004,-0.3746608386651141
537,-0.004526808585297955,74.44181549706052,0.9157471432893189,0.0011464359447707804,-0.3905502586368519
538,-0.004875870247823648,74.44181549706052,0.9020484569904306,0.0011088873069686684,-0.40328648321024585
539,-0.004938538339970771,74.44181549706052,0.8833050209315565,0.0010778168125917136,-0.41114194441263524
540,-0.004641658893066566,74.44181549706052,0.8615612814076663,0.0010600609429832007,-0.412563101516311
541,-0.003949139007402603,74.44181549706052,0.8397148169461736,0.001064427439113906,-0.40645237332216916
542,-0.0028844272910956417,74.44181549706052,0.8208558442075551,0.0010984811587641974,-0.3924579537220701
543,-0.0015475735759594485,74.44181549706052,0.8073862816555247,0.001163963125574038,-0.37117881352207877
544,-0.00010995474295680949,74.44181549706052,0.8003277517029225,0.001254264429008589,-0.34416257395942984
545,0.001226898942692067,74.44181549706052,0.7992282762287035,0.001356164142016962,-0.31363163677355776
546,0.0022916106000243947,74.44181549706052,0.8026678052542688,0.0014546223221129863,-0.28202480896929183
547,0.0029841303972264047,74.44181549706052,0.8089320618317422,0.0015371163080655553,-0.25154967976846154
548,0.003281009726181337,74.44181549706052,0.8164842590365816,0.001595294869989419,-0.22389183695077935
549,0.00321834148659762,74.44181549706052,0.8241901297555296,0.0016245475859913935,-0.200104172146474
550,0.0028692796471480133,74.44181549706052,0.8313881292751619,0.001623150578266341,-0.18063178874754263
551,0.0023236360487172343,74.44181549706052,0.83785911693868,0.0015919702536059343,-0.16542233315703286
552,0.0016719380556187702,74.44181549706052,0.8437117016973069,0.0015348261068366628,-0.1540814030394709
553,0.0009944832002144145,74.44181549706052,0.8492037058815676,0.00145898659195073,-0.14603888407568383
554,0.00035499338166135574,74.44181549706052,0.8545549750297585,0.0013748909782334826,-0.14069460771092535
555,-0.00020192093631957243,74.44181549706052,0.8598281195995651,0.0012944314134784628,-0.13751824127640466
556,-0.0006504229651200327,74.44181549706052,0.8649190173433734,0.0012281474615747632,-0.136095031045522
557,-0.0009811686085855317,74.44181549706052,0.8696318021769744,0.0011827977420323895,-0.136128207158366
558,-0.0011979171474037307,74.44181549706052,0.8737736305157122,0.0011606866850225085,-0.1374170140802386
559,-0.0013137221687514104,74.44181549706052,0.8772158269591146,0.0011606063035779616,-0.13982459147711457
560,-0.001347223718227329,74.44181549706052,0.8799047540028574,0.0011791807262273022,-0.14324156603454175
561,-0.0013193954935700805,74.44181549706052,0.881835410763888,0.0012119272297557793,-0.14754816700178974
562,-0.0012509495414407582,74.44181549706052,0.8830137635591481,0.0012539941760361128,-0.15258266529987766
563,-0.0011604748676975834,74.44181549706052,0.8834327406818858,0.0013004790356116582,-0.15812876137100781
564,-0.001063290125488485,74.44181549706052,0.8830738409460052,0.0013464523111069832,-0.16392773082702602
565,-0.0009709245661142517,74.44181549706052,0.8819286626700904,0.0013871457087131082,-0.16970781334327986
566,-0.000891103230179568,74.44181549706052,0.8800240333377464,0.0014184448436261805,-0.17521795833383216
567,-0.0008280975249640071,74.44181549706052,0.8774393619198332,0.001437444682004555,-0.18025665646017067
568,-0.0007833055256671656,74.44181549706052,0.8743179354374923,0.0014428335229569732,-0.18469167995345995
569,-0.0007559420181083199,74.44181549706052,0.8708732243164923,0.0014350122396971613,-0.18847070793904355
570,-0.0007437413269475638,74.44181549706052,0.8673777142917719,0.001416045988499796,-0.19162536048885712
571,-0.0007436019758966313,74.44181549706052,0.8641234147690317,0.0013895305228232393,-0.1942685141136505
572,-0.0007521278030951584,74.44181549706052,0.8613670755567184,0.0013601665209530662,-0.1965783738713499
573,-0.0007660429229547277,74.44181549706052,0.8592909074506747,0.0013328786460295632,-0.19876413373491442
574,-0.0007824764593223862,74.44181549706052,0.8579935747255547,0.0013117794851273895,-0.2010214355847278
575,-0.0007991266686489043,74.44181549706052,0.8574938649728204,0.0012994529423131069,-0.2034955599196736
576,-0.0008143229654468644,74.44181549706052,0.857727430519008,0.0012967475140747025,-0.20626383765792386
577,-0.0008270089516584821,74.44181549706052,0.8585457514135714,0.0013029983565970406,-0.20933585262113227
578,-0.0008366706105179082,74.44181549706052,0.8597381361536749,0.0013164554728575062,-0.21266361781713677
579,-0.0008432322514019691,74.44181549706052,0.8610747334311064,0.0013346448251178567,-0.21615502296571845
580,-0.000846939483360258,74.44181549706052,0.8623475263658424,0.0013545782988061787,-0.21968848143744735
581,-0.000848244263279457,74.44181549706052,0.8633957190283096,0.001372950883578429,-0.2231293961051329
582,-0.0008477025809490723,74.44181549706052,0.8641216398004143,0.0013865294748225704,-0.22634705931398452
583,-0.0008458911127146239,74.44181549706052,0.8645022085439124,0.001392897698055444,-0.22922875938010712
584,-0.0008433455351930096,74.44181549706052,0.8645825449716101,0.001391298844786212,-0.23168933839799163
585,-0.0008405203250943524,74.44181549706052,0.8644356691095224,0.001382900973495356,-0.23367656189191074
586,-0.0008377678376271402,74.44181549706052,0.8641018187402617,0.0013702349544935943,-0.23517407532744072
587,-0.0008353332146302172,74.44181549706052,0.8635509207327388,0.001356212441957581,-0.2362031984239701
588,-0.00083336111943251,74.44181549706052,0.8627021434439845,0.001343243534701438,-0.2368206233606639
589,-0.0008319102867767043,74.44181549706052,0.8614909842743587,0.0013328422373718924,-0.23710679146580993
590,-0.0008309722587091292,74.44181549706052,0.8599442140971648,0.0013257408210840798,-0.2371463125657365
591,-0.0008304913028468371,74.44181549706052,0.8582337506874798,0.0013221583931113255,-0.23701065904508534
592,-0.0008303832482192141,74.44181549706052,0.8567041325900211,0.0013220817556455398,-0.2367528406292584
593,-0.0008305517221664563,74.44181549706052,0.8558711204057458,0.001325617490962006,-0.23641639441986517
594,-0.0008309009543609842,74.44181549706052,0.8563774369695425,0.0013331746735458867,-0.2360572200857269
595,-0.0008313448834399341,74.44181549706052,0.8588953041686275,0.0013452978097021012,-0.23577656113867865
596,-0.0008318127349890231,74.44181549706052,0.8639959148412284,0.0013624058594425717,-0.23575890800080643
597,-0.0008322515334231499,74.44181549706052,0.8720330410483759,0.0013846032609406305,-0.236301145379151
598,-0.0008326261758304725,74.44181549706052,0.8830733802365318,0.0014114761860589107,-0.23782085904558034
599,-0.0008329177535028637,74.44181549706052,0.8968586513960252,0.0014419130571318357,-0.24084461431109722
600,-0.0008331207817318635,74.44181549706052,0.9127587696246998,0.0014739858038416306,-0.2459861168907265
601,-0.0008332399164688915,74.44181549706052,0.9297041030694819,0.0015048161109809943,-0.25391848094113406
602,-0.0008332866217227012,74.44181549706052,0.9461346694021896,0.0015305730475035073,-0.26533193687011847
603,-0.0008332761245131142,74.44181549706052,0.9600257868115266,0.0015468194559309827,-0.28086255847254044
604,-0.0008332248706275778,74.44181549706052,0.9690332872906223,0.0015489586473710064,-0.30098507826386456
605,-0.0008331485853159323,74.44181549706052,0.9707747135437284,0.0015323627348738376,-0.32587851468594464
606,-0.000833060954867993,74.44181549706052,0.9632433263232937,0.0014924762867470868,-0.3552879707005384
607,-0.0008329728803453669,74.44181549706052,0.9453144392893915,0.001425914890258463,-0.38841413591698165
608,-0.0008328922131645623,74.44181549706052,0.9172260914825382,0.001333067344454343,-0.42386405927636644
609,-0.0008328238612157628,74.44181549706052,0.8808374209638721,0.0012207451631581004,-0.4596935672912295
610,-0.0008327701499428012,74.44181549706052,0.8394920666194212,0.0011021692527120343,-0.4935570436156773
611,-0.0008327313309563671,74.44181549706052,0.7974836690001508,0.000993656746863786,-0.5229502550931895
612,-0.0008327061469898927,74.44181549706052,0.7592963014090626,0.0009103065811738738,-0.5455011964024361
613,-0.0008326923824638235,74.44181549706052,0.72883685474662,0.0008626239851217589,-0.5592512195926315
614,-0.0008326873504187234,74.44181549706052,0.7088411391106672,0.0008544167549621417,-0.562874771218935
615,-0.0008326882867337108,74.44181549706052,0.7005845017522618,0.000882426475718929,-0.5558035234517508
616,-0.0008326926397920952,74.44181549706052,0.7039263805367262,0.0009380783772566199,-0.5382469392373626
617,-0.0008326982572474748,74.44181549706052,0.7175830659901288,0.001010379281954677,-0.5111290463806424
618,-0.0008327034810409206,74.44181549706052,0.7394696296572459,0.001088494944340571,-0.47597306612707924
619,-0.0008327071675382464,74.44181549706052,0.7670354998577839,0.0011635092686748442,-0.4347547063375324
620,-0.0008327086521157511,74.44181549706052,0.7976062380335478,0.0012295918885232824,-0.38973135006056825
621,-0.0008327076774110979,74.44181549706052,0.8287064066757795,0.0012846069816369043,-0.3432582590569031
622,-0.0008327043025146352,74.44181549706052,0.8582631323649056,0.001330032236010967,-0.29761477045193035
623,-0.0008326988073134397,74.44181549706052,0.8846255905738853,0.0013701027945489414,-0.2548616585002991
624,-0.0008326916026311304,74.44181549706052,0.9064723415501501,0.0014101000430314,-0.2167335478425478
625,-0.0008326831532206167,74.44181549706052,0.9227589964676355,0.0014541642267283433,-0.18455645432877676
626,-0.0008326739174165075,74.44181549706052,0.9327804280765088,0.0015035094771002184,-0.159183477401709
627,-0.0008326643045584198,74.44181549706052,0.9362899376356354,0.001555529950459929,-0.14095326614490555
628,-0.000832654649259289,74.44181549706052,0.9335803013792762,0.0016038378695878096,-0.12968232188517617
629,-0.0008326452002242322,74.44181549706052,0.9254828507662305,0.0016394348608283593,-0.12469963597912226
630,-0.0008326361205681242,74.44181549706052,0.9132874410345608,0.0016529899738742004,-0.12492540021646854
631,-0.0008326274963334898,74.44181549706052,0.8985921467303328,0.0016375931508069966,-0.12899089301477704
632,-0.0008326193500533265,74.44181549706052,0.8830979776402437,0.0015911571945700729,-0.13539219700449553
633,-0.0008326116566114785,74.44181549706052,0.8683898547921464,0.0015175864184968598,-0.142659609442185
634,-0.000832604359211367,74.44181549706052,0.8557577347594375,0.0014260750333279395,-0.14951281449887652
635,-0.0008325973838754983,74.44181549706052,0.8460961603861391,0.0013289027655862952,-0.1549728677926877
636,-0.0008325906514887939,74.44181549706052,0.8398904048649409,0.0012388592254658566,-0.15841772269701807
637,-0.000832584086917165,74.44181549706052,0.8372650955522496,0.0011670720556664518,-0.15958645486068132
638,-0.0008325776251492132,74.44181549706052,0.838051962572149,0.0011213995567627996,-0.15854712391705164
639,-0.0008325712147121018,74.44181549706052,0.8418434333988957,0.0011054638992523006,-0.15564170115157147
640,-0.0008325648188053338,74.44181549706052,0.8480286216069256,0.0011183974379121236,-0.15141523214378358
641,-0.0008325584146911275,74.44181549706052,0.8558303682286894,0.0011552267014436396,-0.14653441960630134
642,-0.0008325519918958665,74.44181549706052,0.8643656733421268,0.0012079058378934187,-0.14170409732076822
643,-0.0008325455497347022,74.44181549706052,0.8727394558116225,0.0012670665830046208,-0.13759141086990428
644,-0.0008325390945914253,74.44181549706052,0.880157631349807,0.001324120744687773,-0.13476343174297128
645,-0.0008325326372866341,74.44181549706052,0.8860243813448624,0.0013729495505876532,-0.1336411794087729
646,-0.0008325261907640364,74.44181549706052,0.8899888811929046,0.001410539228714031,-0.13447508624708562
647,-0.0008325197682285927,74.44181549706052,0.8919354074708755,0.0014364491560072419,-0.13734501420854903
648,-0.0008325133817884443,74.44181549706052,0.8919419197458986,0.0014516417086293527,-0.14217954049736484
649,-0.0008325070415890111,74.44181549706052,0.8902297282373408,0.0014573696114181022,-0.14878490345777867
650,-0.000832500755383273,74.44181549706052,0.887106322498609,0.001454471245207563,-0.15687662704849306
651,-0.0008324945284559044,74.44181549706052,0.8829067564681208,0.0014432012896734491,-0.16610957654447905
652,-0.0008324883638080571,74.44181549706052,0.8779585143492356,0.0014236325075773798,-0.17610352577575544
653,-0.0008324822625108229,74.44181549706052,0.872587663336254,0.0013964445083837326,-0.18646377961573224
654,-0.0008324762241452033,74.44181549706052,0.8671432900599467,0.0013635941143124706,-0.1967994244755796
655,-0.0008324702472613873,74.44181549706052,0.8619941919712234,0.0013283077317748663,-0.2067423628942041
656,-0.0008324643298073621,74.44181549706052,0.8574825301159431,0.00129445475649532,-0.21596672621831517
657,-0.0008324584694940545,74.44181549706052,0.8538657965308348,0.0012658872099353454,-0.22420413600160818
658,-0.0008324526640796727,74.44181549706052,0.851288833661839,0.0012459620039437845,-0.2312519056606751
659,-0.0008324469115686643,74.44181549706052,0.8497972945047395,0.0012370259018019687,-0.23697722856422285
660,-0.000832441210330285,74.44181549706052,0.8493692550710471,0.0012398856214704428,-0.2413211918939726
661,-0.0008324355591481359,74.44181549706052,0.8499377886921274,0.0012536432450268805,-0.24430044126691458
662,-0.0008324299572154886,74.44181549706052,0.8513990518829064,0.001276082821620524,-0.24600153458073365
663,-0.0008324244040922576,74.44181549706052,0.8536148825240867,0.0013042940994333575,-0.2465684565057297
664,-0.0008324188996386853,74.44181549706052,0.8564105101087659,0.0013351148581765226,-0.24619012767650444
665,-0.0008324134439387805,74.44181549706052,0.8595600286839057,0.0013653017661132251,-0.24509318315874426
666,-0.0008324080372238401,74.44181549706052,0.8627675205573088,0.0013915827710060326,-0.24353615835442077
667,-0.0008324026798034363,74.44181549706052,0.8656708433776005,0.0014107316636523069,-0.24179448047840654
668,-0.0008323973720084341,74.44181549706052,0.8678893143573108,0.001419845278724339,-0.24013059927354613
669,-0.000832392114148138,74.44181549706052,0.8691064784575262,0.001417017274841432,-0.23875648996032178
670,-0.0008323869064817063,74.44181549706052,0.869150245495659,0.0014021234104933443,-0.23780269167013454
671,-0.0008323817492025442,74.44181549706052,0.8680328560713684,0.0013770906873169107,-0.23730302024701616
672,-0.0008323766424335031,74.44181549706052,0.8659435373290987,0.0013456164489636273,-0.2371960892015272
673,-0.000832371586230277,74.44181549706052,0.8632138354880105,0.001312754345082826,-0.2373421684774049
674,-0.0008323665805903387,74.44181549706052,0.8602726246279226,0.001284250033647567,-0.23755382180085996
675,-0.0008323616254649765,74.44181549706052,0.8575947934692021,0.0012652857733182578,-0.23763684649018663
676,-0.0008323567207723845,74.44181549706052,0.8556532095067618,0.0012590468482625984,-0.23743516528647549
677,-0.000832351866410238,74.44181549706052,0.8548946833200629,0.0012659984279717027,-0.23687103531703926
678,-0.0008323470622666826,74.44181549706052,0.855748665028843,0.0012842520672423391,-0.23597202823974978
679,-0.0008323423082291252,74.44181549706052,0.8586442689146865,0.0013106561069054046,-0.23488113001812908
680,-0.0008323376041905968,74.44181549706052,0.8639928906076726,0.001342004744640748,-0.23385503663975865
681,-0.0008323329500537632,74.44181549706052,0.8721128485642682,0.0013759037674278942,-0.2332611452276399
682,-0.000832328345732862,74.44181549706052,0.8831086278939153,0.0014109971608558159,-0.23357832276036028
683,-0.0008323237911539679,74.44181549706052,0.8967372866139,0.0014465172643354097,-0.2353955732738753
684,-0.0008323192862540363,74.44181549706052,0.9122893632999474,0.0014814681778978493,-0.23939884637052034
685,-0.0008323148309791642,74.44181549706052,0.9285083936753182,0.0015138563000430738,-0.2463374293390248
686,-0.0008323104252824602,74.44181549706052,0.9435908471866709,0.0015402831068735124,-0.25695879563499413
687,-0.0008323060691218418,74.44181549706052,0.9553163164404139,0.0015561512914433577,-0.2719020268098898
688,-0.0008323017624579921,74.44181549706052,0.9613261437933315,0.001556531481312786,-0.29155671283226
689,-0.0008322975052526298,74.44181549706052,0.9595152174580822,0.0015373533457873592,-0.31591724014670297
690,-0.0008322932974671708,74.44181549706052,0.9484665326750615,0.0014964850730832474,-0.34447020177321447
691,-0.0008322891390617982,74.44181549706052,0.9278473025478443,0.0014346845310243455,-0.3761416535467399
692,-0.0008322850299949169,74.44181549706052,0.8986675991369156,0.0013565351274520926,-0.4093176374790433
693,-0.000832280970222936,74.44181549706052,0.8632874675963847,0.0012705798465708017,-0.4419444865050068
694,-0.0008322769597003048,74.44181549706052,0.8251113785637378,0.001187522206173684,-0.47170574491667466
695,-0.0008322729983797293,74.44181549706052,0.7880390982116365,0.00111705912718176,-0.49625426183475096
696,-0.0008322690862124961,74.44181549706052,0.7558444561761277,0.0010653285783599235,-0.5134621615650299
697,-0.0008322652231488404,74.44181549706052,0.7316370809804073,0.0010339841565695606,-0.5216501723057387
698,-0.0008322614091383119,74.44181549706052,0.7174849298234791,0.0010205652156459705,-0.5197669473900851
699,-0.0008322576441301031,74.44181549706052,0.7142368858808593,0.0010198488676220006,-0.5074982381816214
700,-0.0008322539280733185,74.44181549706052,0.7215650001035537,0.0010259619276598473,-0.485295234474251
701,-0.0008322502609171766,74.44181549706052,0.738186458539924,0.0010344779304998415,-0.4543253971454945
702,-0.0008322466426111426,74.44181549706052,0.7621580424202877,0.001043576092541888,-0.41636379416324
703,-0.0008322430731050004,74.44181549706052,0.7911410364857974,0.0010539512466804628,-0.3736471778242258
704,-0.0008322395523488736,74.44181549706052,0.822621425890402,0.0010679227169143111,-0.32870345309650806
705,-0.0008322360802932073,74.44181549706052,0.854126759320893,0.0010885333566152979,-0.2841608766721364
706,-0.0008322326568887254,74.44181549706052,0.8834327622766845,0.0011190416225613665,-0.24254633199246078
707,-0.0008322292820863719,74.44181549706052,0.90869849911127,0.0011625772035307146,-0.2060895863242793
708,-0.0008322259558372483,74.44181549706052,0.9285057747531154,0.0012216325100087508,-0.1765502103318202
709,-0.0008322226780925518,74.44181549706052,0.9418551081175932,0.0012973458192457143,-0.1550821152305277
710,-0.0008322194488035224,74.44181549706052,0.9481879757951628,0.0013886719916234073,-0.14215121817230822
711,-0.0008322162679214001,74.44181549706052,0.9474468561322478,0.0014915199727250981,-0.13752000175460818
712,-0.0008322131353973947,74.44181549706052,0.940126106223592,0.0015980520742474818,-0.1403070253908014
713,-0.0008322100511826672,74.44181549706052,0.9272641767167715,0.0016966485408222948,-0.14911829845110336
714,-0.0008322070152283212,74.44181549706052,0.910360292944688,0.0017731467809198507,-0.16223010870258847
715,-0.0008322040274854028,74.44181549706052,0.8912260487321026,0.001813539050966855,-0.1777899304624586
716,-0.0008322010879049059,74.44181549706052,0.8717909051197801,0.001807593058267334,-0.19400425323578577
717,-0.0008321981964377808,74.44181549706052,0.8538831149030489,0.00175220599351158,-0.20929399052143485
718,-0.000832195353034945,74.44181549706052,0.8390175818960302,0.0016530627004544697,-0.2224075667707123
719,-0.0008321925576472938,74.44181549706052,0.828233498680353,0.0015237812949082674,-0.23248613226331402
720,-0.0008321898102257102,74.44181549706052,0.8220205558391162,0.0013828608918107588,-0.2390788838983096
721,-0.0008321871107210728,74.44181549706052,0.8203452240427151,0.0012494942026118794,-0.24211171661051237
722,-0.0008321844590842625,74.44181549706052,0.8227509993933437,0.0011395562859309444,-0.24182033049366536
723,-0.0008321818552661674,74.44181549706052,0.8284868300681444,0.0010630814323510293,-0.23866722406147667
724,-0.0008321792992176853,74.44181549706052,0.8366299975750152,0.001023890942004026,-0.23326104014428506
725,-0.0008321767908897246,74.44181549706052,0.8461915881382776,0.0010207542457763646,-0.22628472266047428
726,-0.0008321743302332041,74.44181549706052,0.8562003906901235,0.001048865254751434,-0.21843051104167718
727,-0.0008321719171990512,74.44181549706052,0.8657633770906348,0.0011010335503177874,-0.2103425999985215
728,-0.0008321695517381988,74.44181549706052,0.8741109999673378,0.0011686205460827424,-0.20257372445579383
729,-0.0008321672338015831,74.44181549706052,0.8806423870039372,0.0012423499873311138,-0.19556206943291848
730,-0.000832164963340143,74.44181549706052,0.8849746979712995,0.0013132188000945881,-0.18962882552340798
731,-0.0008321627403048175,74.44181549706052,0.8869825637786528,0.0013735942053728423,-0.18498796649019028
732,-0.000832160564646545,74.44181549706052,0.8868101643901016,0.0014180515991524822,-0.18175630769248727
733,-0.0008321584363162631,74.44181549706052,0.8848478988723507,0.0014435856106451044,-0.17995807437182582
734,-0.0008321563552649089,74.44181549706052,0.8816699378055486,0.001449541796432297,-0.17952830249433085
735,-0.0008321543214434181,74.44181549706052,0.8779320947760704,0.0014376122174302344,-0.18032488553730458
736,-0.0008321523348027258,74.44181549706052,0.8742441642605492,0.0014116671427861485,-0.18215596710700013
737,-0.0008321503952937668,74.44181549706052,0.8710523582696523,0.0013772274962473392,-0.1848185762923318
738,-0.0008321485028674756,74.44181549706052,0.8685758833988176,0.0013406458328691253,-0.1881337603158804
739,-0.0008321466574747862,74.44181549706052,0.8668180363358478,0.0013080041161173997,-0.19196366980008508
740,-0.0008321448590666321,74.44181549706052,0.8656314893769563,0.0012838759875668704,-0.19620816904377145
741,-0.0008321431075939466,74.44181549706052,0.864800598462194,0.0012704486717089458,-0.20079079764879132
742,-0.0008321414030076617,74.44181549706052,0.8641162174799806,0.0012674405774302359,-0.20564564641160127
743,-0.0008321397452587088,74.44181549706052,0.86342998476451,0.0012728458950812972,-0.21071088347794537
744,-0.0008321381342980176,74.44181549706052,0.8626735028913896,0.001284152776566688,-0.21592941148578554
745,-0.000832136570076518,74.44181549706052,0.8618322873709527,0.0012993397132734696,-0.22125353796689187
746,-0.0008321350525451396,74.44181549706052,0.8608885799255263,0.00131701725778359,-0.22664671355986907
747,-0.0008321335816548123,74.44181549706052,0.859774205694198,0.001335826697204651,-0.23207363517623023
748,-0.0008321321573564673,74.44181549706052,0.8583721524676714,0.0013538302900260733,-0.23747564559873235
749,-0.0008321307796010373,74.44181549706052,0.8565685649038838,0.0013684375356771623,-0.24274062431030885
750,-0.0008321294483394557,74.44181549706052,0.8543249485245444,0.001376903982787305,-0.24768262730411858
751,-0.0008321281635226568,74.44181549706052,0.8517413831008134,0.001377176272992984,-0.2520397085120755
752,-0.0008321269251015758,74.44181549706052,0.8490943429350033,0.0013687114714176299,-0.2554915112519719
753,-0.000832125733027148,74.44181549706052,0.8468356891961681,0.0013528804827052077,-0.25769861375784314
754,-0.0008321245872503076,74.44181549706052,0.8455414547790574,0.001332858544693373,-0.25836293017592105
755,-0.000832123487721988,74.44181549706052,0.8458159334088813,0.0013131153231576453,-0.2572993536066755
756,-0.0008321224343931218,74.44181549706052,0.8481830031359718,0.001298572206039871,-0.2545018616689492
757,-0.0008321214272146406,74.44181549706052,0.8530068575556419,0.0012936349162386747,-0.2501872811819307
758,-0.0008321204661374757,74.44181549706052,0.8604632207677572,0.0013014150008167453,-0.2448067623674005
759,-0.0008321195511125582,74.44181549706052,0.8705438611476438,0.0013232033901116368,-0.23902608949573986
760,-0.0008321186820908196,74.44181549706052,0.883056072462123,0.0013581942210562441,-0.23368446773859472
761,-0.0008321178590231915,74.44181549706052,0.8975933678338258,0.0014036400852801174,-0.22974207006143998
762,-0.0008321170818606059,74.44181549706052,0.9134820080591586,0.0014554839962257378,-0.22822131579717336
763,-0.0008321163505539944,74.44181549706052,0.9297215416983271,0.0015090823159198256,-0.23014181022257135
764,-0.0008321156650542884,74.44181549706052,0.9449383797762999,0.0015594394424881777,-0.23644695229185317
765,-0.0008321150253124196,74.44181549706052,0.9573819990414616,0.0016008277083991347,-0.24791916097122044
766,-0.0008321144312793204,74.44181549706052,0.9650159733827856,0.0016264306731179948,-0.2650806663673508
767,-0.0008321138829059243,74.44181549706052,0.9657579310528077,0.00162878336654515,-0.2880818679483796
768,-0.000832113380143165,74.44181549706052,0.9578769968401997,0.0016011363654249524,-0.3165901487906195
769,-0.0008321129229419774,74.44181549706052,0.9404780207906579,0.0015395067888156254,-0.34970437341999344
770,-0.0008321125112532961,74.44181549706052,0.9139302081989366,0.001445269008313654,-0.38592586318544275
771,-0.0008321121450280561,74.44181549706052,0.8800687613966118,0.001327187841280305,-0.4232105780889081
772,-0.0008321118242171921,74.44181549706052,0.8420401735841581,0.0012006342729344738,-0.45911430295216965
773,-0.0008321115487716381,74.44181549706052,0.8037922419087392,0.0010834964290983684,-0.4910248050516516
774,-0.000832111318642327,74.44181549706052,0.7693649622006544,0.0009913669868693825,-0.5164492401531282
775,-0.0008321111337801912,74.44181549706052,0.7422062099817454,0.0009344026922871208,-0.5333021896707759
776,-0.0008321109941361632,74.44181549706052,0.7246881532308539,0.0009160350699960415,-0.5401373948782965
777,-0.0008321108996611751,74.44181549706052,0.7178868958770233,0.0009330293533282486,-0.5362855578004978
778,-0.0008321108503061593,74.44181549706052,0.7215919610646795,0.0009767281706522077,-0.5218867464442566
779,-0.0008321108460220476,74.44181549706052,0.7345016132945146,0.001035334487199547,-0.49782599193084587
780,-0.0008321108867597722,74.44181549706052,0.7545745289689966,0.0010969125003407404,-0.465594235443571
781,-0.0008321109724702654,74.44181549706052,0.7794558287794239,0.0011523929659072315,-0.4271087671209676
782,-0.0008321111031044589,74.44181549706052,0.8068346456297275,0.0011974709715248475,-0.38453206897955233
783,-0.0008321112786132838,74.44181549706052,0.8346319707976558,0.001232606946860344,-0.3401154239183188
784,-0.0008321114989476721,74.44181549706052,0.8610449377024963,0.0012614265912397466,-0.296070271352715
785,-0.0008321117640585568,74.44181549706052,0.8845497614644074,0.0012886321508501603,-0.25445668313885567
786,-0.0008321120738968732,74.44181549706052,0.9039207871796968,0.0013183516958364234,-0.21708077025551545
787,-0.0008321124284135576,74.44181549706052,0.9182560249567046,0.0013531803589064372,-0.18539712679603693
788,-0.0008321128275595469,74.44181549706052,0.9269984705511767,0.001393722817080396,-0.1604147190237107
789,-0.0008321132712857757,74.44181549706052,0.9299693650871761,0.0014384236104463934,-0.14261564373981522
790,-0.0008321137595431775,74.44181549706052,0.9274195578189739,0.0014836248114480743,-0.13191093860947883
791,-0.000832114292282684,74.44181549706052,0.9200613433759482,0.0015238297064560282,-0.12765887703167064
792,-0.0008321148694552259,74.44181549706052,0.9090268861135696,0.0015523392780476437,-0.12875624372452335
793,-0.0008321154910117348,74.44181549706052,0.8957364763766793,0.0015626287907786437,-0.1337919711235847
794,-0.0008321161569031423,74.44181549706052,0.8817086112014832,0.001550346176305334,-0.14123406500743219
795,-0.0008321168670803807,74.44181549706052,0.8683642241560053,0.001515078674955606,-0.1496124029900626
796,-0.0008321176214943834,74.44181549706052,0.8568681883816557,0.0014609971998738455,-0.15766584470356046
797,-0.0008321184200960841,74.44181549706052,0.8480316203301359,0.0013960482643816654,-0.16443623231380303
798,-0.0008321192628364173,74.44181549706052,0.8422813897852107,0.0013300173993802096,-0.16930560563575994
799,-0.0008321201496663179,74.44181549706052,0.8396892109546908,0.0012722351951116456,-0.17198498174466503
800,-0.0008321210805367207,74.44181549706052,0.8400403622494037,0.0012297582791999375,-0.17247218352900456
801,-0.000832122055398561,74.44181549706052,0.8429139660507483,0.0012065040038327795,-0.17099684008162855
802,-0.0008321230742027724,74.44181549706052,0.8477503977760154,0.001203202190060024,-0.16796315254548344
803,-0.000832124136900288,74.44181549706052,0.8538991424836234,0.0012177310059701637,-0.16389305197525555
804,-0.0008321252434420397,74.44181549706052,0.8606595010254717,0.0012457220872122308,-0.1593690833287324
805,-0.0008321263937789587,74.44181549706052,0.8673304036957764,0.001281580700477757,-0.15497697103772243
806,-0.0008321275878619765,74.44181549706052,0.8732739052901947,0.0013197335891822542,-0.15124985816097705
807,-0.0008321288256420251,74.44181549706052,0.8779855348833813,0.0013554920461817028,-0.14861907948707193
808,-0.0008321301070700382,74.44181549706052,0.8811590621270698,0.0013852241962190842,-0.1473789113101901
809,-0.000832131432096951,74.44181549706052,0.8827259424755198,0.0014062499065217455,-0.14767114479700724
810,-0.0008321328006736994,74.44181549706052,0.8828472436402623,0.00141687150738098,-0.14949040171483957
811,-0.0008321342127512191,74.44181549706052,0.8818501252987103,0.0014164627559044266,-0.15270893110556183
812,-0.0008321356682804459,74.44181549706052,0.8801271909776861,0.0014055409861479943,-0.15711779289434014
813,-0.0008321371672123142,74.44181549706052,0.8780364382595004,0.001385854453859217,-0.16247392108868985
814,-0.0008321387094977578,74.44181549706052,0.8758331385717958,0.001360296782417588,-0.16853773885850876
815,-0.0008321402950877092,74.44181549706052,0.8736423205017803,0.0013325069163950948,-0.17509202262159315
816,-0.0008321419239331006,74.44181549706052,0.8714698708923441,0.0013062605102113092,-0.18194195965069007
817,-0.000832143595984864,74.44181549706052,0.8692524364991369,0.0012847566614913302,-0.18890231452413966
818,-0.0008321453111939323,74.44181549706052,0.8669381203018949,0.0012699591492635678,-0.19578205525985293
819,-0.0008321470695112394,74.44181549706052,0.864564380490478,0.001262328173968626,-0.2023787476500022
820,-0.0008321488708877187,74.44181549706052,0.8622869637677338,0.0012611095005323253,-0.2084909462126243
821,-0.0008321507152743037,74.44181549706052,0.8603426445223016,0.0012649546677272051,-0.21394629561154313
822,-0.0008321526026219276,74.44181549706052,0.8589732277182064,0.0012726081391055068,-0.21863253363213692
823,-0.0008321545328815237,74.44181549706052,0.8583519637281972,0.001283471740619382,-0.22251757026015515
824,-0.0008321565060040255,74.44181549706052,0.8585321268480636,0.0012976460370159506,-0.2256540468103946
825,-0.0008321585219403658,74.44181549706052,0.8594193279975196,0.0013152895178248564,-0.22817252858299605
826,-0.0008321605806414773,74.44181549706052,0.8607754585428742,0.0013358262976062689,-0.2302664116013783
827,-0.0008321626820582931,74.44181549706052,0.8622684447344042,0.0013575392875129354,-0.23216608972890487
828,-0.000832164826141747,74.44181549706052,0.863564174100822,0.001377703639585964,-0.2341023922538086
829,-0.0008321670128427739,74.44181549706052,0.8644236604856608,0.0013932831292748941,-0.23626803226491253
830,-0.00083216924211231,74.44181549706052,0.8647527757145163,0.0014018608949704346,-0.2387885692231066
831,-0.0008321715139012911,74.44181549706052,0.8645806973095582,0.00140222266536502,-0.24170935994234444
832,-0.0008321738281606538,74.44181549706052,0.8639942849456408,0.0013944905854254418,-0.24499859873237648
833,-0.0008321761848413346,74.44181549706052,0.863076267556807,0.001380138646361332,-0.24856248263171052
834,-0.0008321785838942692,74.44181549706052,0.8618728390219383,0.0013618730777246596,-0.2522674880231033
835,-0.0008321810252703927,74.44181549706052,0.8603917245282541,0.0013429468748380063,-0.2559643913353798
836,-0.0008321835089206395,74.44181549706052,0.8586311384569898,0.0013259017831205493,-0.2595071695541955
837,-0.0008321860347959428,74.44181549706052,0.856641402759827,0.0013116488376958748,-0.2627600172111465
838,-0.0008321886028472355,74.44181549706052,0.8546038799037399,0.0012998977068351104,-0.2655907683479762
839,-0.0008321912130254497,74.44181549706052,0.8528874713638365,0.0012906700906556473,-0.26785965173417203
840,-0.0008321938652815162,74.44181549706052,0.8520396137757922,0.0012854011454180524,-0.26942229297888154
841,-0.0008321965595663654,74.44181549706052,0.8527026658462401,0.001286640532064314,-0.27016135245716844
842,-0.0008321992958309274,74.44181549706052,0.855493430746442,0.001296902780689428,-0.2700399620268104
843,-0.0008322020740261329,74.44181549706052,0.8608979844881465,0.0013176850382223188,-0.26915425403724175
844,-0.0008322048941029142,74.44181549706052,0.869202194433771,0.0013489484974138343,-0.267769286153483
845,-0.000832207756012206,74.44181549706052,0.8804371699424441,0.0013889583845663699,-0.2663381286686055
846,-0.0008322106597049451,74.44181549706052,0.8943123038078575,0.0014344588019645477,-0.2655057360627551
847,-0.0008322136051320694,74.44181549706052,0.9101363106064497,0.001481089496626641,-0.26609094081306117
848,-0.0008322165922445174,74.44181549706052,0.9267522012267826,0.0015238852395475443,-0.2690377882951875
849,-0.0008322196209932271,74.44181549706052,0.9425133749753783,0.0015576132033709549,-0.27533299857509586
850,-0.0008322226913291353,74.44181549706052,0.9553290270548231,0.0015767494874100309,-0.28589062458814707
851,-0.0008322258032031776,74.44181549706052,0.962827858416174,0.0015755259519317339,-0.3014068401327991
852,-0.0008322289565662882,74.44181549706052,0.9626923098186755,0.001548766413483992,-0.3221945228291717
853,-0.0008322321513694003,74.44181549706052,0.953157698668252,0.0014935164848804909,-0.3480235712537137
854,-0.0008322353875634469,74.44181549706052,0.9335651738031915,0.0014109545416975784,-0.3780110121941203
855,-0.0008322386650993601,74.44181549706052,0.9047707911040384,0.001307986851843788,-0.4106070581447339
856,-0.0008322419839280726,74.44181549706052,0.8692166741958673,0.0011972999140442532,-0.4437019593996999
857,-0.000832245344000517,74.44181549706052,0.8305836715229103,0.001094748825434696,-0.47484580297093776
858,-0.0008322487452676258,74.44181549706052,0.7931143148972355,0.0010150853418587618,-0.5015430002727655
859,-0.0008322521876803323,74.44181549706052,0.7608229732664755,0.0009683421876807522,-0.5215622788297734
860,-0.0008322556711895706,74.44181549706052,0.7368317405725868,0.0009579052805991534,-0.5331990365668788
861,-0.000832259195746275,74.44181549706052,0.7229897294279969,0.0009801729696301638,-0.5354436018341101
862,-0.0008322627613013804,74.44181549706052,0.7197945850802105,0.0010258318059815472,-0.5280394960133128
863,-0.0008322663678058225,74.44181549706052,0.7265300057458759,0.001082535431406483,-0.511444848328206
864,-0.0008322700152105373,74.44181549706052,0.7415389379446395,0.0011382007955907114,-0.4867236677778923
865,-0.0008322737034664611,74.44181549706052,0.7625965333216925,0.0011840760996222163,-0.45539362909139597
866,-0.0008322774325245296,74.44181549706052,0.7873192032946338,0.0012168252380904314,-0.4192563510842824
867,-0.0008322812023356786,74.44181549706052,0.8134929167175989,0.0012387826781317854,-0.3802364588300066
868,-0.0008322850128508439,74.44181549706052,0.8392361279167747,0.0012559911098119186,-0.34024698655812113
869,-0.0008322888640209605,74.44181549706052,0.8630238609461685,0.0012750080241112332,-0.30108208619655197
870,-0.0008322927557969632,74.44181549706052,0.8836663729332095,0.0013003054621351197,-0.264329273554431
871,-0.0008322966881297857,74.44181549706052,0.9002949011980553,0.0013332544839789204,-0.23129823309369746
872,-0.000832300660970361,74.44181549706052,0.9123464146481305,0.0013723332372013474,-0.20296935034736777
873,-0.0008323046742696213,74.44181549706052,0.9195395347388288,0.001413826646991663,-0.1799637752209543
874,-0.0008323087279784989,74.44181549706052,0.921863297658534,0.0014527639511844625,-0.16253239420930723
875,-0.0008323128220479267,74.44181549706052,0.91959745325781,0.001484037242203797,-0.15056191544774844
876,-0.0008323169564288385,74.44181549706052,0.9133416755956196,0.0015033444493504197,-0.14360243197477338
877,-0.0008323211310721697,74.44181549706052,0.9040059158939688,0.0015076693202540584,-0.14092245576168166
878,-0.0008323253459288564,74.44181549706052,0.8927361464791771,0.0014955131173910116,-0.14159067083181898
879,-0.0008323296009498347,74.44181549706052,0.8807874636114134,0.0014672581938662717,-0.14457563515425595
880,-0.0008323338960860412,74.44181549706052,0.8693757078455745,0.001425686840893824,-0.14885008528587962
881,-0.0008323382312884121,74.44181549706052,0.8595382636942899,0.0013761815495002437,-0.15348621146911715
882,-0.0008323426065078833,74.44181549706052,0.8520289650345351,0.0013260216227281771,-0.15773153639177287
883,-0.0008323470216953895,74.44181549706052,0.8472661259575425,0.0012827059916332235,-0.16105797463879584
884,-0.0008323514768018641,74.44181549706052,0.8453410380003988,0.0012519465519803565,-0.16317896354423586
885,-0.0008323559717782398,74.44181549706052,0.8460750815662919,0.0012363567018436998,-0.1640352496300113
886,-0.0008323605065754494,74.44181549706052,0.8490967913003247,0.0012354615522050865,-0.16375792494068578
887,-0.0008323650811444261,74.44181549706052,0.8539117362331312,0.0012465953538790592,-0.16262138341529034
888,-0.0008323696954361037,74.44181549706052,0.8599548148251464,0.0012659009568241396,-0.1609961815263176
889,-0.0008323743494014171,74.44181549706052,0.8666246391495981,0.0012893330846013875,-0.15930611677282427
890,-0.0008323790429913021,74.44181549706052,0.8733020150936636,0.0013136149933423854,-0.1579896104257649
891,-0.0008323837761566956,74.44181549706052,0.879365576006235,0.0013365644692226416,-0.15746223228885436
892,-0.0008323885488485349,74.44181549706052,0.8842306149517087,0.0013567245781307474,-0.15807585304285257
893,-0.0008323933610177572,74.44181549706052,0.8874247589060342,0.0013730175812968915,-0.1600755841508631
894,-0.0008323982126152998,74.44181549706052,0.8886742017893925,0.0013847381693765529,-0.16356490434087015
895,-0.000832403103592099,74.44181549706052,0.8879517026176131,0.0013916094054126232,-0.16849098684503405
896,-0.0008324080338990908,74.44181549706052,0.8854638978886483,0.0013937804749667867,-0.17465532342069384
897,-0.0008324130034872102,74.44181549706052,0.8815955075765832,0.0013918567144726717,-0.18174709424477015
898,-0.0008324180123073915,74.44181549706052,0.8768359705485284,0.001386928409828474,-0.18939117989231782
899,-0.0008324230603105677,74.44181549706052,0.8716959662978466,0.0013803713728518785,-0.1971990142064863
900,-0.0008324281474476718,74.44181549706052,0.8666178125689744,0.0013732809297471746,-0.20480934980273863
901,-0.0008324332736696357,74.44181549706052,0.8619063136470717,0.0013659602116639416,-0.21190885171261103
902,-0.0008324384389273921,74.44181549706052,0.8577162939213481,0.0013581076943319948,-0.21823187304001493
903,-0.0008324436431718733,74.44181549706052,0.8541045991187268,0.0013495054143315333,-0.2235501473117251
904,-0.0008324488863540126,74.44181549706052,0.8511124019281628,0.001340298046141136,-0.22766615326395603
905,-0.000832454168424744,74.44181549706052,0.8488271513729803,0.0013306110058211645,-0.23041907428524935
906,-0.0008324594893350031,74.44181549706052,0.8473946547812821,0.0013202011696162007,-0.2317062484305186
907,-0.0008324648490357269,74.44181549706052,0.8469851125639442,0.0013087057550560286,-0.23151528103889726
908,-0.0008324702474778538,74.44181549706052,0.8477326178056159,0.001296280496351333,-0.22995322017340528
909,-0.0008324756846123221,74.44181549706052,0.8496664839615897,0.001283981561499503,-0.22725795402567547
910,-0.0008324811603900691,74.44181549706052,0.8526566164466005,0.001273543335482531,-0.22378605228099546
911,-0.0008324866747620316,74.44181549706052,0.8564038390946747,0.0012668017749358604,-0.2199805968616893
912,-0.0008324922276791457,74.44181549706052,0.8604950680292245,0.0012651533624123824,-0.21632473729997775
913,-0.0008324978190923463,74.44181549706052,0.8645086304252445,0.0012692969134225672,-0.2132868762337791
914,-0.000832503448952568,74.44181549706052,0.8681187641356551,0.0012793777501707174,-0.21126650284360943
915,-0.0008325091172107453,74.44181549706052,0.8711424930045808,0.001295215061085062,-0.21055105046068637
916,-0.0008325148238178125,74.44181549706052,0.8735129002356009,0.0013161207920638412,-0.21129067620066713
917,-0.0008325205687247035,74.44181549706052,0.8752141881940486,0.0013405651141839884,-0.21349364947528182
918,-0.0008325263518823526,74.44181549706052,0.8762251215887263,0.0013663717843864739,-0.21704125939966185
919,-0.0008325321732416941,74.44181549706052,0.8764888846415679,0.001391298384007672,-0.22171767249906554
920,-0.0008325380327536627,74.44181549706052,0.8759046102165421,0.001413256702863038,-0.2272480505689273
921,-0.0008325439303691937,74.44181549706052,0.8743457463660974,0.0014301434545339255,-0.2333337675535845
922,-0.000832549866039223,74.44181549706052,0.8717242607921545,0.0014399366080883483,-0.23967067012068918
923,-0.0008325558397146873,74.44181549706052,0.868096504661639,0.0014412576381975504,-0.2459474663843184
924,-0.0008325618513465233,74.44181549706052,0.8637565468291116,0.0014338909485721609,-0.2518401689813604
925,-0.000832567900885668,74.44181549706052,0.8592494582060984,0.001418871315021217,-0.257023604410549
926,-0.0008325739882830581,74.44181549706052,0.8552917664871531,0.0013982928734135671,-0.26120649857387745
927,-0.0008325801134896298,74.44181549706052,0.8526521157721629,0.0013750931522808708,-0.2641775850185384
928,-0.0008325862764563179,74.44181549706052,0.852053940987166,0.0013528463843556816,-0.26584469589477583
929,-0.0008325924771340564,74.44181549706052,0.85411557343621,0.0013353828218348478,-0.2662595936135121
930,-0.0008325987154737785,74.44181549706052,0.8593004925804766,0.0013260264085075035,-0.2656337271269867
931,-0.0008326049914264168,74.44181549706052,0.8678540513604794,0.0013266772406968891,-0.26434984224674224
932,-0.0008326113049429046,74.44181549706052,0.8797303281725302,0.0013372618592068166,-0.26296355155170587
933,-0.0008326176559741765,74.44181549706052,0.8945205680632988,0.001355792154078668,-0.26218538615872444
934,-0.0008326240444711679,74.44181549706052,0.9113800167825398,0.0013789359430522758,-0.2628465701256205
935,-0.0008326304703848155,74.44181549706052,0.9289524024044195,0.0014027095382177811,-0.2658600271011895
936,-0.0008326369336660572,74.44181549706052,0.9453337169076963,0.0014227734892221784,-0.2721716270289854
937,-0.0008326434342658311,74.44181549706052,0.9581563419040602,0.0014343217761793097,-0.2826750708344726
938,-0.0008326499721350754,74.44181549706052,0.9648560249271357,0.0014322046353130776,-0.29807103586104056
939,-0.0008326565472247284,74.44181549706052,0.9631120637765366,0.0014117736685521952,-0.3186863618900117
940,-0.0008326631594857276,74.44181549706052,0.9513765918433856,0.001370300868875609,-0.3443005601205744
941,-0.0008326698088690084,74.44181549706052,0.9293639155674417,0.0013087109873998262,-0.3740324773951873
942,-0.0008326764953255055,74.44181549706052,0.8983453494746412,0.00123309479380958,-0.4063246312087683
943,-0.0008326832188061519,74.44181549706052,0.8611057301458187,0.00115443818762307,-0.4390427083558978
944,-0.0008326899792618794,74.44181549706052,0.8215170232129441,0.0010856832614247157,-0.4696869721023481
945,-0.0008326967766436208,74.44181549706052,0.7838481134225449,0.0010378930859784134,-0.49568467469587807
946,-0.0008327036109023096,74.44181549706052,0.752033455806302,0.0010177338782869482,-0.514705727363474
947,-0.000832710481988881,74.44181549706052,0.7290874894752475,0.0010263737951959496,-0.524938703792283
948,-0.0008327173898542711,74.44181549706052,0.7167515853693817,0.0010591066406482924,-0.5252832690357004
949,-0.0008327243344494176,74.44181549706052,0.7154052360394839,0.0011059913311089909,-0.5154391914370989
950,-0.0008327313157252587,74.44181549706052,0.7242395564670567,0.0011542101523059226,-0.49589198928907385
951,-0.0008327383336327334,74.44181549706052,0.7416117668812814,0.001191945606096816,-0.46781618828086596
952,-0.00083274538812278,74.44181549706052,0.7654208488121278,0.0012123094000958267,-0.43293333038698567
953,-0.0008327524791463365,74.44181549706052,0.7933693321580454,0.0012154577635147539,-0.393356869122285
954,-0.0008327596066543395,74.44181549706052,0.8231080372799489,0.0012078931130393373,-0.3514316870049687
955,-0.0008327667705977241,74.44181549706052,0.8523579007741172,0.0011994965444839835,-0.3095594098546876
956,-0.0008327739709274242,74.44181549706052,0.87906059707132,0.001200014085432649,-0.27001054130364366
957,-0.0008327812075943734,74.44181549706052,0.9015202523432,0.0012165365348008699,-0.23474488475178662
958,-0.0008327884805495058,74.44181549706052,0.9184900262670602,0.0012523497351386071,-0.2052669429229771
959,-0.0008327957897437557,74.44181549706052,0.9292134795207948,0.0013068204593591564,-0.1825308034816485
960,-0.0008328031351280583,74.44181549706052,0.9334549515793805,0.0013758980351698314,-0.16689728544073082
961,-0.000832810516653349,74.44181549706052,0.9315152020536113,0.0014528112439736068,-0.15814439222316976
962,-0.0008328179342705639,74.44181549706052,0.9241952008553049,0.0015288704984129412,-0.15553103601073434
963,-0.0008328253879306385,74.44181549706052,0.9126906983012294,0.001594698026833969,-0.1579062539233116
964,-0.0008328328775845081,74.44181549706052,0.8984428124640497,0.0016418691965160472,-0.16384803259226496
965,-0.0008328404031831087,74.44181549706052,0.8829876842772667,0.0016643063751236194,-0.17181354530571546
966,-0.0008328479646773767,74.44181549706052,0.8678296952858753,0.001658827587016009,-0.18028547007084883
967,-0.000832855562018249,74.44181549706052,0.8543340278716732,0.001625020101523258,-0.1879046365448681
968,-0.0008328631951566631,74.44181549706052,0.8436249932166761,0.001565249824224843,-0.193583898794345
969,-0.0008328708640435567,74.44181549706052,0.8364909730531029,0.0014851184723927396,-0.19659774444966516
970,-0.0008328785686298678,74.44181549706052,0.8333135173607128,0.0013936250377865425,-0.19663764778814555
971,-0.0008328863088665341,74.44181549706052,0.8340362746616911,0.0013022535116132155,-0.1938212207970132
972,-0.0008328940847044926,74.44181549706052,0.8381788920818628,0.0012228446857589239,-0.1886486331871047
973,-0.0008329018960946794,74.44181549706052,0.8449011701275391,0.001164744344516856,-0.18191042486413733
974,-0.0008329097429880301,74.44181549706052,0.8531264052731926,0.001132534040045618,-0.17456103936124182
975,-0.00083291762533548,74.44181549706052,0.8617178979416212,0.0011255629726068226,-0.16757942755876143
976,-0.0008329255430879639,74.44181549706052,0.8696700438346393,0.0011392104185279901,-0.16184177716952725
977,-0.0008329334961964164,74.44181549706052,0.8762566116913955,0.0011670030317458859,-0.1580282586688638
978,-0.0008329414846117724,74.44181549706052,0.8810930199011098,0.0012027436046343934,-0.15657386728288766
979,-0.0008329495082849666,74.44181549706052,0.8841019466451865,0.0012419229560407168,-0.15766073072377076
980,-0.0008329575671669336,74.44181549706052,0.8854063198359997,0.0012819654392057307,-0.1612419426038774
981,-0.0008329656612086084,74.44181549706052,0.8852040205679297,0.0013214209749447651,-0.16708313166008956
982,-0.0008329737903609264,74.44181549706052,0.8836863493949015,0.0013587702865036067,-0.17480799329433896
983,-0.0008329819545748242,74.44181549706052,0.8810308364554826,0.0013916386753572746,-0.18393973376382455
984,-0.0008329901538012405,74.44181549706052,0.8774464522492272,0.001416796697332245,-0.19393671939107493
985,-0.0008329983879911153,74.44181549706052,0.8732196916650893,0.001430848137064027,-0.20422327640810753
986,-0.0008330066570953882,74.44181549706052,0.8687225623027056,0.0014312544483526376,-0.21421927486789463
987,-0.0008330149610649969,74.44181549706052,0.8643749252985908,0.001417236076832555,-0.22337613202625245
988,-0.0008330232998508778,74.44181549706052,0.8605774000050906,0.0013902746529529362,-0.2312236901923686
989,-0.000833031673403966,74.44181549706052,0.8576394875374593,0.0013542340449282147,-0.2374197060857972
990,-0.0008330400816751966,74.44181549706052,0.8557246455325854,0.0013149619134008473,-0.2417854948587591
991,-0.0008330485246155043,74.44181549706052,0.8548300630255876,0.0012790205635480878,-0.2443159924886673
992,-0.000833057002175824,74.44181549706052,0.8548146401273242,0.0012517749104528496,-0.24516227890702139
993,-0.0008330655143070908,74.44181549706052,0.8554704374221324,0.0012359343414562907,-0.24459426886723615
994,-0.0008330740609602402,74.44181549706052,0.8566025581411687,0.0012314989021551131,-0.24295840329599447
995,-0.000833082642086208,74.44181549706052,0.8580716549603151,0.0012368489167567105,-0.24064220555653038
996,-0.0008330912576359305,74.44181549706052,0.8597794956531792,0.0012499072586488562,-0.23804611522580985
997,-0.0008330999075603447,74.44181549706052,0.861617617729328,0.0012687334198476297,-0.23555479845200641
998,-0.0008331085918103882,74.44181549706052,0.8634203768047876,0.0012915840535752765,-0.2335019070886455
999,-0.0008331173103369984,74.44181549706052,0.8649535189396922,0.0013166347456774119,-0.23213228050861306
1000,-0.0008331260630911125,74.44181549706052,0.8659425231685993,0.0013416622182111746,-0.23157305498017655
1001,-0.0008331348500236676,74.44181549706052,0.8661310036760125,0.0013640081757263225,-0.23182052742571263
1002,-0.0008331436710855996,74.44181549706052,0.8653601237334758,0.001380888460987014,-0.23274170464935653
1003,-0.0008331525262278444,74.44181549706052,0.8636518953594504,0.0013899443695213774,-0.2340915383654098
1004,-0.0008331614154013379,74.44181549706052,0.8612615450804623,0.0013899037562226603,-0.2355524532649255
1005,-0.0008331703385570169,74.44181549706052,0.8586649196181413,0.0013812002893671222,-0.2367968958819433
1006,-0.0008331792956458189,74.44181549706052,0.8564805153100193,0.0013662759093708676,-0.2375589288313699
1007,-0.0008331882866186813,74.44181549706052,0.8553675230825863,0.0013492770425031669,-0.23769393922421878
1008,-0.0008331973114265416,74.44181549706052,0.8559507992575603,0.001335334692436092,-0.2372123869293259
1009,-0.0008332063700203376,74.44181549706052,0.8587883839303262,0.0013298037594614506,-0.2362857450071476
1010,-0.0008332154623510063,74.44181549706052,0.8643527563449468,0.0013373540976573928,-0.23523242409607087
1011,-0.0008332245883694843,74.44181549706052,0.8729871424602914,0.0013607950256259945,-0.23449692559000873
1012,-0.0008332337480267073,74.44181549706052,0.8848231118583929,0.0014000621405378436,-0.23463617186619432
1013,-0.0008332429412736102,74.44181549706052,0.899668848774518,0.0014519368971186806,-0.2363201435911578
1014,-0.0008332521680611273,74.44181549706052,0.9168792831584767,0.001510604829090857,-0.24033914134118026
1015,-0.0008332614283401939,74.44181549706052,0.9352278482584218,0.0015685596028347064,-0.24759517124303868
1016,-0.0008332707220617454,74.44181549706052,0.9528341038115985,0.0016172706050145524,-0.2590506947226311
1017,-0.000833280049176719,74.44181549706052,0.9672278799838293,0.00164754937319221,-0.2756160292384659
1018,-0.0008332894096360531,74.44181549706052,0.9756125875271583,0.001650113502617447,-0.2979750490619503
1019,-0.0008332988033906872,74.44181549706052,0.9753252860588663,0.0016169044713986616,-0.32637701741051367
1020,-0.0008333082303915603,74.44181549706052,0.964411073794594,0.0015432211558482115,-0.360447857833329
1021,-0.0008333176905896103,74.44181549706052,0.9421792294541261,0.001430272872790552,-0.39907675331767317
1022,-0.000833327183935774,74.44181549706052,0.9095895398502674,0.0012872461229363813,-0.44041376741385924
1023,-0.0008333367103809861,74.44181549706052,0.8693168763196512,0.0011312044836389616,-0.4819893054108509
1024,-0.000833346269876181,74.44181549706052,0.825405527522628,0.0009838449915976388,-0.5209448114979773
1025,-0.0008333558623722931,74.44181549706052,0.7825778282076963,0.0008665059174306297,-0.5543430804825605
1026,-0.0008333654878202573,74.44181549706052,0.7454059426320518,0.0007956256084092595,-0.5795085273143159
1027,-0.0008333751461710092,74.44181549706052,0.7175705152037094,0.0007795465320101393,-0.5943397009949967
1028,-0.0008333848373754858,74.44181549706052,0.7013488010845396,0.0008169100501472468,-0.5975406060621392
1029,-0.000833394561384625,74.44181549706052,0.6974132368766333,0.0008972061929991327,-0.5887332392308191
1030,-0.0008334043181493654,74.44181549706052,0.7049708746245741,0.001003637267154771,-0.5684395054798344
1031,-0.0008334141076206465,74.44181549706052,0.722167116826365,0.0011173216191637477,-0.537952117130681
1032,-0.0008334239297494083,74.44181549706052,0.7465654424691275,0.0012213548122745064,-0.49914122447357356
1033,-0.0008334337844865902,74.44181549706052,0.7755217909440166,0.001303819449364683,-0.4542485251117112
1034,-0.0008334436717831309,74.44181549706052,0.8064178716081665,0.0013595392844701491,-0.4056974253523973
1035,-0.0008334535915899684,74.44181549706052,0.8368388583862011,0.0013903372921192903,-0.3559213772117225
1036,-0.0008334635438580401,74.44181549706052,0.8647411797678551,0.0014033995910178929,-0.307207633098364
1037,-0.0008334735285382824,74.44181549706052,0.8885595686828449,0.0014080955547629622,-0.26156233452039596
1038,-0.00083348354558163,74.44181549706052,0.9072105288243629,0.0014125801647600904,-0.22060445226477884
1039,-0.0008334935949390168,74.44181549706052,0.9200456302003001,0.0014215322809259699,-0.185488999777044
1040,-0.0008335036765613758,74.44181549706052,0.9268446430450689,0.0014356476200787828,-0.15686012202248534
1041,-0.00083351379039964,74.44181549706052,0.9278529771259677,0.001452546670654296,-0.13484365314901095
1042,-0.000833523936404743,74.44181549706052,0.9237817151320489,0.0014681804130389385,-0.11908796980812988
1043,-0.0008335341145276198,74.44181549706052,0.9157112023740259,0.0014781546285445066,-0.10885026941547499
1044,-0.0008335443247192081,74.44181549706052,0.9049235671838382,0.0014789554078409248,-0.10311712639484555
1045,-0.0008335545669304477,74.44181549706052,0.8927359756227485,0.001468944327675633,-0.1007427065391889
1046,-0.0008335648411122795,74.44181549706052,0.8803826032175439,0.0014486132316090022,-0.10058329163067045
1047,-0.0008335751472156444,74.44181549706052,0.8689457930630324,0.0014198993816174458,-0.1016102137655978
1048,-0.0008335854851914828,74.44181549706052,0.8593153082385391,0.001385240461778337,-0.10299227655682162
1049,-0.0008335958549907335,74.44181549706052,0.8521612200215709,0.0013472550473798875,-0.1041441127773891
1050,-0.0008336062565643342,74.44181549706052,0.8479169774215222,0.001309049938060682,-0.10474092936026626
1051,-0.0008336166898632219,74.44181549706052,0.8467665876802982,0.0012744231455303207,-0.10470707083294518
1052,-0.000833627154838333,74.44181549706052,0.8486242559625214,0.0012475146181209612,-0.10418805307429457
1053,-0.0008336376514406036,74.44181549706052,0.8531090324115416,0.0012320203058056442,-0.10350763388012808
1054,-0.0008336481796209689,74.44181549706052,0.8595438663193969,0.0012302651346046498,-0.10310491072987331
1055,-0.0008336587393303641,74.44181549706052,0.8670153248816265,0.0012424438775058236,-0.10345313159457299
1056,-0.000833669330519725,74.44181549706052,0.8745034532548264,0.001266312741214524,-0.10497459143635823
1057,-0.0008336799531399878,74.44181549706052,0.8810539326759201,0.0012975152363375192,-0.10797086593181085
1058,-0.0008336906071420893,74.44181549706052,0.8859438471672206,0.001330535803282175,-0.11258224480879606
1059,-0.000833701292476967,74.44181549706052,0.8887909078762438,0.0013600156374068825,-0.11878044741002665
1060,-0.0008337120090955592,74.44181549706052,0.8895697872550474,0.0013820532719897485,-0.12639017553766552
1061,-0.0008337227569488042,74.44181549706052,0.8885331255168811,0.0013950305117635794,-0.13512999985633053
1062,-0.0008337335359876403,74.44181549706052,0.8860802938705362,0.0013994493743103506,-0.1446602104309026
1063,-0.0008337443461630059,74.44181549706052,0.8826365538523445,0.0013968587064700948,-0.15462600640456425
1064,-0.0008337551874258395,74.44181549706052,0.8785786334302674,0.0013888110573705606,-0.16469059003199005
1065,-0.000833766059727079,74.44181549706052,0.8742075731203198,0.001376611130276355,-0.1745572570244134
1066,-0.0008337769630176619,74.44181549706052,0.8697601352889565,0.001361596968658107,-0.1839784916752031
1067,-0.0008337878972485258,74.44181549706052,0.865448410963148,0.0013452738042477787,-0.19275229238212038
1068,-0.0008337988623706078,74.44181549706052,0.8615042374418617,0.0013291465299094128,-0.20071396487669665
1069,-0.0008338098583348444,74.44181549706052,0.8581917734591408,0.0013146174636519555,-0.2077351003482003
1070,-0.0008338208850921714,74.44181549706052,0.8557632949536255,0.0013031020061061004,-0.21373500905775228
1071,-0.0008338319425935244,74.44181549706052,0.8543763247532088,0.0012960175004011571,-0.21869869784763746
1072,-0.0008338430307898389,74.44181549706052,0.854027847580381,0.0012943770992416793,-0.2226883844782961
1073,-0.0008338541496320508,74.44181549706052,0.8545526769984109,0.0012982089254488032,-0.22583778320713166
1074,-0.0008338652990710971,74.44181549706052,0.8556851195295725,0.0013062463367987107,-0.22832747106442755
1075,-0.0008338764790579161,74.44181549706052,0.8571437171758052,0.0013161868642199684,-0.23034948608708633
1076,-0.0008338876895434466,74.44181549706052,0.85870016191502,0.001325433926686551,-0.23207452396520822
1077,-0.0008338989304786292,74.44181549706052,0.8602184632937213,0.0013319217120784505,-0.23363240663726653
1078,-0.0008339102018144038,74.44181549706052,0.8616639177641947,0.0013346804125066974,-0.23510887644821735
1079,-0.0008339215035017097,74.44181549706052,0.8630755901209534,0.0013339772735959303,-0.23655603442161138
1080,-0.0008339328354914845,74.44181549706052,0.8645009414890642,0.0013310181218617648,-0.23801130979711632
1081,-0.000833944197734665,74.44181549706052,0.865922018652096,0.001327386848015226,-0.23951722281127366
1082,-0.0008339555901821864,74.44181549706052,0.8672219874550293,0.0013243868845130412,-0.24113177832829275
1083,-0.0008339670127849833,74.44181549706052,0.8682166040650383,0.0013224376700211604,-0.24292203764621625
1084,-0.0008339784654939904,74.44181549706052,0.8687253766705205,0.0013209285923749196,-0.2449431387760811
1085,-0.0008339899482601438,74.44181549706052,0.8686281723624812,0.0013187371683269571,-0.24721614480305823
1086,-0.0008340014610343803,74.44181549706052,0.8678756922779687,0.0013149227431550673,-0.2497196685563451
1087,-0.0008340130037676381,74.44181549706052,0.8664715539465111,0.0013090244091180138,-0.25239755227913874
1088,-0.0008340245764108569,74.44181549706052,0.8644623830919034,0.0013010623463797354,-0.25517074371894316
1089,-0.0008340361789149773,74.44181549706052,0.8619452665158489,0.00129160229795779,-0.2579414654486553
1090,-0.0008340478112309399,74.44181549706052,0.8590752982595473,0.0012817869824861157,-0.2605878409860458
1091,-0.0008340594733096856,74.44181549706052,0.8560653569087199,0.0012731492105335224,-0.2629546495592827
1092,-0.0008340711651021536,74.44181549706052,0.853192358104277,0.0012674156046994015,-0.26484864286815113
1093,-0.0008340828865592825,74.44181549706052,0.8508208048561466,0.0012664343344636227,-0.26604758306220333
1094,-0.0008340946376320093,74.44181549706052,0.849424343360055,0.0012720662242983551,-0.2663299112634043
1095,-0.0008341064182712701,74.44181549706052,0.8495703979407659,0.0012859391771272133,-0.265524955931469
1096,-0.0008341182284279998,74.44181549706052,0.8518610907955947,0.0013090689864248923,-0.2635742188869384
1097,-0.0008341300680531328,74.44181549706052,0.8568596783225807,0.0013414451375896082,-0.2605892546472154
1098,-0.0008341419370976036,74.44181549706052,0.8650247053893811,0.0013818131217441098,-0.2568950907391395
1099,-0.0008341538355123474,74.44181549706052,0.8766352117793484,0.001427789947314269,-0.25305597938995106
1100,-0.0008341657632483002,74.44181549706052,0.89167647797657,0.0014762663501372813,-0.24988380912749736
1101,-0.0008341777202563988,74.44181549706052,0.9096878477730984,0.001523913724842475,-0.2484243588728787
1102,-0.0008341897064875813,74.44181549706052,0.9296151988960493,0.0015674067018154388,-0.24990881268624168
1103,-0.000834201721892787,74.44181549706052,0.9497251540596374,0.0016031024952243972,-0.25565928149590067
1104,-0.0008342137664229561,74.44181549706052,0.967626447666672,0.0016265170073714059,-0.26694899718802473
1105,-0.0008342258400290299,74.44181549706052,0.9804333910318632,0.0016320890041718638,-0.2848268000570769
1106,-0.0008342379426619498,74.44181549706052,0.9851084366245974,0.0016133852182996257,-0.30991692615252103
1107,-0.0008342500742726573,74.44181549706052,0.9789975808998275,0.0015640507452695115,-0.3422137383532748
1108,-0.0008342622348120921,74.44181549706052,0.9604922773664165,0.0014801045341636889,-0.38091061267493276
1109,-0.0008342744242311926,74.44181549706052,0.9296438863373735,0.0013634917168951592,-0.4243143560129385
1110,-0.0008342866424808962,74.44181549706052,0.8884935773069581,0.0012249923484034854,-0.469889794847837
1111,-0.000834298889512139,74.44181549706052,0.8409326904629344,0.0010834874293260473,-0.5144559492665693
1112,-0.0008343111652758558,74.44181549706052,0.7920790520978233,0.0009608141160012566,-0.5545178815297857
1113,-0.000834323469722981,74.44181549706052,0.7473456960233298,0.0008750972341381977,-0.5866777238344302
1114,-0.0008343358028044486,74.44181549706052,0.7114788223513231,0.0008359476077440374,-0.6080451195303876
1115,-0.0008343481644711932,74.44181549706052,0.6878284552969536,0.0008429409216721675,-0.6165698934462854
1116,-0.0008343605546741501,74.44181549706052,0.6780094498008755,0.0008873111666137157,-0.6112450286899365
1117,-0.0008343729733642553,74.44181549706052,0.6819362351874756,0.0009557652097094342,-0.5921679081876223
1118,-0.0008343854204924468,74.44181549706052,0.6980847832680966,0.0010346320606957607,-0.560478989383119
1119,-0.0008343978960096641,74.44181549706052,0.7238678070491662,0.0011129335242647319,-0.5182017377515252
1120,-0.0008344103998668482,74.44181549706052,0.7560950191528507,0.0011838809146672514,-0.4680043065450919
1121,-0.0008344229320149426,74.44181549706052,0.7914657720433543,0.0012449264343621827,-0.41291505902980524
1122,-0.000834435492404891,74.44181549706052,0.8269799859558294,0.0012968094414602498,-0.35603790680895153
1123,-0.0008344480809876366,74.44181549706052,0.8601712325877001,0.001342071399290834,-0.3003080166940913
1124,-0.0008344606977141207,74.44181549706052,0.8891488840503602,0.0013833522811087897,-0.24830501801447075
1125,-0.0008344733425352827,74.44181549706052,0.912537918192519,0.0014219283112925328,-0.20211695321947085
1126,-0.0008344860154020596,74.44181549706052,0.929438902044076,0.0014571819969334842,-0.16324329412740796
1127,-0.0008344987162653872,74.44181549706052,0.9394484461461718,0.0014871605108389995,-0.1325396743336468
1128,-0.0008345114450761995,74.44181549706052,0.942687688187434,0.0015094902250835708,-0.11021654763766565
1129,-0.0008345242017854305,74.44181549706052,0.9397800667794912,0.0015219050687844404,-0.09589446847074615
