,time,sample_rate,Red,Green,Blue
0,-1.7873032261412004e-15,75.24452921705617,0.2770482687228469,-0.023386866851536483,0.14009005229987492
1,-1.7882928375329464e-15,75.24452921705617,0.27905122160928486,-0.023633882507716853,0.13494032306869339
2,-1.789175401271841e-15,75.24452921705617,0.28094513476275623,-0.023866858351309233,0.1298222441401486
3,-1.7898443465644077e-15,75.24452921705617,0.2826417902764159,-0.024080054483628786,0.12475710847191855
4,-1.790244451626913e-15,75.24452921705617,0.28411040682025834,-0.024269118403901672,0.11979085795812411
5,-1.790370618114315e-15,75.24452921705617,0.285371582829516,-0.02443040724859256,0.11500170902832448
6,-1.790254110827829e-15,75.24452921705617,0.2864747384106132,-0.024560535509883144,0.11049476915853802
7,-1.789946252948624e-15,75.24452921705617,0.2874715971478759,-0.02465689996217429,0.10638065986633553
8,-1.7895033028324845e-15,75.24452921705617,0.28840003040287365,-0.024718435973446074,0.10274510826906529
9,-1.7889761807106765e-15,75.24452921705617,0.2892817471146817,-0.024745816188303942,0.09962331928383526
10,-1.7884112467097976e-15,75.24452921705617,0.29012588688193136,-0.024741462673655353,0.09699000651780919
11,-1.7878569431838623e-15,75.24452921705617,0.29093188918994384,-0.024709885173718457,0.09476542539948016
12,-1.787363224985013e-15,75.24452921705617,0.2916919013147263,-0.024657738407644028,0.09282985087620985
13,-1.7869728166891853e-15,75.24452921705617,0.29239569691128175,-0.024592664217495456,0.09103895729892615
14,-1.7867129510274007e-15,75.24452921705617,0.293038217542043,-0.024521112084252884,0.08923641241612343
15,-1.7865895603272315e-15,75.24452921705617,0.2936245804568397,-0.024446543127138825,0.08726291307507907
16,-1.7865835796290824e-15,75.24452921705617,0.29416719955627874,-0.02436926302632135,0.084962299990249
17,-1.7866554209896356e-15,75.24452921705617,0.294677411407659,-0.024287642512740272,0.08218730217439578
18,-1.786759057784522e-15,75.24452921705617,0.2951589854311863,-0.024199531779305106,0.07880888951723586
19,-1.786857629407702e-15,75.24452921705617,0.2956061208909443,-0.02410325366127619,0.07473070676351853
20,-1.7869338018714188e-15,75.24452921705617,0.2960027132454761,-0.02399847101307786,0.06990596824531843
21,-1.7869894877822706e-15,75.24452921705617,0.29632024207586266,-0.02388735072114699,0.06435343190610375
22,-1.787031156215119e-15,75.24452921705617,0.29651597721000295,-0.023775762323381584,0.0581703548324541
23,-1.7870520012537186e-15,75.24452921705617,0.29653593670607437,-0.023673571403088088,0.05154061191768624
24,-1.787029848267438e-15,75.24452921705617,0.29632474517347535,-0.023593427504149837,0.04473667371923966
25,-1.786941198718708e-15,75.24452921705617,0.295839670920618,-0.0235483836239838,0.03811618333990246
26,-1.78677419673093e-15,75.24452921705617,0.2950641985355789,-0.023549108008036793,0.03211412460625721
27,-1.786530421809979e-15,75.24452921705617,0.29401788302172566,-0.023601508124736936,0.02722741856372974
28,-1.7862204194389412e-15,75.24452921705617,0.29276074934367874,-0.023705476128400144,0.02398607240274281
29,-1.7858596282033644e-15,75.24452921705617,0.29139160480269705,-0.023854815641090356,0.022909734259269062
30,-1.7854675715599814e-15,75.24452921705617,0.2900406968176013,-0.02403799163463715,0.024455534409767936
31,-1.7850726115365866e-15,75.24452921705617,0.28885699190207687,-0.024239735233908623,0.028966112567109004
32,-1.7847190047410723e-15,75.24452921705617,0.287989532880975,-0.0244436286155755,0.036626935855325574
33,-1.7844661991664835e-15,75.24452921705617,0.2875628879461703,-0.024635074366944842,0.04744046624633221
34,-1.7843745416824607e-15,75.24452921705617,0.2876487038083897,-0.024803588957421935,0.06122057756004198
35,-1.784482428450235e-15,75.24452921705617,0.2882383271755301,-0.024943794439496247,0.0776048172925756
36,-1.7847852601239064e-15,75.24452921705617,0.28922748694172146,-0.025055011354349236,0.09607799278449977
37,-1.7852262867212238e-15,75.24452921705617,0.2904316113866924,-0.025139485482135702,0.11600214421589523
38,-1.785708297232828e-15,75.24452921705617,0.29164011921733707,-0.02519982284445048,0.1366528439726285
39,-1.7861253302639274e-15,75.24452921705617,0.29268296949552625,-0.025237052818450945,0.15726233667312722
40,-1.7863960795890373e-15,75.24452921705617,0.29346797112008766,-0.025250411405481073,0.1770662750505353
41,-1.7864774377630534e-15,75.24452921705617,0.2939784033068877,-0.025238594478587024,0.19534967422257557
42,-1.7863570613984148e-15,75.24452921705617,0.2942498769590439,-0.025201516368148453,0.21149065566991695
43,-1.786045802020017e-15,75.24452921705617,0.29434326577606573,-0.025141690236392407,0.22500173234791482
44,-1.785583158470165e-15,75.24452921705617,0.2943209703082278,-0.02506458615137167,0.23556455518688152
45,-1.7850402794067126e-15,75.24452921705617,0.2942308470873806,-0.02497787027986731,0.24304962180402492
46,-1.7845024418094817e-15,75.24452921705617,0.29410023882398123,-0.024890042511290348,0.24751356838323335
47,-1.7840428428278656e-15,75.24452921705617,0.29393921099275266,-0.024809060600215937,0.24917499406365634
48,-1.783710311392191e-15,75.24452921705617,0.29374856280286765,-0.02474127169170782,0.2483785452914569
49,-1.7835292337568453e-15,75.24452921705617,0.29352743128666575,-0.024690672957988054,0.24555614509038376
50,-1.783500183803589e-15,75.24452921705617,0.2932781114358946,-0.02465838115667439,0.24118670887772395
51,-1.7836031628651198e-15,75.24452921705617,0.29300849118614647,-0.024642489715204354,0.23575339473690057
52,-1.783802968915814e-15,75.24452921705617,0.29273301007395364,-0.024638602547186066,0.22970186977459817
53,-1.78405362291824e-15,75.24452921705617,0.29247221237636534,-0.024640849102183268,0.2234068566414412
54,-1.7843106372019485e-15,75.24452921705617,0.2922505346656951,-0.024643014644586264,0.2171528341354639
55,-1.7845478671686648e-15,75.24452921705617,0.29209255511844096,-0.024639729358369535,0.2111289311532277
56,-1.7847572083907904e-15,75.24452921705617,0.2920187472967184,-0.0246276864045883,0.20543306508645642
57,-1.7849316866718776e-15,75.24452921705617,0.29204263585561885,-0.024606492520848657,0.20008175004639953
58,-1.7850548365685943e-15,75.24452921705617,0.29217122672870727,-0.02457853699474186,0.1950276976738436
59,-1.785100901781159e-15,75.24452921705617,0.29240853276875206,-0.024547760189857253,0.19018886544221714
60,-1.785039256441497e-15,75.24452921705617,0.2927595822744296,-0.02451799860458267,0.18548524996946208
61,-1.784849225954288e-15,75.24452921705617,0.2932314399067238,-0.024491690275451575,0.18086950200083804
62,-1.784538912452034e-15,75.24452921705617,0.2938291717025826,-0.024469291447908232,0.17633647934962898
63,-1.7841410808097563e-15,75.24452921705617,0.2945481108889292,-0.024449436682659358,0.17190929869376403
64,-1.7836874215112525e-15,75.24452921705617,0.2953668506504702,-0.024429589897386892,0.16761542775441005
65,-1.783197285378346e-15,75.24452921705617,0.2962448277108723,-0.024406706071462465,0.16347095080363955
66,-1.782691909163255e-15,75.24452921705617,0.29712369481072726,-0.02437780735697388,0.15947876599180447
67,-1.7822087502882325e-15,75.24452921705617,0.29792844906739385,-0.024341016007866423,0.15563156561562247
68,-1.781801487572902e-15,75.24452921705617,0.29856788725694616,-0.024297128088111047,0.15191183475055786
69,-1.781530045383301e-15,75.24452921705617,0.29893914869126553,-0.02425062832577069,0.1482918965532414
70,-1.7814445966808906e-15,75.24452921705617,0.2989400199537874,-0.024209058021678158,0.14473816509550066
71,-1.781570386969681e-15,75.24452921705617,0.29848847736233236,-0.024180860336643826,0.1412182299138171
72,-1.781901017479485e-15,75.24452921705617,0.2975474435872534,-0.024172743670951017,0.13770847163639754
73,-1.7823975469608597e-15,75.24452921705617,0.29615133813234584,-0.024187592743035932,0.1342000862224613
74,-1.7829864012504834e-15,75.24452921705617,0.294424935941362,-0.024223339975767463,0.13070000991339464
75,-1.7835604723494617e-15,75.24452921705617,0.2925767878476071,-0.024273022255971874,0.12722566238395233
76,-1.783997776099023e-15,75.24452921705617,0.2908542550332506,-0.024326584729658603,0.1237966507432658
77,-1.7841945787085462e-15,75.24452921705617,0.28947539898062075,-0.024374156011527686,0.12042678838940114
78,-1.784084864149633e-15,75.24452921705617,0.2885767233535697,-0.024408903601068243,0.11711797324392073
79,-1.7836383535545444e-15,75.24452921705617,0.2882009335829373,-0.02442789388138483,0.11385730072857278
80,-1.782872676069506e-15,75.24452921705617,0.28831519447220266,-0.02443122229637352,0.1106183970111692
81,-1.7818885531962176e-15,75.24452921705617,0.28883795404582324,-0.024420529219366795,0.10736478074401963
82,-1.780867953406006e-15,75.24452921705617,0.28966223845671557,-0.024397744774697614,0.10405083074562553
83,-1.780003840168406e-15,75.24452921705617,0.2906742761615798,-0.024364342967926444,0.10061932981959033
84,-1.7794226611569674e-15,75.24452921705617,0.29176874978813233,-0.02432090864172888,0.09700008881174785
85,-1.7791649245619832e-15,75.24452921705617,0.29285905174996474,-0.024266979543089054,0.09311584341009552
86,-1.7792163652761826e-15,75.24452921705617,0.29387997973344243,-0.02420150291589718,0.08889837103977931
87,-1.7795373387074765e-15,75.24452921705617,0.2947838590288255,-0.024123939266274496,0.0843120009265542
88,-1.7800626197530454e-15,75.24452921705617,0.29553419495031524,-0.02403543132115607,0.07937647696954965
89,-1.780698267009061e-15,75.24452921705617,0.29610012805050845,-0.023939523388045437,0.07417857816714778
90,-1.7813413263514213e-15,75.24452921705617,0.2964526640356382,-0.023842602253653138,0.06886573115214048
91,-1.7818975130368897e-15,75.24452921705617,0.2965627213512974,-0.023754246093837517,0.06362740349826235
92,-1.78227045963563e-15,75.24452921705617,0.2964014425916686,-0.02368670324566771,0.05868040891360867
93,-1.7823491538060847e-15,75.24452921705617,0.2959436959847129,-0.023652645225585044,0.05426698361274028
94,-1.7820403258834177e-15,75.24452921705617,0.2951757087287776,-0.023661966883652585,0.050656629317500486
95,-1.781341149282057e-15,75.24452921705617,0.2941065956990154,-0.02371950881147918,0.04813807979078324
96,-1.780381541217579e-15,75.24452921705617,0.2927799771059833,-0.023824550909128897,0.04699993497499769
97,-1.779383974381249e-15,75.24452921705617,0.29127930514370254,-0.02397143283617969,0.047507132279091785
98,-1.778572476842157e-15,75.24452921705617,0.28972361259558554,-0.024150568531800243,0.04987761148140374
99,-1.778093556445528e-15,75.24452921705617,0.2882560787642292,-0.024349721986267434,0.05426168315796615
100,-1.7779857994200688e-15,75.24452921705617,0.28702991254498644,-0.024555380435101453,0.06072841646168954
101,-1.7782010967940797e-15,75.24452921705617,0.286193425032002,-0.024753846037432387,0.06925987038025277
102,-1.7786465823746504e-15,75.24452921705617,0.28587201356036185,-0.02493210102928637,0.07974823219179224
103,-1.7792141532361993e-15,75.24452921705617,0.2861435426753903,-0.025078938267721018,0.09199187009503068
104,-1.7797929482239325e-15,75.24452921705617,0.28700828993289673,-0.02518649410920852,0.1056913413452908
105,-1.780274296071935e-15,75.24452921705617,0.2883651621139236,-0.02525171106184353,0.12044939930815683
106,-1.7805557286022358e-15,75.24452921705617,0.2900163960254148,-0.025276938222522975,0.13578018048797313
107,-1.780550731791125e-15,75.24452921705617,0.2917156662290385,-0.025268884428541086,0.1511319685622296
108,-1.7802140154648223e-15,75.24452921705617,0.29324043500338637,-0.025236074768094325,0.165923134434197
109,-1.7795784177711886e-15,75.24452921705617,0.2944448735681469,-0.02518633584427883,0.17958546495354016
110,-1.778771909666065e-15,75.24452921705617,0.2952713773215223,-0.025125558905722326,0.1916087717204416
111,-1.777988565401508e-15,75.24452921705617,0.29573431840928854,-0.02505751715353526,0.20158286489254346
112,-1.7774254569353754e-15,75.24452921705617,0.29589557825129925,-0.02498418005845737,0.2092320464926534
113,-1.777218795790701e-15,75.24452921705617,0.29584114097247427,-0.02490632215049277,0.214435062253454
114,-1.777412684277658e-15,75.24452921705617,0.29566401462578384,-0.024824168844893753,0.21722499411549667
115,-1.777972553858704e-15,75.24452921705617,0.29545482625570013,-0.02473793927757469,0.2177696892890466
116,-1.7788173728261408e-15,75.24452921705617,0.29529516178135884,-0.02464828788880794,0.21634025222424275
117,-1.7798394258951653e-15,75.24452921705617,0.29524969979495874,-0.024556531994135787,0.21327701890149298
118,-1.7809082897226407e-15,75.24452921705617,0.2953592824607843,-0.024464675985222676,0.20895739684143297
119,-1.781869540688833e-15,75.24452921705617,0.29563738120641614,-0.024375362080444392,0.20376412397307336
120,-1.7825461463814142e-15,75.24452921705617,0.2960683131063003,-0.024291674909604502,0.1980528955611858
121,-1.782751298533982e-15,75.24452921705617,0.29660582092215726,-0.02421668642918217,0.19212317887184702
122,-1.782327525447256e-15,75.24452921705617,0.2971739910600184,-0.024152950714426615,0.18619881107068514
123,-1.781217033488171e-15,75.24452921705617,0.2976732682476713,-0.024102371062719626,0.18042342067930248
124,-1.7795271650965913e-15,75.24452921705617,0.2979923786332411,-0.024066707554444202,0.1748704890082906
125,-1.777532272958709e-15,75.24452921705617,0.2980242312285781,-0.024048511303551113,0.16956129397962533
126,-1.7755959526429154e-15,75.24452921705617,0.29768342047535906,-0.024051552789975564,0.16448182366677686
127,-1.774053717833544e-15,75.24452921705617,0.2969254919800104,-0.024079736478627507,0.1595943684986731
128,-1.7731131348744569e-15,75.24452921705617,0.29576819346954175,-0.024134728718588173,0.15484569289649056
129,-1.772819077343252e-15,75.24452921705617,0.29430800188721773,-0.02421377019257235,0.15017597517524495
130,-1.7730977127129747e-15,75.24452921705617,0.2927156610722215,-0.024309080411075525,0.14553087367109024
131,-1.7738370142109744e-15,75.24452921705617,0.2911988785158831,-0.024409332953134365,0.1408758042498772
132,-1.7749365975039798e-15,75.24452921705617,0.28994577514884995,-0.024502424679345103,0.13620882363418854
133,-1.7763034481383185e-15,75.24452921705617,0.2890808119283672,-0.024577895123299696,0.13156752950496184
134,-1.7778294425210244e-15,75.24452921705617,0.28865078389335735,-0.024628136092973266,0.12702665599589674
135,-1.779379638933362e-15,75.24452921705617,0.28863402152243556,-0.024648995284735794,0.1226859422386377
136,-1.7807831219131995e-15,75.24452921705617,0.2889595273491816,-0.02464030410117861,0.11865149916276381
137,-1.7818321871464385e-15,75.24452921705617,0.2895286306392379,-0.024605919651579194,0.11501716432658979
138,-1.782314631738216e-15,75.24452921705617,0.29023541929833857,-0.024552954618709356,0.11185253135384718
139,-1.7820766318497875e-15,75.24452921705617,0.2909828263519985,-0.024490506027011347,0.10919951433344881
140,-1.7810860407643867e-15,75.24452921705617,0.2916924778424312,-0.02442822163875142,0.10707218591322377
141,-1.7794579701581346e-15,75.24452921705617,0.29230879039242197,-0.0243748852103371,0.10545247665589466
142,-1.777416859332356e-15,75.24452921705617,0.29279908947889033,-0.024337393265499274,0.10428155886567449
143,-1.7752141367674633e-15,75.24452921705617,0.2931512605457626,-0.02432035998629557,0.10345614682686172
144,-1.7730630219004427e-15,75.24452921705617,0.29337060136847404,-0.024325846863294854,0.1028381429777436
145,-1.7711371508219327e-15,75.24452921705617,0.29347716284435515,-0.024352579473281514,0.10227516424956526
146,-1.7696064068579041e-15,75.24452921705617,0.2935031057478132,-0.024395017940678738,0.10162167134819775
147,-1.7686403142535934e-15,75.24452921705617,0.2934889719929505,-0.024443323968921595,0.10075334704941163
148,-1.768361709677103e-15,75.24452921705617,0.29347880757718753,-0.024484668299138423,0.09957436227071077
149,-1.7687993014441694e-15,75.24452921705617,0.2935148131768688,-0.02450542698742442,0.09801928942028097
150,-1.7698840294074565e-15,75.24452921705617,0.29363186038888456,-0.024493654404505783,0.09604950840635809
151,-1.7714924323775775e-15,75.24452921705617,0.2938519277479184,-0.024441587343865392,0.09364381081843387
152,-1.7734977360096764e-15,75.24452921705617,0.2941792746274878,-0.02434784691916261,0.09078567548046212
153,-1.7757697410898331e-15,75.24452921705617,0.29459774566349345,-0.02421826311726781,0.08745254737491084
154,-1.778121947579471e-15,75.24452921705617,0.29507128597882837,-0.024064332558335573,0.08361317942537143
155,-1.780296985091732e-15,75.24452921705617,0.29554782554768005,-0.02390010064849751,0.07923659217629397
156,-1.7820427162008214e-15,75.24452921705617,0.2959646206226533,-0.02373959363390244,0.07431225374400345
157,-1.78318147739515e-15,75.24452921705617,0.29625296141845964,-0.023595774596358494,0.06887890343780119
158,-1.7835704795843108e-15,75.24452921705617,0.29634377173140886,-0.023480254611520784,0.06305678174165932
159,-1.7830282581675053e-15,75.24452921705617,0.2961766028286726,-0.023402970157086374,0.057073611160759964
160,-1.7813848903776053e-15,75.24452921705617,0.29571068594402333,-0.02337176491631711,0.05127474240607251
161,-1.7786621630272687e-15,75.24452921705617,0.2949347587460391,-0.0233919584361124,0.04611240702265912
162,-1.7752056004916878e-15,75.24452921705617,0.2938735209251793,-0.0234658971459363,0.042112170691612105
163,-1.7716193133456334e-15,75.24452921705617,0.2925892262607886,-0.02359252832837075,0.03981931001759649
164,-1.7685566761681984e-15,75.24452921705617,0.2911780737679515,-0.02376704988216066,0.03973569556778525
165,-1.7665463717396035e-15,75.24452921705617,0.28976295570880195,-0.023980795865370497,0.04226131321082084
166,-1.7659403908154262e-15,75.24452921705617,0.28848368356225657,-0.024221708922322227,0.047650467151066196
167,-1.7668971538500334e-15,75.24452921705617,0.28748390991553846,-0.0244755044095421,0.055985306764132256
168,-1.7693037488167641e-15,75.24452921705617,0.2868932258493543,-0.02472720548576577,0.0671638276598261
169,-1.7726976469802413e-15,75.24452921705617,0.2868035849851819,-0.024962750727665534,0.08090029167703439
170,-1.7763346646192882e-15,75.24452921705617,0.2872422925266137,-0.02517044381180851,0.09674093148061375
171,-1.7794322777294155e-15,75.24452921705617,0.2881505923524386,-0.02534174290168244,0.1140978795873282
172,-1.78144087486085e-15,75.24452921705617,0.28938489883564306,-0.02547089426202993,0.13229719026224368
173,-1.782169769027422e-15,75.24452921705617,0.29075260431192534,-0.02555384126064735,0.1506305788196172
174,-1.7817226485195144e-15,75.24452921705617,0.29206800214973533,-0.025587709843760614,0.16840200836187963
175,-1.780335227363695e-15,75.24452921705617,0.29319637616422906,-0.025571480981147813,0.18496675858176187
176,-1.778248215076197e-15,75.24452921705617,0.2940694839435069,-0.025507155364446723,0.19976379533800637
177,-1.7756873653032436e-15,75.24452921705617,0.29467738870234955,-0.025400480737982456,0.21234168704663245
178,-1.7729229607071101e-15,75.24452921705617,0.29504796824008545,-0.025260754173440033,0.22237919504340742
179,-1.770313976729804e-15,75.24452921705617,0.29522484888303546,-0.02509959865085062,0.22970097402953163
180,-1.7682689031994215e-15,75.24452921705617,0.29525234519499793,-0.02492911246707853,0.23428380396426557
181,-1.76714030650119e-15,75.24452921705617,0.2951696601060864,-0.024760312559088376,0.23624735351075385
182,-1.767116050978821e-15,75.24452921705617,0.29500947922204823,-0.024602637070193313,0.23582964359953593
183,-1.768171485656772e-15,75.24452921705617,0.2947966081088419,-0.024464302340137644,0.233353809413818
184,-1.7701044115525352e-15,75.24452921705617,0.29454828230276886,-0.02435265271054935,0.2291938675079891
185,-1.7725949569552606e-15,75.24452921705617,0.2942777427733262,-0.024273937942369518,0.2237441393682446
186,-1.7752178535515465e-15,75.24452921705617,0.29399771091863275,-0.024232388544141347,0.21739315724734187
187,-1.777429033580229e-15,75.24452921705617,0.2937206332635946,-0.02422880767107426,0.21050214667004466
188,-1.7786497814380554e-15,75.24452921705617,0.293457121402301,-0.02425963255985585,0.20338906096242063
189,-1.778502142695489e-15,75.24452921705617,0.2932151726462982,-0.024317489089023234,0.19631739819610236
190,-1.777020512441728e-15,75.24452921705617,0.29300048713319976,-0.024392891251184205,0.1894886357373094
191,-1.7746183727191932e-15,75.24452921705617,0.292817003536983,-0.024475892280731427,0.183039905820046
192,-1.771852514006377e-15,75.24452921705617,0.2926670941168069,-0.024557295576061434,0.17704771589569443
193,-1.7692231169520221e-15,75.24452921705617,0.2925515144223543,-0.024629585309057136,0.1715357947841865
194,-1.7671307003512479e-15,75.24452921705617,0.2924697868461081,-0.024687354195649946,0.1664861486029493
195,-1.7659082051787516e-15,75.24452921705617,0.2924214654147716,-0.02472718383637775,0.16185232267476185
196,-1.765804154369719e-15,75.24452921705617,0.29240831378306115,-0.024747496530419813,0.15757124044691181
197,-1.7668838799391285e-15,75.24452921705617,0.2924372918220794,-0.024748584783306632,0.1535719078140121
198,-1.7689307523715914e-15,75.24452921705617,0.29252303839502064,-0.02473249773150532,0.14978451518072236
199,-1.771466698475911e-15,75.24452921705617,0.29268726584696125,-0.024702565026176754,0.1461530417020707
200,-1.7739130545607267e-15,75.24452921705617,0.29295378813192646,-0.02466238698289792,0.1426475716575837
201,-1.7757847963355062e-15,75.24452921705617,0.29334080995708134,-0.02461422507363085,0.13926791100527638
202,-1.7767939019800932e-15,75.24452921705617,0.2938538125279205,-0.024557701560605293,0.13603376899171926
203,-1.7768344875828206e-15,75.24452921705617,0.2944815925350962,-0.024490243834412218,0.13296570272897834
204,-1.7759289662974465e-15,75.24452921705617,0.2951947887782846,-0.024409342432477235,0.13006665876533408
205,-1.7742232499579173e-15,75.24452921705617,0.29594429783904075,-0.024315171052943917,0.12731199329151538
206,-1.7720249492828955e-15,75.24452921705617,0.29666028392312926,-0.02421221317833665,0.12465104955607408
207,-1.7697871120372428e-15,75.24452921705617,0.29725611103668625,-0.024109362063085865,0.12201977535881582
208,-1.7679829572610758e-15,75.24452921705617,0.2976393041819243,-0.02401848052724808,0.11935980315640936
209,-1.766951720603784e-15,75.24452921705617,0.29772756581206855,-0.02395166853116955,0.11663458448963428
210,-1.7668214767644005e-15,75.24452921705617,0.2974666425314582,-0.023918014959649736,0.11383234576619808
211,-1.7675294495289822e-15,75.24452921705617,0.29684610406844664,-0.023921409704516984,0.11095353163557445
212,-1.768894418979018e-15,75.24452921705617,0.29590788501075505,-0.023960590904978547,0.10799168730404184
213,-1.7706654198579958e-15,75.24452921705617,0.29474462362295345,-0.02403055986637414,0.10491989730663207
214,-1.7725121163678025e-15,75.24452921705617,0.2934892062048824,-0.02412332396055467,0.10168852687103432
215,-1.7740278799021258e-15,75.24452921705617,0.2922965373531582,-0.02422751212268576,0.09823265278182491
216,-1.7748263200075679e-15,75.24452921705617,0.29131611230844984,-0.024328527296904524,0.09448456079686954
217,-1.7746905679844795e-15,75.24452921705617,0.29065899800224726,-0.024410365192644588,0.09038623647436367
218,-1.7736502348598513e-15,75.24452921705617,0.29037221608188385,-0.024458263381806754,0.08589707838656523
219,-1.7719205355364265e-15,75.24452921705617,0.2904332438302781,-0.02446118694689439,0.0809948430372799
220,-1.7697710681794117e-15,75.24452921705617,0.2907641200626937,-0.024414018879756416,0.07567286675080828
221,-1.7674515265787557e-15,75.24452921705617,0.2912538449821662,-0.024318937222018076,0.06993957627372344
222,-1.765220962198785e-15,75.24452921705617,0.29178045788058404,-0.024185075426041154,0.0638243447832852
223,-1.7634060012314497e-15,75.24452921705617,0.29223113807971685,-0.02402656812674262,0.05738964171821652
224,-1.7623865660128754e-15,75.24452921705617,0.2925197377045752,-0.023859975865561416,0.05074709648729027
225,-1.7624772079999458e-15,75.24452921705617,0.29259953770385894,-0.023701940948483973,0.044073960929310436
226,-1.763769075233374e-15,75.24452921705617,0.29246925596398476,-0.02356742638426963,0.037624937165875005
227,-1.7660511238103812e-15,75.24452921705617,0.29217129488387816,-0.023468411088840922,0.03173359211765354
228,-1.768874307639984e-15,75.24452921705617,0.2917830466005196,-0.023412892403078398,0.026798870725730384
229,-1.7717016317333446e-15,75.24452921705617,0.291404171981623,-0.02340460069542091,0.02325560766323218
230,-1.7740377511084235e-15,75.24452921705617,0.29114157614800423,-0.023443774864281737,0.021533335596856665
231,-1.775493595109101e-15,75.24452921705617,0.29109149974838633,-0.02352824507640799,0.022012865491177057
232,-1.7758169085859821e-15,75.24452921705617,0.29131843564305465,-0.02365385063982548,0.024988855588511757
233,-1.7749367755419417e-15,75.24452921705617,0.29183198429719376,-0.02381461771505222,0.030638574799734725
234,-1.773025373188819e-15,75.24452921705617,0.29256772936357983,-0.024003585260376253,0.03899428645208441
235,-1.7705094933211452e-15,75.24452921705617,0.29338846448740824,-0.024213773998329847,0.049924687306447224
236,-1.7679635018055967e-15,75.24452921705617,0.29412070114691247,-0.02443807287026014,0.063136551962107
237,-1.7659146447214273e-15,75.24452921705617,0.2946144473079115,-0.024667984194734382,0.0781996335044332
238,-1.7646852326915563e-15,75.24452921705617,0.29478984589345986,-0.02489250693394587,0.09458436041525514
239,-1.7643757112007436e-15,75.24452921705617,0.2946469915780329,-0.0250983758325599,0.11169901918442157
240,-1.7649572466732374e-15,75.24452921705617,0.2942469795262502,-0.025271872290313052,0.12892199642492705
241,-1.7663348529051047e-15,75.24452921705617,0.29368453026191,-0.02540147523741727,0.14563271862925384
242,-1.768302649300745e-15,75.24452921705617,0.29306362259148216,-0.02547998787599715,0.16124520848833301
243,-1.7704773665509816e-15,75.24452921705617,0.2924782765531655,-0.025505142987757624,0.17524307950748752
244,-1.7723571697486263e-15,75.24452921705617,0.2919992005164243,-0.02547914397060304,0.18720935015946755
245,-1.7735094580663209e-15,75.24452921705617,0.2916679080539349,-0.025408178988210586,0.19684548885692216
246,-1.7737216578016094e-15,75.24452921705617,0.29149825804933516,-0.025301978069300162,0.20398131171378464
247,-1.7729905790309407e-15,75.24452921705617,0.2914824902278578,-0.025172881437839887,0.20857955914609386
248,-1.7714117309509955e-15,75.24452921705617,0.2915980386926493,-0.025034294052300576,0.21073454716601697
249,-1.7691147799771057e-15,75.24452921705617,0.291813428353758,-0.024898742454689145,0.21066358077848993
250,-1.7663019341115771e-15,75.24452921705617,0.29209363280544565,-0.024775897381962262,0.20869156745863318
251,-1.7633176933136963e-15,75.24452921705617,0.29240478138487624,-0.02467116839725181,0.20522642162470886
252,-1.7606482398426757e-15,75.24452921705617,0.29271749086808857,-0.024585447722228943,0.20072183842781546
253,-1.7588147013184392e-15,75.24452921705617,0.2930093231641326,-0.024516191617482,0.19563048767879257
254,-1.7582130826333227e-15,75.24452921705617,0.29326612282533404,-0.02445948880125084,0.19035655642458613
255,-1.758995868958377e-15,75.24452921705617,0.29347989495709725,-0.024412179524488407,0.18521625679332407
256,-1.7610524201905555e-15,75.24452921705617,0.29364336448083644,-0.024373031959359363,0.1804130364056446
257,-1.7640627443611765e-15,75.24452921705617,0.2937463354947311,-0.024342697740446076,0.1760325629834285
258,-1.767549509941388e-15,75.24452921705617,0.2937783361279703,-0.024322832460852623,0.17205783403983177
259,-1.7709085788007006e-15,75.24452921705617,0.2937354457794282,-0.024314914128654014,0.16839930416266877
260,-1.7734916283193518e-15,75.24452921705617,0.293625440046674,-0.024319134379045194,0.1649328954418967
261,-1.7747821311687618e-15,75.24452921705617,0.29346815341516264,-0.024333651945743114,0.1615370844308273
262,-1.7745832726052496e-15,75.24452921705617,0.29329146831073616,-0.024354641086722306,0.15811830864647758
263,-1.7730910619766052e-15,75.24452921705617,0.2931248194012202,-0.02437730510042295,0.15461866493561235
264,-1.7707903517571923e-15,75.24452921705617,0.29299250434417373,-0.024397372008538597,0.15100941354554115
265,-1.768217180029159e-15,75.24452921705617,0.29290818785203926,-0.024412316431869717,0.147277671990545
266,-1.7657332526088113e-15,75.24452921705617,0.2928717283527769,-0.024421760341910542,0.14341195746352486
267,-1.7634809601612036e-15,75.24452921705617,0.29286991264569584,-0.02442723167840751,0.13939097239425854
268,-1.7615290010058066e-15,75.24452921705617,0.29288141939799295,-0.024431941294961398,0.13517863029244268
269,-1.7600204432045795e-15,75.24452921705617,0.2928841584669691,-0.024440421796107087,0.13072665665658517
270,-1.7591668023258094e-15,75.24452921705617,0.29286172996536924,-0.024457293223720016,0.125985450312346
271,-1.7591270705500615e-15,75.24452921705617,0.29280653287518277,-0.024485501307440274,0.12092071769648169
272,-1.759904098917741e-15,75.24452921705617,0.2927198144866751,-0.02452515272675601,0.11552809644119616
273,-1.7613405752189342e-15,75.24452921705617,0.2926106055246863,-0.02457326403951821,0.10983743503834249
274,-1.7632025030907307e-15,75.24452921705617,0.29249497398861335,-0.024624028110160026,0.10390344103128157
275,-1.765249426985372e-15,75.24452921705617,0.29239497515810303,-0.024669399476110427,0.09778506467912167
276,-1.767209745824026e-15,75.24452921705617,0.2923351735787122,-0.024700101326309235,0.09152010870992486
277,-1.7687335677001547e-15,75.24452921705617,0.29233724161422525,-0.02470726112938872,0.08510308216179488
278,-1.7694545308330856e-15,75.24452921705617,0.2924166330001445,-0.024684404204862127,0.07847155875987467
279,-1.769150917593218e-15,75.24452921705617,0.2925834045616669,-0.024628544383682727,0.07150209058996826
280,-1.767862162742381e-15,75.24452921705617,0.29284500294559096,-0.024539390113260822,0.06401626571353024
281,-1.7658635221929562e-15,75.24452921705617,0.29320847908404774,-0.024417584524489038,0.055798767959131225
282,-1.7635581104489918e-15,75.24452921705617,0.2936812961021995,-0.02426379180419208,0.04662667692182047
283,-1.7614008343830796e-15,75.24452921705617,0.2942697117467778,-0.024079245009330605,0.03630491861879247
284,-1.759884493588683e-15,75.24452921705617,0.29497390276361674,-0.023867136912914488,0.024701505732288798
285,-1.759522241766269e-15,75.24452921705617,0.29578133922389105,-0.023634019678745476,0.011777526628827318
286,-1.7607297952405284e-15,75.24452921705617,0.2966611648766796,-0.023390479183317894,-0.0023902316371557917
287,-1.7636123526639587e-15,75.24452921705617,0.29756161397900877,-0.023150769328308052,-0.0175930732745268
288,-1.7678135823176412e-15,75.24452921705617,0.29841178037367444,-0.0229317433480722,-0.033479515771715776
289,-1.7725681364618236e-15,75.24452921705617,0.299128364197646,-0.02275155275295292,-0.049551666876444744
290,-1.776945163177471e-15,75.24452921705617,0.2996265248398347,-0.02262830610080577,-0.06517478575285153
291,-1.7801513684873976e-15,75.24452921705617,0.29983216417627795,-0.022578581205017295,-0.07960638022319316
292,-1.7817283380652963e-15,75.24452921705617,0.2996929526180163,-0.022615507411491806,-0.09204434773189554
293,-1.7815615500880454e-15,75.24452921705617,0.29918733154038424,-0.022746558286551827,-0.10168634232818954
294,-1.7797735541354683e-15,75.24452921705617,0.2983313221414989,-0.022971849029116764,-0.10779347788694349
295,-1.776631331929749e-15,75.24452921705617,0.297181614105548,-0.023283515635219135,-0.10975579457789866
296,-1.772513668575309e-15,75.24452921705617,0.29583281798804406,-0.023665967150551595,-0.10715393139438804
297,-1.767881115816556e-15,75.24452921705617,0.2944075064950784,-0.02409661461271733,-0.09980305645935425
298,-1.7631764036479899e-15,75.24452921705617,0.2930386170344511,-0.0245470909143043,-0.08776537740723452
299,-1.7586824531829214e-15,75.24452921705617,0.2918460578793854,-0.024985254996790985,-0.07133108630551928
300,-1.7544713473409696e-15,75.24452921705617,0.2909138690037411,-0.02537843030697992,-0.050980989837719634
301,-1.7505149981030984e-15,75.24452921705617,0.2902768169403115,-0.025698162607777818,-0.027346060831395184
302,-1.7468453228982e-15,75.24452921705617,0.28992076755281126,-0.025925574798200016,-0.0011726600768450141
303,-1.7436194541285081e-15,75.24452921705617,0.28979303265320333,-0.026055225651326282,0.026706944989657946
304,-1.741099520360468e-15,75.24452921705617,0.2898177959370197,-0.026095737489327954,0.05540801426469365
305,-1.7396305495669494e-15,75.24452921705617,0.28991656997507614,-0.026066662731519693,0.08404153418622654
306,-1.7396147313202844e-15,75.24452921705617,0.29002977126724894,-0.025992535392673377,0.11177684520420585
307,-1.7414126536984952e-15,75.24452921705617,0.2901279259738301,-0.025896602427895328,0.13790517062637597
308,-1.7451572999682955e-15,75.24452921705617,0.2902074896838736,-0.025796704975619325,0.16188905985582905
309,-1.7505838550502548e-15,75.24452921705617,0.29027819980600295,-0.025703877726924163,0.18338986562804593
310,-1.7570180684588546e-15,75.24452921705617,0.29035124032127124,-0.025622595055268354,0.2022714980215394
311,-1.7635690391077492e-15,75.24452921705617,0.29043387899568285,-0.02555147008865586,0.21858139818503472
312,-1.7694175785933422e-15,75.24452921705617,0.2905306096009439,-0.02548406413451311,0.23251122760932916
313,-1.7740273863131146e-15,75.24452921705617,0.2906454752118723,-0.025410112319859766,0.24434332702749795
314,-1.777204472265506e-15,75.24452921705617,0.2907814193017616,-0.02531731566221421,0.25439354572235934
315,-1.7790512268771866e-15,75.24452921705617,0.29093862207401644,-0.02519357668544219,0.26296186282486045
316,-1.77986515877325e-15,75.24452921705617,0.2911155651090092,-0.025029694796125,0.2702983273776012
317,-1.779979922964561e-15,75.24452921705617,0.2913117758979674,-0.024822543313133612,0.2765860873808983
318,-1.7795768045782416e-15,75.24452921705617,0.29152772799110727,-0.024578174493661734,0.28193930271180606
319,-1.778592857875656e-15,75.24452921705617,0.29176086042043825,-0.02431330684812349,0.2864136728406811
320,-1.776811599266797e-15,75.24452921705617,0.29200239726779015,-0.02405302804913775,0.29002684404778883
321,-1.774047795538537e-15,75.24452921705617,0.29223909619835176,-0.023824209031033734,0.2927805784886111
322,-1.7702962765043998e-15,75.24452921705617,0.2924576476826483,-0.02364792969992687,0.2946732285055811
323,-1.765802754150998e-15,75.24452921705617,0.2926467979792188,-0.02353532840974669,0.295698347899872
324,-1.7610399978142604e-15,75.24452921705617,0.2927965206296938,-0.023487830947118475,0.2958371418035045
325,-1.7565780960461495e-15,75.24452921705617,0.2928974037287152,-0.023499712377196006,0.2950564019170677
326,-1.7528915290155429e-15,75.24452921705617,0.2929425980839205,-0.02356097311127741,0.29331764804228927
327,-1.7501907234575162e-15,75.24452921705617,0.29293158495357574,-0.023659415478246897,0.29059463130123947
328,-1.7483740218814434e-15,75.24452921705617,0.29287275804044344,-0.02378185431079859,0.2868915296920458
329,-1.7471183631411721e-15,75.24452921705617,0.2927825470536921,-0.02391530315972819,0.2822554652818239
330,-1.7460334315242162e-15,75.24452921705617,0.29268177456832545,-0.02404846132634653,0.2767818135879296
331,-1.7448308361195272e-15,75.24452921705617,0.2925913247462793,-0.024172750397921116,0.270613189687493
332,-1.7434809416864084e-15,75.24452921705617,0.2925279334435148,-0.024282433034889448,0.26393076057227266
333,-1.7422831416223428e-15,75.24452921705617,0.29249983258123957,-0.024374330239351497,0.2569353205940159
334,-1.741788894444373e-15,75.24452921705617,0.29250317021910816,-0.024447606051755073,0.2498210373475874
335,-1.7425977665079003e-15,75.24452921705617,0.2925218764930721,-0.02450337650918539,0.2427514205433254
336,-1.745125943503992e-15,75.24452921705617,0.29253232019640646,-0.024543802237179543,0.23584548305702213
337,-1.7494412320898811e-15,75.24452921705617,0.29251056286548965,-0.02457082367917908,0.2291748244731237
338,-1.7551909505766244e-15,75.24452921705617,0.2924390808249027,-0.024585108074553427,0.2227684620415852
339,-1.76164846544195e-15,75.24452921705617,0.2923115891776726,-0.024585727742510992,0.21662174642755563
340,-1.7679104686118624e-15,75.24452921705617,0.2921355027666443,-0.02457058712791242,0.2107042528664624
341,-1.773171699068909e-15,75.24452921705617,0.29193149558602804,-0.024537140064660477,0.20496182339796126
342,-1.7769227045786374e-15,75.24452921705617,0.29173056158355887,-0.02448299144582909,0.19931282305128672
343,-1.779001431252365e-15,75.24452921705617,0.29157025826089794,-0.0244064354692203,0.1936426638535164
344,-1.7795467272771287e-15,75.24452921705617,0.2914909725768184,-0.024307198461895593,0.18779983622083724
345,-1.7789033226857392e-15,75.24452921705617,0.29153131638354013,-0.024187270462403702,0.18159498872542276
346,-1.777474346716122e-15,75.24452921705617,0.2917227595064683,-0.024051439427562576,0.17480505659323603
347,-1.7755469550962562e-15,75.24452921705617,0.29208571053425986,-0.02390755049165868,0.1671856824841531
348,-1.7732127570894196e-15,75.24452921705617,0.2926284472872218,-0.023766646372119917,0.1584942236078399
349,-1.770461210112465e-15,75.24452921705617,0.2933477422716916,-0.02364274057387853,0.1485202817258834
350,-1.7673375908270592e-15,75.24452921705617,0.2942287668256873,-0.023552120097404365,0.13711493080399362
351,-1.7639997813443721e-15,75.24452921705617,0.29524262575723825,-0.02351221949128255,0.1242114233913564
352,-1.7606484735914589e-15,75.24452921705617,0.29634243845775554,-0.023539540282470142,0.1098382764881586
353,-1.7574396664502424e-15,75.24452921705617,0.29746147422692043,-0.023646349209221776,0.09413142801953625
354,-1.7544695277921075e-15,75.24452921705617,0.29851666208676664,-0.023837008114617367,0.07735099477805817
355,-1.7518195072899169e-15,75.24452921705617,0.29941806276477084,-0.02410484541376555,0.059900688742188735
356,-1.7495962932835426e-15,75.24452921705617,0.3000823503313226,-0.024430277535097737,0.042338046110581985
357,-1.7478929571857466e-15,75.24452921705617,0.30044661708746756,-0.024781695874435017,0.02536119994569089
358,-1.7466561450916e-15,75.24452921705617,0.30047787068797405,-0.025120204087144438,0.009766997042873161
359,-1.7456093548644586e-15,75.24452921705617,0.30017517002428634,-0.025406805111460685,-0.003614525828708555
360,-1.7443962070655822e-15,75.24452921705617,0.29956488520415697,-0.025609431968935142,-0.013999535980399814
361,-1.7428494430352043e-15,75.24452921705617,0.2986922506084965,-0.02570850389632011,-0.020730861734846548
362,-1.741156439323074e-15,75.24452921705617,0.2976125567851821,-0.02570080365861633,-0.023345467948081358
363,-1.7398265983194276e-15,75.24452921705617,0.29638345096116653,-0.025601117750121846,-0.021618057200615937
364,-1.7395086685259937e-15,75.24452921705617,0.2950591762046057,-0.0254403495235023,-0.015574798959086786
365,-1.7407698293566838e-15,75.24452921705617,0.29368841821924085,-0.025259006610702777,-0.005475408631209231
366,-1.74392852164679e-15,75.24452921705617,0.2923152023977034,-0.02509724642766176,0.008233508130888792
367,-1.7489499370274123e-15,75.24452921705617,0.2909792757261753,-0.02498565731530645,0.024984646331915078
368,-1.755394402228605e-15,75.24452921705617,0.289714841917373,-0.024940423124536964,0.04416032923344517
369,-1.7624653268506518e-15,75.24452921705617,0.28855042009799875,-0.024962664528566245,0.06515098304158044
370,-1.76920382194476e-15,75.24452921705617,0.28751176971324904,-0.025039922505963663,0.0873931483453861
371,-1.774760870820238e-15,75.24452921705617,0.28662714823196056,-0.02514894472173838,0.11038690622970976
372,-1.778593729142583e-15,75.24452921705617,0.2859325133952177,-0.025259548030340015,0.1336960025974637
373,-1.7805153913415535e-15,75.24452921705617,0.2854721065402393,-0.025338940976163845,0.15693384501674493
374,-1.7806332925018334e-15,75.24452921705617,0.28529045618742965,-0.02535615143260893,0.17973898944480984
375,-1.7792101643844305e-15,75.24452921705617,0.28541898222803863,-0.025286549864002653,0.20174749888018176
376,-1.7764924273700775e-15,75.24452921705617,0.2858656595702152,-0.025116201126334066,0.22257381977891594
377,-1.7726341112037495e-15,75.24452921705617,0.2866114660843053,-0.024845475246388745,0.24180969004927075
378,-1.7677960634441623e-15,75.24452921705617,0.2876101929240947,-0.024491131830428746,0.259042810178699
379,-1.7623092228543372e-15,75.24452921705617,0.28878887659761626,-0.02408561246324211,0.2738902611330712
380,-1.7567285643479796e-15,75.24452921705617,0.29005257373450993,-0.023671824335757242,0.28603783880096706
381,-1.7517309940876772e-15,75.24452921705617,0.2912982037083401,-0.023293226143817857,0.2952757230809774
382,-1.7479267357851526e-15,75.24452921705617,0.29243340329933804,-0.02298309561876619,0.3015238599010622
383,-1.7456839684903015e-15,75.24452921705617,0.2933902305564188,-0.02275869089572643,0.30484330590671405
384,-1.7450612636954266e-15,75.24452921705617,0.29412935532583395,-0.0226222276180395,0.3054298756565855
385,-1.7458504778507395e-15,75.24452921705617,0.2946378553237153,-0.022565923280497415,0.30358838264502647
386,-1.7476226431257084e-15,75.24452921705617,0.2949237976866951,-0.0225776914533687,0.2996926859306988
387,-1.7497487350888051e-15,75.24452921705617,0.2950093140190269,-0.02264562729617592,0.29414280018017475
388,-1.7514976900803252e-15,75.24452921705617,0.2949248912793931,-0.022760535379154945,0.2873291610043271
389,-1.752244444790537e-15,75.24452921705617,0.2947063235824431,-0.02291656047110333,0.279607713690936
390,-1.7516804266996259e-15,75.24452921705617,0.2943922302761952,-0.02311040854155097,0.27128436207046597
391,-1.7499121719910554e-15,75.24452921705617,0.29402046083135996,-0.023339495213901044,0.2626074720008231
392,-1.7474088126860029e-15,75.24452921705617,0.2936253958138029,-0.02359943878146591,0.2537694603362737
393,-1.744831716211282e-15,75.24452921705617,0.2932384649152957,-0.023881553078890748,0.2449163751249321
394,-1.7428445824254052e-15,75.24452921705617,0.29289067522075674,-0.024171228107949132,0.23615947498202405
395,-1.7419877498629257e-15,75.24452921705617,0.2926132146525624,-0.02444859656206869,0.22758299171744373
396,-1.7426124124833382e-15,75.24452921705617,0.2924334361575281,-0.024692345515650655,0.2192473934780854
397,-1.7448356886177528e-15,75.24452921705617,0.29236813332782813,-0.02488522305611946,0.21119090971635648
398,-1.7485037452419987e-15,75.24452921705617,0.2924183605056103,-0.025018126572272953,0.20343194049306307
399,-1.7531825177872741e-15,75.24452921705617,0.29256766003116585,-0.02509080529933726,0.19597437024200623
400,-1.758232272284894e-15,75.24452921705617,0.2927836323901407,-0.02510992431728325,0.18881697009893975
401,-1.762996129326267e-15,75.24452921705617,0.29302313625306536,-0.025086423973327946,0.18196429209011983
402,-1.7669935390220366e-15,75.24452921705617,0.29324005218381677,-0.025033033103714325,0.17543213006850797
403,-1.7699625564169833e-15,75.24452921705617,0.29339236998979806,-0.024962113123047473,0.1692420563135885
404,-1.771766769594943e-15,75.24452921705617,0.29344723307779935,-0.024884403187025846,0.1634068552054308
405,-1.7723135278453923e-15,75.24452921705617,0.2933859883192306,-0.024808515743823024,0.1579144295287712
406,-1.7715650700902828e-15,75.24452921705617,0.2932097101281369,-0.024740096256259607,0.15271644544425633
407,-1.7695955949064222e-15,75.24452921705617,0.292941805277995,-0.024680732426462473,0.14772329567113612
408,-1.766598071543229e-15,75.24452921705617,0.29262547251970206,-0.02462806705333552,0.14280593700948863
409,-1.7628358624299644e-15,75.24452921705617,0.29231758356669396,-0.024577579194892753,0.13780636937123555
410,-1.758616706703239e-15,75.24452921705617,0.29208056000186244,-0.024524777692364462,0.13255583185692432
411,-1.7543119653997637e-15,75.24452921705617,0.29197233979200204,-0.024466636412298477,0.1268952802257727
412,-1.7503709911780035e-15,75.24452921705617,0.2920357322661596,-0.024402342482840754,0.12069286563272892
413,-1.7472555294358869e-15,75.24452921705617,0.2922910871389095,-0.024333637841782833,0.1138573900393402
414,-1.745261344761716e-15,75.24452921705617,0.2927364830941029,-0.024264366621507143,0.10634794428238578
415,-1.7443411948125517e-15,75.24452921705617,0.2933544412626035,-0.024199137279085882,0.0981752105833047
416,-1.7441073372897953e-15,75.24452921705617,0.294118619300027,-0.024141991121187492,0.08938835982990156
417,-1.7440395929865936e-15,75.24452921705617,0.2949959886309722,-0.024095951535600717,0.08005076422476821
418,-1.7437550226655851e-15,75.24452921705617,0.29594604713642386,-0.024063374053320298,0.07021816722616432
419,-1.7431602949169807e-15,75.24452921705617,0.2969208971067116,-0.02404641914069878,0.05993232161315757
420,-1.7424147405901208e-15,75.24452921705617,0.29786714026041045,-0.024047218028615393,0.049233603364493186
421,-1.7418002948425362e-15,75.24452921705617,0.29872696848026387,-0.024067922594119027,0.0381864796594159
422,-1.7416216149737706e-15,75.24452921705617,0.2994377030525936,-0.024110937950149784,0.026908480577925355
423,-1.7421530198779316e-15,75.24452921705617,0.2999341179156682,-0.024178882702965587,0.015596592540175624
424,-1.7435980954306415e-15,75.24452921705617,0.30015695025684147,-0.024273472127107114,0.00454792017944469
425,-1.7460454624933228e-15,75.24452921705617,0.30006415255183677,-0.0243936206275572,-0.005829344989917777
426,-1.7494197754547513e-15,75.24452921705617,0.29963864208900387,-0.024534276625692356,-0.015020014237755841
427,-1.7534364564999695e-15,75.24452921705617,0.2988904198201057,-0.02468702060804549,-0.022425570964571224
428,-1.7575878481213696e-15,75.24452921705617,0.297854889580297,-0.02484179252416304,-0.027408070650391365
429,-1.7612209901246446e-15,75.24452921705617,0.29658919560024066,-0.024988428731131208,-0.029350063727884554
430,-1.7637380775684801e-15,75.24452921705617,0.2951670264034479,-0.02511755059130529,-0.027723234067895976
431,-1.7648092289679397e-15,75.24452921705617,0.2936719385408452,-0.025221226734729676,-0.022155796624235183
432,-1.7644368571313045e-15,75.24452921705617,0.2921895839665819,-0.02529370626860441,-0.012485735238524302
433,-1.762878341997611e-15,75.24452921705617,0.2907992311150521,-0.025331988046433152,0.0012120589514849499
434,-1.7605506140572679e-15,75.24452921705617,0.28956523968494624,-0.025336026062843915,0.018629142517357974
435,-1.7579565974521444e-15,75.24452921705617,0.28853068872798737,-0.025308641454542417,0.03925236469191734
436,-1.755592206402681e-15,75.24452921705617,0.2877163152874086,-0.025254926444930707,0.06240888810331189
437,-1.7538372927270216e-15,75.24452921705617,0.2871257714057722,-0.025180827474786078,0.08731936920906518
438,-1.7528747069008936e-15,75.24452921705617,0.28675364029251554,-0.02509133374417481,0.11315375241048162
439,-1.7526476591591281e-15,75.24452921705617,0.28659061096617305,-0.024989143586035538,0.13908579570368526
440,-1.7528857319740654e-15,75.24452921705617,0.2866244191684308,-0.024874238805269094,0.1643428015220304
441,-1.7532408356214994e-15,75.24452921705617,0.2868398770014425,-0.02474441134068579,0.1882458553893325
442,-1.7534474083417982e-15,75.24452921705617,0.28721957619460553,-0.024596641267597558,0.21023689597488432
443,-1.7533613772110922e-15,75.24452921705617,0.2877430287422767,-0.024428789625194538,0.2298933444825359
444,-1.7528665638510253e-15,75.24452921705617,0.28838347460217617,-0.024240887722855754,0.24693273114097564
445,-1.7517831891204085e-15,75.24452921705617,0.2891061441222519,-0.024035854410138474,0.2612071556269165
446,-1.749911388014786e-15,75.24452921705617,0.28987127702009624,-0.023820028775613712,0.272686542768102
447,-1.7471936363466487e-15,75.24452921705617,0.2906392594003464,-0.023603797939315056,0.2814327594653157
448,-1.7438341934270226e-15,75.24452921705617,0.29137304169767353,-0.023401982868142303,0.2875695184977835
449,-1.7402666248316026e-15,75.24452921705617,0.29203795257044185,-0.023233133445149805,0.29125279768143253
450,-1.7370420128176985e-15,75.24452921705617,0.29260301645718473,-0.02311715388926054,0.29264615823865714
451,-1.7347460938313702e-15,75.24452921705617,0.2930450868177565,-0.02307172992129826,0.29190714408273344
452,-1.7339374441166864e-15,75.24452921705617,0.29335279067323194,-0.0231085863972051,0.2891910807819179
453,-1.7350334744299737e-15,75.24452921705617,0.29352777989384826,-0.023230110063385594,0.28467183761526993
454,-1.7381401803606138e-15,75.24452921705617,0.29358395701342427,-0.023426846217451322,0.2785676106300687
455,-1.742943880463629e-15,75.24452921705617,0.29354626678597884,-0.02367736699838555,0.2711555381285998
456,-1.748757996322164e-15,75.24452921705617,0.29344832544535643,-0.02395205049477993,0.2627669961344168
457,-1.7546679714489369e-15,75.24452921705617,0.2933262522155548,-0.024219966381896735,0.25376463001739313
458,-1.7597147827267654e-15,75.24452921705617,0.2932096769353022,-0.024455435566980727,0.24450708424782988
459,-1.763133810630646e-15,75.24452921705617,0.29311635968734917,-0.024641418102646938,0.2353124251324806
460,-1.7645731306546453e-15,75.24452921705617,0.2930541850962823,-0.02476986293724958,0.22643229652319527
461,-1.7641449868317528e-15,75.24452921705617,0.293026433190088,-0.02484051665139337,0.21804127056065017
462,-1.7623062696450618e-15,75.24452921705617,0.29303449348944804,-0.02485893527246828,0.21023825516575392
463,-1.7596608234814928e-15,75.24452921705617,0.2930766087479588,-0.024834068684295593,0.20305629933248
464,-1.7567422138749871e-15,75.24452921705617,0.2931458124703123,-0.024776041290687122,0.19647780142169796
465,-1.7538613152063384e-15,75.24452921705617,0.29323099166208616,-0.024694482138877254,0.1904495373902654
466,-1.7511217130717059e-15,75.24452921705617,0.2933203959691753,-0.02459747243136958,0.18489245223388673
467,-1.748587742950817e-15,75.24452921705617,0.29340360681607397,-0.024491215090728848,0.1797084607280581
468,-1.7464537543783872e-15,75.24452921705617,0.29347122714335294,-0.02438018513831134,0.17479148964476557
469,-1.7450538521113676e-15,75.24452921705617,0.2935149132736324,-0.024267337078856113,0.17004388552450328
470,-1.7446818429628776e-15,75.24452921705617,0.29352897935815137,-0.024154611241214406,0.16538928196848923
471,-1.7453735376415482e-15,75.24452921705617,0.29351186397499346,-0.02404425896390217,0.1607719855086429
472,-1.746837171712221e-15,75.24452921705617,0.2934650177423822,-0.023940549443783727,0.15614172915187585
473,-1.7485380483710955e-15,75.24452921705617,0.29338939083454313,-0.023850722266607775,0.15143294452121023
474,-1.7498326134375263e-15,75.24452921705617,0.29328309292793725,-0.023784715540154044,0.1465513204892565
475,-1.750132214311111e-15,75.24452921705617,0.29314348695453746,-0.023753943105633977,0.14137416792390653
476,-1.7490966577803964e-15,75.24452921705617,0.2929727542001799,-0.023769238410156247,0.13576076300560616
477,-1.7467491162587441e-15,75.24452921705617,0.29278272038239506,-0.023838021976654925,0.1295649390475758
478,-1.7434293509360118e-15,75.24452921705617,0.29259627198935806,-0.023961215292447467,0.12264804102970105
479,-1.7396680157412306e-15,75.24452921705617,0.2924469547193816,-0.024130602425988218,0.11489527929240115
480,-1.7360949155564848e-15,75.24452921705617,0.29237880777632547,-0.02432760939342722,0.10623331659428317
481,-1.7333747502636144e-15,75.24452921705617,0.29244395903475084,-0.024525190739191544,0.09664108096848684
482,-1.7320964835384886e-15,75.24452921705617,0.2926941560875453,-0.024693666944241983,0.08614921742741798
483,-1.732609823794452e-15,75.24452921705617,0.29316739615791715,-0.02480846920536987,0.07482914232884363
484,-1.7349219740450973e-15,75.24452921705617,0.29387536124884067,-0.024856137843115824,0.06277539186854993
485,-1.73873884953114e-15,75.24452921705617,0.29479712481920056,-0.02483630372954179,0.050089217494743786
486,-1.7435723623478544e-15,75.24452921705617,0.2958808575449423,-0.024759867144188815,0.03687425108488407
487,-1.7488166773697473e-15,75.24452921705617,0.2970513685993829,-0.024645231063095973,0.02325014982578571
488,-1.7538242413628744e-15,75.24452921705617,0.29821975197074285,-0.024514563744474187,0.00937954776172896
489,-1.7580280531011197e-15,75.24452921705617,0.29929238281525494,-0.024390977762725592,-0.004504730478837426
490,-1.7610552316399404e-15,75.24452921705617,0.3001791097771288,-0.024296293132241797,-0.018084265967500866
491,-1.7627628945786478e-15,75.24452921705617,0.3008014878057416,-0.024248744700046277,-0.030955412218359124
492,-1.7632064765260658e-15,75.24452921705617,0.3011004106701158,-0.024260796137015168,-0.04264394535301138
493,-1.7625726768383225e-15,75.24452921705617,0.30104149085751963,-0.02433785964446887,-0.052631178552131584
494,-1.7610805321426453e-15,75.24452921705617,0.3006164925047221,-0.024478122320140766,-0.06038637309636945
495,-1.7588933422428028e-15,75.24452921705617,0.29984074272273686,-0.02467295499924814,-0.06540002691699634
496,-1.7561260791417595e-15,75.24452921705617,0.29874908520535315,-0.024907592346272354,-0.0672175878502542
497,-1.7529406962855269e-15,75.24452921705617,0.2973925856303981,-0.025162034750065062,-0.065475192914006
498,-1.7496205105378055e-15,75.24452921705617,0.29583591088459843,-0.025412075277524693,-0.05993414576174382
499,-1.7465427059504025e-15,75.24452921705617,0.29415428762375256,-0.025630794257350157,-0.05050673682140315
500,-1.7440595251801611e-15,75.24452921705617,0.2924296966759518,-0.025791057167392984,-0.03726709497277688
501,-1.742377831739714e-15,75.24452921705617,0.2907478047835936,-0.025868694536413255,-0.02044528342408603
502,-1.7415164215766452e-15,75.24452921705617,0.28919592466529453,-0.02584576836255196,-0.00040972471215487054
503,-1.7413341597948903e-15,75.24452921705617,0.2878581944595721,-0.025714187720970654,0.02235192686435699
504,-1.7415857385693224e-15,75.24452921705617,0.286805301329825,-0.025479781369659494,0.047247045202493586
505,-1.7419827449070182e-15,75.24452921705617,0.2860828743129412,-0.025164978850493645,0.07359140293311539
506,-1.7422525996584676e-15,75.24452921705617,0.28570578934528473,-0.024806600058190496,0.10063038027540848
507,-1.7421917213530078e-15,75.24452921705617,0.2856612876920243,-0.024447227990968313,0.12757067360192906
508,-1.7417097328211233e-15,75.24452921705617,0.2859174334891428,-0.024124074896227362,0.1536188019046788
509,-1.7408588223938498e-15,75.24452921705617,0.28643082838393463,-0.023861680566363147,0.17802374928350234
510,-1.7398297258459819e-15,75.24452921705617,0.28714991674596235,-0.023670851162188932,0.20012280693704715
511,-1.7388786879642462e-15,75.24452921705617,0.2880153669973111,-0.0235516081929337,0.21938692200286516
512,-1.738199190168209e-15,75.24452921705617,0.2889620369135345,-0.02349711738146817,0.2354586666533379
513,-1.7378558301434792e-15,75.24452921705617,0.2899245932712339,-0.02349691609488309,0.2481748320108051
514,-1.7378587209279495e-15,75.24452921705617,0.2908438939314478,-0.023538956467804763,0.2575670475413684
515,-1.7382742812543156e-15,75.24452921705617,0.29167015146655517,-0.02361073901855852,0.2638383883888303
516,-1.7392163233060963e-15,75.24452921705617,0.2923632777880653,-0.023700303011964075,0.2673197167197303
517,-1.7407176717960608e-15,75.24452921705617,0.2928939023888207,-0.02379748314425809,0.2684162504151655
518,-1.7426389900834657e-15,75.24452921705617,0.29324626319619185,-0.023894831215618792,0.26756039539639653
519,-1.7447199173038086e-15,75.24452921705617,0.2934214218481382,-0.023987622523109566,0.2651820000060562
520,-1.7466957846331445e-15,75.24452921705617,0.2934386672526898,-0.024073314462749375,0.26169229122384097
521,-1.748365730088831e-15,75.24452921705617,0.29333309890194353,-0.024150910122901114,0.25746882573414975
522,-1.7496035458726748e-15,75.24452921705617,0.29314921191528015,-0.024220160778041327,0.25283534529491053
523,-1.7503615882868744e-15,75.24452921705617,0.29293318770842625,-0.02428066640039321,0.24804358873403934
524,-1.7507050105541662e-15,75.24452921705617,0.29272718011820986,-0.024331303473484254,0.2432679288994355
525,-1.7508336721828965e-15,75.24452921705617,0.2925662562594039,-0.024370307069392437,0.23861346840109532
526,-1.7509901610025385e-15,75.24452921705617,0.2924758306189937,-0.024395912495992413,0.23412788504094742
527,-1.751291565819011e-15,75.24452921705617,0.2924683924278591,-0.02440705952235013,0.2298103027127427
528,-1.7516562234162728e-15,75.24452921705617,0.29254139419066755,-0.024403617079135468,0.22561941523153825
529,-1.7518619303822572e-15,75.24452921705617,0.2926782517865054,-0.024386077030387168,0.22148454035963652
530,-1.7516306417999342e-15,75.24452921705617,0.29285231693865,-0.02435514407527249,0.21731906856874555
531,-1.7506896008746447e-15,75.24452921705617,0.29303257764014734,-0.024311477472653182,0.21303376122286366
532,-1.7488250205494885e-15,75.24452921705617,0.293189334302097,-0.024255675719078072,0.20854764165564252
533,-1.745938975562373e-15,75.24452921705617,0.2932985183634707,-0.02418878880414572,0.20379518104494895
534,-1.7421076216486478e-15,75.24452921705617,0.29334497248043245,-0.024113094053986,0.19873051311543774
535,-1.7376310574350537e-15,75.24452921705617,0.2933247485061926,-0.024032395155821125,0.19332991638167613
536,-1.7330465324268277e-15,75.24452921705617,0.29324449993755447,-0.023952131030485404,0.18759149119354718
537,-1.7290446253905746e-15,75.24452921705617,0.29311736450777565,-0.02387999541632398,0.18153049607907237
538,-1.7262577730378943e-15,75.24452921705617,0.29295819684404645,-0.023826387647976368,0.17517178907969852
539,-1.7250336808481792e-15,75.24452921705617,0.2927810716463285,-0.02380350526113434,0.16854187858539352
540,-1.7253597256418888e-15,75.24452921705617,0.29259919647119265,-0.023823025604069552,0.16166124488927902
541,-1.7269495474672525e-15,75.24452921705617,0.292425445081712,-0.023893099029270587,0.15453831637513332
542,-1.729402592097811e-15,75.24452921705617,0.292272492494614,-0.024015352013627977,0.14716808558014471
543,-1.732380036702893e-15,75.24452921705617,0.2921533993903335,-0.0241826042542616,0.139534714967756
544,-1.7357157653895984e-15,75.24452921705617,0.2920831695421503,-0.024378134167015487,0.13161353112611104
545,-1.7393654552603785e-15,75.24452921705617,0.29208057374749097,-0.024577402736201,0.12337000571496409
546,-1.7432277560318416e-15,75.24452921705617,0.2921690033372326,-0.024752748494646815,0.11475670520271382
547,-1.7470248574096585e-15,75.24452921705617,0.2923748193771321,-0.024879825503209246,0.10570960454803198
548,-1.7503896500977885e-15,75.24452921705617,0.2927233360147427,-0.02494270593074173,0.09614530409488672
549,-1.753072118599652e-15,75.24452921705617,0.29323469561315196,-0.02493557397538798,0.08596224723423836
550,-1.755033889598446e-15,75.24452921705617,0.29392082546273235,-0.02486176385173049,0.07505019038167073
551,-1.756342114361905e-15,75.24452921705617,0.2947820643964843,-0.024731921857098573,0.06330914029282232
552,-1.7570060279905153e-15,75.24452921705617,0.2958018480484884,-0.024562273589472793,0.050673340027013763
553,-1.7569358381746793e-15,75.24452921705617,0.29694104093973656,-0.024373006677488634,0.03713560289172669
554,-1.7560373616325412e-15,75.24452921705617,0.2981359173233512,-0.024186303345605877,0.022772403449477126
555,-1.754308072946718e-15,75.24452921705617,0.29930145018448817,-0.02402413088619907,0.007771271524123474
556,-1.75186588755076e-15,75.24452921705617,0.30033870138397156,-0.02390655617662264,-0.007544176297651482
557,-1.7489712023646856e-15,75.24452921705617,0.30114583912713744,-0.023850702126015103,-0.022702086087725077
558,-1.7460320117940341e-15,75.24452921705617,0.3016320614181307,-0.02386957838716994,-0.03709156804733874
559,-1.743500884482967e-15,75.24452921705617,0.3017307489978399,-0.023970285566607845,-0.04999466240012261
560,-1.7416771742085535e-15,75.24452921705617,0.3014078212517665,-0.02415206689210565,-0.06063782260712248
561,-1.740532215478787e-15,75.24452921705617,0.30066425030952343,-0.024405168215157494,-0.06825773347904546
562,-1.7396974186545282e-15,75.24452921705617,0.2995343580966245,-0.02471097344301113,-0.07217251349196624
563,-1.7386765782341997e-15,75.24452921705617,0.29808216740446963,-0.025043272203403105,-0.0718450938319979
564,-1.7371246547473597e-15,75.24452921705617,0.29639642579643555,-0.025370475887275402,-0.06692777469606646
565,-1.7349553711638301e-15,75.24452921705617,0.29458274593090056,-0.02565868173691915,-0.05728607727061327
566,-1.7322851619654508e-15,75.24452921705617,0.29275190237551413,-0.025875365554261787,-0.04300687053505407
567,-1.729391202636436e-15,75.24452921705617,0.29100682554144136,-0.025993238025457638,-0.024394264948502577
568,-1.7266809649769015e-15,75.24452921705617,0.28943264295182153,-0.025993770945509566,-0.0019525821076083023
569,-1.724549732497872e-15,75.24452921705617,0.2880915436352112,-0.025870346192319156,0.023643338774395988
570,-1.7232081302565076e-15,75.24452921705617,0.2870214360245648,-0.02563118703840942,0.05158633459921296
571,-1.72269231401406e-15,75.24452921705617,0.2862377349288416,-0.025301185472477762,0.0809795159242755
572,-1.723045181222644e-15,75.24452921705617,0.285738683570796,-0.024919886128500175,0.1108829314958009
573,-1.7244159329685138e-15,75.24452921705617,0.2855134638153275,-0.02453347010946637,0.14036479936446725
574,-1.7269392000513353e-15,75.24452921705617,0.2855490602473557,-0.02418347170032657,0.16855340995134954
575,-1.7305802907575687e-15,75.24452921705617,0.2858308959787296,-0.023898440062309047,0.19468268338943498
576,-1.7351756096885578e-15,75.24452921705617,0.286337379210451,-0.023691709115205083,0.2181276797234919
577,-1.7405437320887498e-15,75.24452921705617,0.2870339379972717,-0.0235637487614541,0.23843086906070107
578,-1.7464133012659615e-15,75.24452921705617,0.28787129444553966,-0.023506456601432885,0.2553186789268164
579,-1.7522714137547944e-15,75.24452921705617,0.28878863341595923,-0.023507592970171298,0.2687040285292489
580,-1.7574199318825007e-15,75.24452921705617,0.2897200071280983,-0.023554129493428663,0.2786727484904197
581,-1.7612515999889809e-15,75.24452921705617,0.29060220168574596,-0.02363375264778281,0.2854583220265627
582,-1.763487977768606e-15,75.24452921705617,0.2913824660584182,-0.02373484918916106,0.28941037967136657
583,-1.7641594243847703e-15,75.24452921705617,0.2920245020980562,-0.023846405519657842,0.2909583897253502
584,-1.7633823870124489e-15,75.24452921705617,0.29251153693776577,-0.023958766374202915,0.29057188000142575
585,-1.7611879586232156e-15,75.24452921705617,0.29284547446368325,-0.02406455049158406,0.28872147177501417
586,-1.757529736336326e-15,75.24452921705617,0.29304195485306334,-0.02415865125769358,0.28584476280819454
587,-1.7524137743006035e-15,75.24452921705617,0.2931233534938792,-0.0242374911737576,0.28231885664862594
588,-1.7460917826430789e-15,75.24452921705617,0.29311283064156435,-0.024298398307853374,0.2784407053159763
589,-1.7391928844008829e-15,75.24452921705617,0.2930319655975604,-0.024339382019124636,0.27441695523701964
590,-1.7325909165090144e-15,75.24452921705617,0.29290237665273167,-0.024358961137269698,0.27036496288734313
591,-1.7270399212316235e-15,75.24452921705617,0.29274837867191655,-0.02435589840651285,0.2663240729694756
592,-1.7228924903366435e-15,75.24452921705617,0.29259742258468546,-0.024329277831136704,0.2622711660127686
593,-1.7201371935854094e-15,75.24452921705617,0.29247804544513883,-0.024279169674311513,0.25813390356665933
594,-1.7186659359195445e-15,75.24452921705617,0.2924166236059287,-0.02420724504784173,0.25380315314012447
595,-1.718471611533453e-15,75.24452921705617,0.29243336923768165,-0.024116797915620398,0.24915136473778265
596,-1.7196028484560129e-15,75.24452921705617,0.2925371228465344,-0.024012699013194465,0.24405652889207308
597,-1.7220162409044793e-15,75.24452921705617,0.29272008509815883,-0.0239019321764595,0.23842305882348996
598,-1.7255581122576e-15,75.24452921705617,0.2929561261624556,-0.02379436291720019,0.2321933335620721
599,-1.7300451626582211e-15,75.24452921705617,0.29320492231774103,-0.023702872094271712,0.22535012466459126
600,-1.7352191369928908e-15,75.24452921705617,0.2934203522394978,-0.023642521273966474,0.2179130957802058
601,-1.7405699158631203e-15,75.24452921705617,0.29356041666397475,-0.023628879069343686,0.2099337461080941
602,-1.7453205174422653e-15,75.24452921705617,0.2935962196541176,-0.023675325603755685,0.2014923871941102
603,-1.7487519527413931e-15,75.24452921705617,0.2935172014280043,-0.023789242922742915,0.19269675294697675
604,-1.7505905689571906e-15,75.24452921705617,0.2933320305144596,-0.023968064885295785,0.18367878214441483
605,-1.7510347417445479e-15,75.24452921705617,0.2930678090696046,-0.02419693303001263,0.17458669157934026
606,-1.7504727446412104e-15,75.24452921705617,0.29276757889800675,-0.02444987434826358,0.16557147345140832
607,-1.7492733563329729e-15,75.24452921705617,0.29248197527699926,-0.024695524184659187,0.15676900841395736
608,-1.7476913427360802e-15,75.24452921705617,0.2922560736035526,-0.02490526261972034,0.14828179346027914
609,-1.7457193175122986e-15,75.24452921705617,0.2921201452220171,-0.025059280207682028,0.14016618936400135
610,-1.7430296316979065e-15,75.24452921705617,0.29208918883736634,-0.025148361532962776,0.13242758982760325
611,-1.739203820298633e-15,75.24452921705617,0.2921674856740023,-0.02517278483450497,0.1250191530661794
612,-1.7340894820599778e-15,75.24452921705617,0.2923539208388796,-0.025140044613330297,0.11783949234720102
613,-1.7280059627986868e-15,75.24452921705617,0.29264684155048354,-0.0250618538948065,0.11073204682756987
614,-1.7216891242241e-15,75.24452921705617,0.2930468034260942,-0.02495101799528356,0.10349403193781
615,-1.7160532578064034e-15,75.24452921705617,0.29355560228906113,-0.024819055849556106,0.09589963979920473
616,-1.7119930993296588e-15,75.24452921705617,0.29417264472105514,-0.024674794010905516,0.08773193589933981
617,-1.7102933923614437e-15,75.24452921705617,0.2948906769219825,-0.02452400360622484,0.07880983062011776
618,-1.7114343130866065e-15,75.24452921705617,0.29569174405767557,-0.02437035626532086,0.06900255926639802
619,-1.7153169411266105e-15,75.24452921705617,0.2965444295173943,-0.024217266738377725,0.058240536515173295
620,-1.7212812626453677e-15,75.24452921705617,0.29740400611470513,-0.02406944410819196,0.04653709610627731
621,-1.7284592573683062e-15,75.24452921705617,0.29821569365074957,-0.02393339167842856,0.03402128615328277
622,-1.7360517089156684e-15,75.24452921705617,0.2989196397238976,-0.02381698026886855,0.020965291192037057
623,-1.7433466928590037e-15,75.24452921705617,0.2994570333372374,-0.02372843737650159,0.007789171288964817
624,-1.749703242986911e-15,75.24452921705617,0.2997778002409402,-0.02367499189156074,-0.004963485557425954
625,-1.7546186739050145e-15,75.24452921705617,0.2998484265607707,-0.023661720281967908,-0.016673240658570086
626,-1.7577689623043281e-15,75.24452921705617,0.2996567784520605,-0.023691047938929323,-0.02670164201353008
627,-1.7589793564576082e-15,75.24452921705617,0.2992127262447187,-0.023762660372507544,-0.03444427959035116
628,-1.7581859829416008e-15,75.24452921705617,0.2985449411702748,-0.023873593499494347,-0.03937660643796959
629,-1.7554490214177573e-15,75.24452921705617,0.2976942857967514,-0.024018673943452883,-0.041092829433805926
630,-1.7510601384291603e-15,75.24452921705617,0.2967059145705519,-0.024191244067803267,-0.03933223427089157
631,-1.7456450599349882e-15,75.24452921705617,0.29562279677165654,-0.024383920475999157,-0.03398555962063904
632,-1.7400431091027778e-15,75.24452921705617,0.29448143542273175,-0.02458924931792468,-0.0250828435970626
633,-1.7350190057424618e-15,75.24452921705617,0.293310164623937,-0.024799919832133734,-0.012772851726804953
634,-1.731104332432039e-15,75.24452921705617,0.29213075242775666,-0.0250081854867724,0.002696419936549088
635,-1.7285636429484926e-15,75.24452921705617,0.2909625676114824,-0.025204817202734073,0.020993801791863265
636,-1.7272981850854833e-15,75.24452921705617,0.2898279150427716,-0.02537849118691768,0.04172000062595974
637,-1.7268215986417342e-15,75.24452921705617,0.28875751632511093,-0.025516255172121843,0.06442138487437851
638,-1.7265019874168712e-15,75.24452921705617,0.2877940209168941,-0.02560490435074043,0.08859760489366274
639,-1.7259110594107381e-15,75.24452921705617,0.2869908377677379,-0.025632626976906582,0.11370132018673725
640,-1.725006211210638e-15,75.24452921705617,0.2864055380625752,-0.025590409657133766,0.1391375094999982
641,-1.72404566358373e-15,75.24452921705617,0.28608971743357436,-0.025473052369665745,0.16427310179398857
642,-1.7233323395267938e-15,75.24452921705617,0.286078098377724,-0.025280180667536692,0.18846088867984165
643,-1.7230528720545732e-15,75.24452921705617,0.28637911750616163,-0.02501770594143822,0.21107303785821477
644,-1.723355757317314e-15,75.24452921705617,0.2869690052895036,-0.024699333887324343,0.23153664710068925
645,-1.7244321906533828e-15,75.24452921705617,0.2877909707852961,-0.024347224003254543,0.2493665893572498
646,-1.7263865279546782e-15,75.24452921705617,0.2887606418785638,-0.02399109997217319,0.26419539039520845
647,-1.7291011868199534e-15,75.24452921705617,0.2897783663674763,-0.02366510701297783,0.27580064883074706
648,-1.732308939212837e-15,75.24452921705617,0.29074600683089596,-0.02340222802004719,0.2841245389519961
649,-1.735701050446402e-15,75.24452921705617,0.2915826966701276,-0.02322778766436482,0.28927462332943493
650,-1.7389162239848713e-15,75.24452921705617,0.29223506636306346,-0.023154678782828148,0.2915006176279132
651,-1.74155891893113e-15,75.24452921705617,0.29268120858331764,-0.023181856354307372,0.29115312904620483
652,-1.7433226512193557e-15,75.24452921705617,0.29292963338325173,-0.023295802905476323,0.2886352802013786
653,-1.744088796166101e-15,75.24452921705617,0.2930133542725152,-0.023474060653097605,0.2843561900771024
654,-1.743942745417271e-15,75.24452921705617,0.29297947508718486,-0.023689996089029063,0.2786941865474626
655,-1.743150846671558e-15,75.24452921705617,0.29287783707031884,-0.02391757872005105,0.2719761572453014
656,-1.7421191067600127e-15,75.24452921705617,0.2927524399408503,-0.02413494745068638,0.2644719869988116
657,-1.7413068298830424e-15,75.24452921705617,0.29263609789197564,-0.02432648187523989,0.2563961179159058
658,-1.7410326208511031e-15,75.24452921705617,0.29254793085467895,-0.024483610226947523,0.24791164765525656
659,-1.7412106441550318e-15,75.24452921705617,0.2924942250135733,-0.024604140537960065,0.2391391102265084
660,-1.741283726512808e-15,75.24452921705617,0.29247240235284233,-0.024690137275487023,0.23017066585451385
661,-1.7405555999427688e-15,75.24452921705617,0.2924762320411442,-0.0247456801846915,0.2210853048152815
662,-1.7386492110739985e-15,75.24452921705617,0.2925002001565665,-0.024775883686564873,0.2119605309744479
663,-1.735631801006639e-15,75.24452921705617,0.29254179813713743,-0.02478671552844855,0.20287826659521704
664,-1.7318327519450672e-15,75.24452921705617,0.29260127227254057,-0.024784220733571786,0.19392388607622812
665,-1.7277199927442783e-15,75.24452921705617,0.292679681938314,-0.02477295330394314,0.18518055129502667
666,-1.723858100456713e-15,75.24452921705617,0.29277724042598907,-0.024754797176945793,0.17672430818270984
667,-1.7207377917916191e-15,75.24452921705617,0.2928926434347825,-0.024729131040015343,0.16862177346167156
668,-1.7185468006759486e-15,75.24452921705617,0.29302262631652776,-0.024693939522011647,0.16092686060143782
669,-1.7171079827649738e-15,75.24452921705617,0.29316218584356707,-0.02464695490820421,0.15367520626691183
670,-1.7160654814867996e-15,75.24452921705617,0.29330635845104175,-0.024586606401930146,0.14687928485147222
671,-1.7152116950314215e-15,75.24452921705617,0.29345232661307774,-0.024512894932965688,0.14052577981871
672,-1.7146785756604461e-15,75.24452921705617,0.29360026400010664,-0.024427917536941478,0.13457387728167822
673,-1.7148353543372682e-15,75.24452921705617,0.29375300534346377,-0.02433567820683912,0.12895382151879498
674,-1.7160932090453232e-15,75.24452921705617,0.29391453841757537,-0.024241436696496796,0.12356705367680523
675,-1.7187666848489088e-15,75.24452921705617,0.29408729686697266,-0.02415134365871196,0.1182901663016525
676,-1.722835936583754e-15,75.24452921705617,0.2942703051427421,-0.024072567034478375,0.11298575102429441
677,-1.7276890333541723e-15,75.24452921705617,0.2944602975936957,-0.02401311774187672,0.10752218531401328
678,-1.7322970583512688e-15,75.24452921705617,0.2946546012397272,-0.023980652861806933,0.10179833516974371
679,-1.7358385964191537e-15,75.24452921705617,0.2948526555066189,-0.023980615845982656,0.09576293189705996
680,-1.7381212258015627e-15,75.24452921705617,0.2950550976582749,-0.024014569469638942,0.08941943956933124
681,-1.7394443611653473e-15,75.24452921705617,0.29526159068028934,-0.024079130974441938,0.08281435671259173
682,-1.7402879063236491e-15,75.24452921705617,0.29546845792873494,-0.024165535345675223,0.07601424575467312
683,-1.7411700970908023e-15,75.24452921705617,0.29566765701589054,-0.024259864692169147,0.06908054899872357
684,-1.7425534992067866e-15,75.24452921705617,0.29584900255136115,-0.024344200929857014,0.06205057375143118
685,-1.744616732092977e-15,75.24452921705617,0.2960044597430272,-0.02439922749156371,0.054930101041484436
686,-1.7469572300666163e-15,75.24452921705617,0.2961312407022133,-0.024408532329389672,0.04769956244564301
687,-1.7485567755480654e-15,75.24452921705617,0.29623218668199913,-0.02436348302924591,0.0403312682480629
688,-1.7483128956377657e-15,75.24452921705617,0.2963124735492547,-0.0242662228785388,0.03281179424488463
689,-1.7458701527840898e-15,75.24452921705617,0.2963724897047626,-0.024129280475308056,0.02516436366231475
690,-1.74195248120848e-15,75.24452921705617,0.2964015529085108,-0.023972761568589105,0.01746921905463729
691,-1.7378442291127128e-15,75.24452921705617,0.29637832910703676,-0.02382088662933035,0.009880892478577683
692,-1.7346329101800701e-15,75.24452921705617,0.29627719592660107,-0.023698366792697788,0.0026384939565864763
693,-1.732830662463561e-15,75.24452921705617,0.29607542646990537,-0.023626569807412446,-0.003936638288710553
694,-1.7323037366928976e-15,75.24452921705617,0.2957587032129066,-0.023620312268773976,-0.009456872276808132
695,-1.7323704029019044e-15,75.24452921705617,0.2953247755450053,-0.02368610669161585,-0.01349127524837315
696,-1.73212724352859e-15,75.24452921705617,0.29478459348270836,-0.0238216039411055,-0.015589318896676422
697,-1.7308669596686352e-15,75.24452921705617,0.2941606101420345,-0.024015872172366032,-0.015307851258436346
698,-1.7283323615492619e-15,75.24452921705617,0.2934829805389008,-0.024250701043345535,-0.0122492091920107
699,-1.7247059133580662e-15,75.24452921705617,0.29278412668459447,-0.02450287120196788,-0.006111400522274419
700,-1.7204201945796523e-15,75.24452921705617,0.2920915150124467,-0.024746920387597883,0.0032611089515210824
701,-1.7160167638051615e-15,75.24452921705617,0.2914205267375642,-0.02495818445217977,0.015842729942691848
702,-1.7121225763013845e-15,75.24452921705617,0.2907728894088515,-0.025116194447483472,0.03141891392377821
703,-1.7093280585587898e-15,75.24452921705617,0.29014428499537775,-0.02520823450394995,0.04960455297865145
704,-1.7079769298389716e-15,75.24452921705617,0.28953683901715105,-0.025232072736643515,0.06987987868952694
705,-1.7081949837485682e-15,75.24452921705617,0.2889682867975275,-0.02519607667388261,0.09163305356421185
706,-1.7101125139763236e-15,75.24452921705617,0.2884739624891705,-0.025115558569904203,0.11419975337258012
707,-1.7138519743387039e-15,75.24452921705617,0.2881022915542716,-0.025007059952672987,0.136893329222781
708,-1.7192527825795414e-15,75.24452921705617,0.28790490424520937,-0.024884272288696344,0.1590262636939528
709,-1.7257152879701637e-15,75.24452921705617,0.28792311703955975,-0.024757313871529074,0.1799304964176862
710,-1.732279797471815e-15,75.24452921705617,0.28817442400924936,-0.024633917571405536,0.19898437959462253
711,-1.7377875622957491e-15,75.24452921705617,0.2886438316539445,-0.024520520503811673,0.21564863507634321
712,-1.7411206058050135e-15,75.24452921705617,0.28928444880481746,-0.024422540161816098,0.2295070366221655
713,-1.7415886649486556e-15,75.24452921705617,0.2900279491085179,-0.02434415705684535,0.2403018063736494
714,-1.739346312438328e-15,75.24452921705617,0.2907997234853246,-0.024288084737407522,0.24795184750315166
715,-1.7355177315523963e-15,75.24452921705617,0.29153140444350534,-0.02425539702198088,0.252546756069943
716,-1.7316931454204366e-15,75.24452921705617,0.2921677814621303,-0.024245296198794085,0.25431950616280996
717,-1.7290079486079615e-15,75.24452921705617,0.2926709818974411,-0.024255033426676002,0.25360923584574746
718,-1.72765657010714e-15,75.24452921705617,0.29302426356884387,-0.02428025892191291,0.250825950251747
719,-1.727225604490682e-15,75.24452921705617,0.29323275341422944,-0.024315648721930573,0.2464208086987535
720,-1.7272255840724805e-15,75.24452921705617,0.2933186138164262,-0.024355506769186488,0.24085672352914955
721,-1.7272613243952063e-15,75.24452921705617,0.2933131630068292,-0.024394238213992777,0.23457427471435
722,-1.7270390366114594e-15,75.24452921705617,0.2932500127431935,-0.024426578774901394,0.22795720629739757
723,-1.7264993151475155e-15,75.24452921705617,0.2931606464802824,-0.024447546020377624,0.22130733085865423
724,-1.725897337038445e-15,75.24452921705617,0.29307197231322335,-0.024452526047054904,0.21483352269303058
725,-1.7255832707713929e-15,75.24452921705617,0.2930052603825657,-0.024437970818426854,0.2086520206900565
726,-1.7256003118105796e-15,75.24452921705617,0.292975979829277,-0.02440253834997782,0.2027942333906591
727,-1.7254700110326369e-15,75.24452921705617,0.29299361624839854,-0.02434798732700271,0.19722095422638444
728,-1.724472825865003e-15,75.24452921705617,0.2930609457420226,-0.024279243325725876,0.19184177836354402
729,-1.7222530014006231e-15,75.24452921705617,0.2931743040078332,-0.024203474415417092,0.18653588087862846
730,-1.7191337473796635e-15,75.24452921705617,0.2933261566549129,-0.02412859244210721,0.18117074397957808
731,-1.7159125224326578e-15,75.24452921705617,0.29350803328663194,-0.024062081740377946,0.1756198232420527
732,-1.7135435755858803e-15,75.24452921705617,0.2937114205586312,-0.024010708051368013,0.16978204278960293
733,-1.7129467553333765e-15,75.24452921705617,0.29392675139950125,-0.02398074903445277,0.16360121165545277
734,-1.7147321780887071e-15,75.24452921705617,0.2941418615419,-0.023978153125591775,0.15707833570072746
735,-1.718830604728749e-15,75.24452921705617,0.29434103374306425,-0.024008317373058915,0.15027198004821274
736,-1.7243737779605557e-15,75.24452921705617,0.2945049722094718,-0.024075114760791244,0.1432883198050171
737,-1.7299767021213446e-15,75.24452921705617,0.2946116700978896,-0.024179046681037427,0.13626644488500642
738,-1.7342517017586228e-15,75.24452921705617,0.29463910060864545,-0.02431529287029939,0.12936411042344856
739,-1.7363552106182975e-15,75.24452921705617,0.29457048555335424,-0.024472667893566297,0.12274590725142337
740,-1.7363745256862084e-15,75.24452921705617,0.29440049610874164,-0.024634091975386976,0.1165720195149667
741,-1.7352732688068314e-15,75.24452921705617,0.29413931037333413,-0.024779183831519995,0.11098424500574512
742,-1.7343135857649806e-15,75.24452921705617,0.2938120067070971,-0.024888871310873386,0.10608842584582096
743,-1.7343482243685801e-15,75.24452921705617,0.293452792198281,-0.02495013196547336,0.10193699039513496
744,-1.7354469310194372e-15,75.24452921705617,0.29309730272744805,-0.02495857357394225,0.09851765376945205
745,-1.7369914271947053e-15,75.24452921705617,0.2927777516804113,-0.024918126819692823,0.09575152887587142
746,-1.7381337201594635e-15,75.24452921705617,0.2925220777253458,-0.024838599144681575,0.09349808258060618
747,-1.7382831434768101e-15,75.24452921705617,0.29235472219761083,-0.024732404087321885,0.09156209229411646
748,-1.7372309243037441e-15,75.24452921705617,0.29229658984561924,-0.02461160464039243,0.08970201557478032
749,-1.7350014820584465e-15,75.24452921705617,0.292363257433277,-0.024485612627242463,0.08764430717940858
750,-1.7318513334215338e-15,75.24452921705617,0.2925634176385272,-0.024359519013253114,0.08510795028556807
751,-1.7283763431079695e-15,75.24452921705617,0.29289998203519063,-0.024233425725788574,0.08183860697261923
752,-1.7253676801206964e-15,75.24452921705617,0.29337136984392237,-0.024103223006938856,0.07764583798561189
753,-1.723492763867656e-15,75.24452921705617,0.29396854063541067,-0.023962886237679167,0.07243369174156235
754,-1.723057277408085e-15,75.24452921705617,0.2946685574965499,-0.02380790145925449,0.06621783924693633
755,-1.7238626273970541e-15,75.24452921705617,0.2954295510424678,-0.023638718191008816,0.059127308401725566
756,-1.725254196079787e-15,75.24452921705617,0.2961901161258093,-0.023462721844431357,0.051391421702606827
757,-1.7263975743727612e-15,75.24452921705617,0.2968736951927159,-0.023293750451970272,0.04331654905028329
758,-1.7265214724739035e-15,75.24452921705617,0.2973984172499398,-0.023149374751987133,0.03526159763508726
759,-1.7250451717997877e-15,75.24452921705617,0.29769114768268234,-0.023047315848203163,0.027618863467301843
760,-1.721682512534801e-15,75.24452921705617,0.2977011556999575,-0.0230025212982966,0.020800491885000702
761,-1.7164398193254478e-15,75.24452921705617,0.2974088093894949,-0.023025376072816694,0.015226168147896417
762,-1.709620994227414e-15,75.24452921705617,0.2968273959196711,-0.023120748015502447,0.011306638459838408
763,-1.7021095347282398e-15,75.24452921705617,0.29599831789224706,-0.02328774378691637,0.009421938692621652
764,-1.6955616291188763e-15,75.24452921705617,0.2949819061849384,-0.023520092251703203,0.009898451003354004
765,-1.6919008096450276e-15,75.24452921705617,0.2938475677341282,-0.02380675833341029,0.012988624258314277
766,-1.6924184235970413e-15,75.24452921705617,0.2926661631776791,-0.024132524663575596,0.018854268632380367
767,-1.697290006958216e-15,75.24452921705617,0.2915053052080576,-0.024478702569077887,0.02755350997788011
768,-1.7057052154494716e-15,75.24452921705617,0.29042695151053033,-0.024824145264185263,0.03903218999896149
769,-1.7162720203578987e-15,75.24452921705617,0.2894856549464381,-0.025146368401124903,0.05312115588405713
770,-1.7273786804750792e-15,75.24452921705617,0.2887250981740305,-0.0254226123129567,0.0695401765544492
771,-1.7374129329955749e-15,75.24452921705617,0.2881729895885215,-0.025631356639039864,0.0879073904162954
772,-1.7449531842001283e-15,75.24452921705617,0.28783826790288264,-0.025755054946750677,0.1077522769365092
773,-1.7490152684641192e-15,75.24452921705617,0.28771384583348697,-0.025783981440450094,0.1285300526476435
774,-1.7492123443131213e-15,75.24452921705617,0.28778278933998197,-0.025719755854840473,0.14963626730828142
775,-1.7457750393103246e-15,75.24452921705617,0.2880230257730644,-0.025576301205445406,0.1704245501349658
776,-1.739612461091032e-15,75.24452921705617,0.2884093250357076,-0.02537678542746525,0.19023449160807737
777,-1.732309973546895e-15,75.24452921705617,0.28891459910232614,-0.02514777355065411,0.20843237195175907
778,-1.7256858475187329e-15,75.24452921705617,0.28951020652650566,-0.024913819591598548,0.22445708585303709
779,-1.721039695712691e-15,75.24452921705617,0.29016372448019834,-0.024694639411830113,0.237859866509954
780,-1.7187313047390213e-15,75.24452921705617,0.29083629038010345,-0.024504505834235576,0.24833277920790595
781,-1.718384749917494e-15,75.24452921705617,0.2914837095518398,-0.02435236367372431,0.2557268611996328
782,-1.7193556249917891e-15,75.24452921705617,0.2920628935871211,-0.024241749096072948,0.2600596336013554
783,-1.7209823393210154e-15,75.24452921705617,0.2925408171118982,-0.02417088081829667,0.2615085312595478
784,-1.7225772205541158e-15,75.24452921705617,0.2929011057829717,-0.02413370707086622,0.2603869167471241
785,-1.7234180577666013e-15,75.24452921705617,0.293145501638965,-0.024121734225187146,0.25710353733516605
786,-1.7228888179838647e-15,75.24452921705617,0.29329058484910514,-0.02412588614773396,0.252113267726927
787,-1.7206727788142982e-15,75.24452921705617,0.29336182767401225,-0.024138165833789367,0.2458719187799083
788,-1.7168127351601385e-15,75.24452921705617,0.2933879398273696,-0.024152971115497336,0.23880601877136762
789,-1.7116587382888447e-15,75.24452921705617,0.293396981293862,-0.02416754758249993,0.23130014510702787
790,-1.7059178065396539e-15,75.24452921705617,0.29341343512443263,-0.02418155465958144,0.22369352431499837
791,-1.7007749947326264e-15,75.24452921705617,0.29345579461623866,-0.02419642228086336,0.21627238778766542
792,-1.6976863883396025e-15,75.24452921705617,0.2935349480875308,-0.024214924991992223,0.20925216336419095
793,-1.6977416622602758e-15,75.24452921705617,0.29365346414629945,-0.02424071569095395,0.20275711056664952
794,-1.7011675255331965e-15,75.24452921705617,0.29380588099764154,-0.024277375997678877,0.19680984989981792
795,-1.7073833533538569e-15,75.24452921705617,0.2939798942713739,-0.024326969697806004,0.19133733582726847
796,-1.7153126378352386e-15,75.24452921705617,0.2941584468502642,-0.02438861422403132,0.1861923253433048
797,-1.7236137326015169e-15,75.24452921705617,0.2943221892757442,-0.02445783563364962,0.18118493778077696
798,-1.7308956400794347e-15,75.24452921705617,0.2944507454597766,-0.024527252966071052,0.17611694651179866
799,-1.7360291124691456e-15,75.24452921705617,0.294523435195276,-0.02458826672816964,0.17081250812728044
800,-1.738460104664822e-15,75.24452921705617,0.29452276763379104,-0.024632832798970373,0.16514244958517343
801,-1.738391868026013e-15,75.24452921705617,0.2944405323539453,-0.024655021168044473,0.1590420228725662
802,-1.7367130387327332e-15,75.24452921705617,0.29428082113731946,-0.02465246097185595,0.15252186915084395
803,-1.7346098135730625e-15,75.24452921705617,0.2940563415976002,-0.02462690199822172,0.14566947565762198
804,-1.7331113286826465e-15,75.24452921705617,0.2937822840217269,-0.02458311849044399,0.13863854713134455
805,-1.7328504454032725e-15,75.24452921705617,0.29347450937601605,-0.024527190244440236,0.13162807221745737
806,-1.7339718408849841e-15,75.24452921705617,0.2931520840268307,-0.024465726597487508,0.12485519014838972
807,-1.73613620881015e-15,75.24452921705617,0.2928378050309305,-0.024405678610582387,0.11852510552206297
808,-1.7386954666115952e-15,75.24452921705617,0.2925532991363406,-0.0243534176916397,0.11280272127642786
809,-1.7408632794065644e-15,75.24452921705617,0.2923130996568972,-0.024313205399974967,0.10779186426274502
810,-1.7417069580006492e-15,75.24452921705617,0.29212380395864807,-0.024286274913465224,0.10352504640363556
811,-1.740187245003158e-15,75.24452921705617,0.29198811676791653,-0.024270985953486913,0.09996406994055372
812,-1.7355061524547484e-15,75.24452921705617,0.2919088363135226,-0.024263698725139324,0.09701081152561913
813,-1.7276380789522333e-15,75.24452921705617,0.29189013262015895,-0.024260115188793237,0.09452534955302867
814,-1.7176301300229452e-15,75.24452921705617,0.2919372095309779,-0.02425652621014923,0.09234674071662324
815,-1.7072706392286178e-15,75.24452921705617,0.2920560001516329,-0.024249944928356953,0.0903118919607849
816,-1.6982671027029607e-15,75.24452921705617,0.29225289823705336,-0.02423718945621294,0.08826943987806606
817,-1.6916628268263221e-15,75.24452921705617,0.29253312298821954,-0.024214347183795122,0.08608823422784302
818,-1.6878209389810817e-15,75.24452921705617,0.29289764990648237,-0.024177504812613985,0.08366294792900192
819,-1.686602947821613e-15,75.24452921705617,0.293340818100956,-0.024124071510204483,0.08091951600379474
820,-1.6875396971996882e-15,75.24452921705617,0.2938500469378099,-0.02405355785088787,0.07781893199181272
821,-1.690083566019155e-15,75.24452921705617,0.2944071331407819,-0.02396765958703298,0.07435445408107373
822,-1.6937819667358083e-15,75.24452921705617,0.2949895385287601,-0.0238702447483354,0.07054229184214549
823,-1.698201742407206e-15,75.24452921705617,0.29556989698904684,-0.023767099389529638,0.06641583071502113
824,-1.7028362388602691e-15,75.24452921705617,0.29611438935288764,-0.023664810938980728,0.0620337972078327
825,-1.7072656938894432e-15,75.24452921705617,0.296583971625489,-0.023569334277187316,0.05749954689407795
826,-1.7114684115943087e-15,75.24452921705617,0.2969399836311902,-0.023485471957160144,0.052977189155971244
827,-1.7159275342241104e-15,75.24452921705617,0.29714976462251874,-0.023417416107503895,0.048693731277184404
828,-1.7212456471508008e-15,75.24452921705617,0.2971883730577085,-0.02336943791651315,0.044929104782017844
829,-1.7274855182177094e-15,75.24452921705617,0.29703795792228715,-0.023346077291547168,0.042002996923531544
830,-1.7339354965283742e-15,75.24452921705617,0.29668805230336487,-0.023352051201117306,0.040263033476529896
831,-1.7395358897862004e-15,75.24452921705617,0.2961372951523471,-0.023392216680356234,0.04007088299733298
832,-1.743369780206185e-15,75.24452921705617,0.29539506737619337,-0.023471176383653113,0.04177975936631104
833,-1.7447564377373002e-15,75.24452921705617,0.29448242112894396,-0.023591964020416974,0.04569874308478537
834,-1.7432070044734996e-15,75.24452921705617,0.29343274086030385,-0.023754264254788476,0.052045012998901186
835,-1.7385852539650916e-15,75.24452921705617,0.29229206365340843,-0.023953362623834944,0.06089405407237812
836,-1.7313682933020793e-15,75.24452921705617,0.29111849676821144,-0.024180369159896936,0.07214482137656776
837,-1.7227188457499645e-15,75.24452921705617,0.28998013839904985,-0.024423161799292464,0.08551358430998275
838,-1.7142166806967873e-15,75.24452921705617,0.28895079945491303,-0.02466739953399988,0.1005568695114729
839,-1.7073673236309312e-15,75.24452921705617,0.288103155334987,-0.0248975433828845,0.11671276834253153
840,-1.7032170862145934e-15,75.24452921705617,0.28749998683963185,-0.02509805385854178,0.13334930408185172
841,-1.7021978243465074e-15,75.24452921705617,0.2871857381552255,-0.025254936397926378,0.1498121424731264
842,-1.7040950223399028e-15,75.24452921705617,0.2871812536018741,-0.025357794928582204,0.16546639674950736
843,-1.7081768679863918e-15,75.24452921705617,0.2874827049806293,-0.025402026237659206,0.1797324194025827
844,-1.713516622015166e-15,75.24452921705617,0.2880630441349027,-0.025390064895757243,0.19212118285454857
845,-1.71926038286645e-15,75.24452921705617,0.2888734504694644,-0.025330850910622933,0.20227226395515088
846,-1.7245764580750206e-15,75.24452921705617,0.2898445722605559,-0.02523782358115681,0.2099869379464459
847,-1.728445417010871e-15,75.24452921705617,0.2908913799971833,-0.025126283208899706,0.2152425742697602
848,-1.7297418882258686e-15,75.24452921705617,0.29192502857461794,-0.02501065069801674,0.21818018342224893
849,-1.727672700333227e-15,75.24452921705617,0.29286799241072103,-0.024902157037533235,0.21906795112721913
850,-1.7221574632923763e-15,75.24452921705617,0.29366385112223137,-0.024807714243854643,0.21825066326003187
851,-1.713939316003717e-15,75.24452921705617,0.29427834974208333,-0.024730054763428693,0.21609786475625542
852,-1.7045540378549349e-15,75.24452921705617,0.2946965330627081,-0.02466839298609802,0.21296305883341046
853,-1.6960947609827517e-15,75.24452921705617,0.29492064323988004,-0.02461922525880879,0.2091585352422019
854,-1.690624423440897e-15,75.24452921705617,0.2949679891594081,-0.024577607389788262,0.2049408197986526
855,-1.6895020695818605e-15,75.24452921705617,0.29486646428697144,-0.024538939086398988,0.2005021396830037
856,-1.6930226374695823e-15,75.24452921705617,0.2946482004676874,-0.024500472723824607,0.19596929513277586
857,-1.7004592598225453e-15,75.24452921705617,0.29434433783040626,-0.024461706816261104,0.19141002328316395
858,-1.7103704829814e-15,75.24452921705617,0.2939833345850031,-0.024423721280324114,0.18684226644652752
859,-1.7209591326054169e-15,75.24452921705617,0.29359240471135295,-0.024388292578280183,0.1822440416444374
860,-1.7303768658171182e-15,75.24452921705617,0.2931999298628588,-0.024357318643891332,0.17756695206917156
861,-1.7371193422721644e-15,75.24452921705617,0.29283623701772116,-0.02433245932989662,0.17275550496833333
862,-1.7405172115870586e-15,75.24452921705617,0.292530446860697,-0.024314858453857006,0.16776821452458238
863,-1.7408587080963931e-15,75.24452921705617,0.2923044282510062,-0.024304884895885732,0.16259320713235675
864,-1.7389260581492767e-15,75.24452921705617,0.2921683945429692,-0.024301867726559862,0.1572546603864094
865,-1.7355081947435058e-15,75.24452921705617,0.29212094407016775,-0.024304011382341423,0.15181202331504626
866,-1.7313054115706039e-15,75.24452921705617,0.2921517408620096,-0.0243086671350651,0.1463550791650875
867,-1.7269461708421967e-15,75.24452921705617,0.2922436025796331,-0.024312775674697966,0.14099512441087997
868,-1.7229001825932517e-15,75.24452921705617,0.29237378375876566,-0.024313145779384964,0.13585177679303564
869,-1.7194163227405796e-15,75.24452921705617,0.2925173367802274,-0.024306629495960252,0.13103864490849984
870,-1.7165479132599902e-15,75.24452921705617,0.2926534302382091,-0.024290539461665882,0.1266531100576675
871,-1.7141855614516352e-15,75.24452921705617,0.29277077297135556,-0.024263438751248253,0.12277030679348983
872,-1.7120074415012355e-15,75.24452921705617,0.2928684527159312,-0.024226197251731005,0.11943666111705123
873,-1.7094030251776402e-15,75.24452921705617,0.2929527104387293,-0.024182773477962344,0.11666203519947325
874,-1.7056856667884746e-15,75.24452921705617,0.293031678089793,-0.02413978394130399,0.11441442183705985
875,-1.7007189429864552e-15,75.24452921705617,0.2931101075428512,-0.024104633568503037,0.1126208075253784
876,-1.6953561951184132e-15,75.24452921705617,0.29318728939207184,-0.02408307623718448,0.11117664933960092
877,-1.6910541156963007e-15,75.24452921705617,0.2932591022888492,-0.02407743461045464,0.10996347643440403
878,-1.689026220553994e-15,75.24452921705617,0.2933206644607861,-0.024086385253196434,0.1088668928336888
879,-1.6897472105690474e-15,75.24452921705617,0.29336736411909614,-0.024106059763652713,0.10778471052556886
880,-1.6929451524378637e-15,75.24452921705617,0.2933962398648608,-0.024131268233898977,0.10662230415815988
881,-1.6977697027706716e-15,75.24452921705617,0.293408938556555,-0.024156269897512565,0.10528214860087962
882,-1.7030458631286236e-15,75.24452921705617,0.2934147265693561,-0.02417534066849853,0.1036593300918558
883,-1.7076378381288654e-15,75.24452921705617,0.2934318775001629,-0.024183176494439636,0.10165038696907876
884,-1.7107836665974754e-15,75.24452921705617,0.29348623720286793,-0.024175045772819165,0.09917116572319658
885,-1.7122491373634761e-15,75.24452921705617,0.29360645043937006,-0.024147015025054456,0.09617186490708024
886,-1.7123151307262873e-15,75.24452921705617,0.2938169357172476,-0.02409649667037753,0.09264070442582036
887,-1.7116755729346366e-15,75.24452921705617,0.2941303304312664,-0.02402282088472469,0.08859619558555812
888,-1.7112565569023063e-15,75.24452921705617,0.2945415821298377,-0.023927574950760977,0.08407538385549679
889,-1.7119069213977939e-15,75.24452921705617,0.29502685346257784,-0.02381492076061531,0.07912835583215845
890,-1.7140091340244374e-15,75.24452921705617,0.29554830747746413,-0.02369186283184852,0.0738252071414757
891,-1.7172915195701024e-15,75.24452921705617,0.2960612999065984,-0.023567890065543832,0.06827357249432908
892,-1.7210839866329908e-15,75.24452921705617,0.296519620724011,-0.023453821116565684,0.06263889686467125
893,-1.7248193075933595e-15,75.24452921705617,0.29687786475391464,-0.023360383121795926,0.057157450044983515
894,-1.7283010146088732e-15,75.24452921705617,0.29709285877996766,-0.02329701039554189,0.05213409703326595
895,-1.7315438203681803e-15,75.24452921705617,0.29712598384121974,-0.023271124376711617,0.04792375628455402
896,-1.7344379381518813e-15,75.24452921705617,0.2969466234669696,-0.023287873730675562,0.04490253558995176
897,-1.7365362295728108e-15,75.24452921705617,0.29653592293597625,-0.023349926061551042,0.043435225659329356
898,-1.737055337526358e-15,75.24452921705617,0.29589011917810853,-0.023457156710962074,0.043842106590211954
899,-1.7351280051875476e-15,75.24452921705617,0.29502280282320026,-0.02360653410968882,0.046367969065649474
900,-1.7302823613899143e-15,75.24452921705617,0.29396542210043547,-0.023792372791941102,0.05115936636317021
901,-1.7228193956742268e-15,75.24452921705617,0.29276600347533405,-0.024006953717722622,0.058254380254269884
902,-1.7137317055556127e-15,75.24452921705617,0.29148665727025164,-0.02424145447319558,0.0675832283221841
903,-1.7042949096927235e-15,75.24452921705617,0.29020009321074597,-0.0244868113988021,0.07897480861308462
904,-1.695688002136205e-15,75.24452921705617,0.28898500947396644,-0.024733961622965935,0.09216543951213482
905,-1.6887939795327796e-15,75.24452921705617,0.28792057089941053,-0.024973308475741654,0.10680922794457665
906,-1.684192164205662e-15,75.24452921705617,0.2870809817957952,-0.02519395094083575,0.1224913691478948
907,-1.6821960977093752e-15,75.24452921705617,0.28653092033165123,-0.025383638174935674,0.1387442894130812
908,-1.682769569204397e-15,75.24452921705617,0.2863207896887237,-0.025530044773610622,0.15506495251684296
909,-1.6854758323606328e-15,75.24452921705617,0.286479995070938,-0.02562302411870195,0.1709335749431293
910,-1.6896650473419434e-15,75.24452921705617,0.28700851269355193,-0.025656862807405405,0.18583668803190495
911,-1.6947577181057588e-15,75.24452921705617,0.28786973040424235,-0.025631611835740253,0.19929592421977405
912,-1.7003926425626402e-15,75.24452921705617,0.28898878658911187,-0.02555302613316427,0.2108997527362471
913,-1.7064177432650164e-15,75.24452921705617,0.2902601970557146,-0.025431358304495114,0.22033283338837384
914,-1.712802273775871e-15,75.24452921705617,0.2915642291068281,-0.025279864803817602,0.22739612763415182
915,-1.7195173255674508e-15,75.24452921705617,0.2927847411665667,-0.02511347183439434,0.23201217745219213
916,-1.7264103786110127e-15,75.24452921705617,0.2938220587854125,-0.024946964607944867,0.2342179035810916
917,-1.7331002335877249e-15,75.24452921705617,0.2946021143168541,-0.024792356742010108,0.23415433891986456
918,-1.7389410833160735e-15,75.24452921705617,0.29508437902243295,-0.024656771356905544,0.2320583502850106
919,-1.7431375553250667e-15,75.24452921705617,0.29526678632930675,-0.024542411325167414,0.22825141638479007
920,-1.7449944407474394e-15,75.24452921705617,0.2951847815289524,-0.024448375959507603,0.22311741254484618
921,-1.744079105513386e-15,75.24452921705617,0.29490300435234584,-0.02437276012660541,0.21706638029395917
922,-1.740170675313909e-15,75.24452921705617,0.2945001641810864,-0.024313960660250343,0.21048950465016797
923,-1.7332422542285575e-15,75.24452921705617,0.2940513838721248,-0.024271056459774985,0.20371805407551608
924,-1.7237044537494138e-15,75.24452921705617,0.29361497116985447,-0.02424333644654118,0.19699980804636133
925,-1.712712824555102e-15,75.24452921705617,0.2932284736270107,-0.024229314774032874,0.19049751854657815
926,-1.7021461519697628e-15,75.24452921705617,0.29291271059801954,-0.02422624327692101,0.1843029589157489
927,-1.6940803028937969e-15,75.24452921705617,0.2926777351174968,-0.024230682516815448,0.1784559414539101
928,-1.6900300016127425e-15,75.24452921705617,0.2925258668822748,-0.024239398698631728,0.17296020798529135
929,-1.6904494608080647e-15,75.24452921705617,0.2924523162654336,-0.02424984086514687,0.16779402580305908
930,-1.694617777022339e-15,75.24452921705617,0.2924465373284879,-0.02426025828274947,0.1629187728581441
931,-1.7007648295851358e-15,75.24452921705617,0.29249436707900234,-0.0242695647017898,0.15828811698917
932,-1.7065196580191165e-15,75.24452921705617,0.29257878531047615,-0.02427696053250703,0.1538551964100428
933,-1.7097129884156492e-15,75.24452921705617,0.2926797733854241,-0.02428165253763055,0.14957463769649876
934,-1.7091136401108573e-15,75.24452921705617,0.2927760809032386,-0.024282930681253964,0.14540147118988858
935,-1.7046481226572613e-15,75.24452921705617,0.2928501886577626,-0.02428038571943009,0.14129178041601612
936,-1.6971862888753265e-15,75.24452921705617,0.2928940611129228,-0.02427408678123333,0.13720727593765056
937,-1.6882534659096074e-15,75.24452921705617,0.29291081202352776,-0.024264780630508416,0.13312240760936353
938,-1.67975710556733e-15,75.24452921705617,0.292910198266155,-0.024253912106452218,0.12903144118240958
939,-1.6736245410576078e-15,75.24452921705617,0.2929022308843164,-0.024243249276824166,0.12495378661104846
940,-1.6713084516836315e-15,75.24452921705617,0.2928943395270367,-0.024234378099376123,0.12093634281933814
941,-1.6733144537081312e-15,75.24452921705617,0.29289177879891837,-0.02422828957586686,0.1170508401385884
942,-1.679170064862546e-15,75.24452921705617,0.2928982144909029,-0.02422507277791392,0.11338516462188
943,-1.6879408918996558e-15,75.24452921705617,0.292916214169635,-0.024223976393471933,0.11003073615460934
944,-1.6987145662766534e-15,75.24452921705617,0.29294808287803303,-0.024223998596220916,0.1070686825444846
945,-1.7106084272725577e-15,75.24452921705617,0.29299598795260934,-0.024224696602844237,0.10455618511818825
946,-1.7225522381132673e-15,75.24452921705617,0.2930607602819571,-0.024226730776313928,0.10251525097583594
947,-1.7331880291436089e-15,75.24452921705617,0.2931403232247052,-0.02423164018702358,0.10092747166093102
948,-1.7409408820064828e-15,75.24452921705617,0.29322963611350344,-0.02424070771399525,0.09973590723670644
949,-1.7443419249188813e-15,75.24452921705617,0.2933230032374805,-0.02425353633158036,0.09885137889035926
950,-1.7426539967075106e-15,75.24452921705617,0.29341752253090514,-0.02426710468615068,0.09815987824637563
951,-1.7364440048800805e-15,75.24452921705617,0.2935160074102006,-0.02427557687994422,0.09752994882105818
952,-1.727518365741901e-15,75.24452921705617,0.29362830534573436,-0.024270934936757978,0.09681999429768313
953,-1.7181317240281402e-15,75.24452921705617,0.29377018320308784,-0.024244424880463654,0.09588481741475616
954,-1.7101457353380543e-15,75.24452921705617,0.2939594154250398,-0.02418846667990196,0.09458143665530251
955,-1.7047400523022923e-15,75.24452921705617,0.29420983033702086,-0.024098554228484562,0.09277747047874657
956,-1.7024973548133873e-15,75.24452921705617,0.2945251782858586,-0.02397480829925733,0.09036599642294721
957,-1.7034011036085135e-15,75.24452921705617,0.29489496399178794,-0.023822760529820724,0.08728556830015258
958,-1.7066748496282092e-15,75.24452921705617,0.2952938523302068,-0.02365301724068849,0.08353935419650792
959,-1.7107851407036492e-15,75.24452921705617,0.2956851374388286,-0.02348004950609104,0.0792089239663371
960,-1.7138776731367971e-15,75.24452921705617,0.296027093579499,-0.02332056127508839,0.07446202286880117
961,-1.7144640486283866e-15,75.24452921705617,0.29627933561696856,-0.023191435746614527,0.06955433735020378
962,-1.711908834406736e-15,75.24452921705617,0.2964063907275543,-0.02310744871632981,0.06482313791234391
963,-1.7065661680637858e-15,75.24452921705617,0.29637877851190664,-0.023079497354374392,0.06066870436991561
964,-1.6997023336393693e-15,75.24452921705617,0.2961745757475018,-0.02311357658526201,0.057522240703256164
965,-1.6930986362993725e-15,75.24452921705617,0.29578250995097793,-0.02321015407728264,0.055807540806597514
966,-1.6882624903939643e-15,75.24452921705617,0.2952045439426772,-0.02336410624322025,0.05590728093411675
967,-1.6858273969493071e-15,75.24452921705617,0.29445670609196095,-0.023565637904921367,0.05813603788415819
968,-1.6856775436726986e-15,75.24452921705617,0.29356906988698,-0.023801976839155845,0.06271355017648075
969,-1.6874608759501122e-15,75.24452921705617,0.29258560394762867,-0.02405918457021833,0.06973606261278803
970,-1.6908969308457191e-15,75.24452921705617,0.29156299010433784,-0.02432361558580518,0.07915244417752755
971,-1.6957194784388371e-15,75.24452921705617,0.29056664915827674,-0.024582894247760313,0.09075285334783004
972,-1.7014473198954217e-15,75.24452921705617,0.2896635509217384,-0.024826391099772666,0.10417341953237265
973,-1.7073606505251728e-15,75.24452921705617,0.2889140540307516,-0.025045260329658044,0.11891797382762123
974,-1.7128247794872108e-15,75.24452921705617,0.28836560441298426,-0.02523222308594276,0.13439730898163596
975,-1.717532977160484e-15,75.24452921705617,0.28804887804899276,-0.02538131116255112,0.1499828916448412
976,-1.7213680517207537e-15,75.24452921705617,0.2879757699219433,-0.025487804591104748,0.16506428752594565
977,-1.7242417594055111e-15,75.24452921705617,0.28813938206757755,-0.025548557438139354,0.17909520215206026
978,-1.7261591407307544e-15,75.24452921705617,0.2885155257800829,-0.025562724119980066,0.19161913873606798
979,-1.7272407186333217e-15,75.24452921705617,0.28906430128105304,-0.025532508626316588,0.20227793624517404
980,-1.7275774036378317e-15,75.24452921705617,0.2897325010398347,-0.025463207211753835,0.21081439762386714
981,-1.7271012988394726e-15,75.24452921705617,0.2904597736924349,-0.025362311730396395,0.21707832498101293
982,-1.7255663692682903e-15,75.24452921705617,0.2911880336349836,-0.02523837597222679,0.22103570846270507
983,-1.722605663863562e-15,75.24452921705617,0.29186874578346805,-0.025100305840297533,0.22277234145281918
984,-1.7178453824397854e-15,75.24452921705617,0.2924654220919316,-0.024957024651063347,0.22248423816100213
985,-1.711091647749688e-15,75.24452921705617,0.2929546481373582,-0.024817083177693443,0.2204549417475808
986,-1.7026262872919578e-15,75.24452921705617,0.2933279770525825,-0.024687767126620467,0.21702442178691564
987,-1.6934936220325626e-15,75.24452921705617,0.29359184216829914,-0.0245739322407948,0.21255421091208826
988,-1.685374187366704e-15,75.24452921705617,0.29376229817223154,-0.02447754322968734,0.20739345006280613
989,-1.6798846328359411e-15,75.24452921705617,0.2938567378196056,-0.024398229980367767,0.20185153631756406
990,-1.677865654178486e-15,75.24452921705617,0.2938882271967536,-0.02433432782848175,0.1961819298689355
991,-1.679224619374708e-15,75.24452921705617,0.29386476868595685,-0.02428401220296409,0.1905767780977222
992,-1.6831872557115511e-15,75.24452921705617,0.29379130676170784,-0.024245890249929868,0.18516802002820643
993,-1.6885977585770723e-15,75.24452921705617,0.29367227448482397,-0.024218452488659906,0.18003260890927342
994,-1.6942288975924327e-15,75.24452921705617,0.2935140039707818,-0.024199314279745872,0.17520347573162667
995,-1.6991220288483525e-15,75.24452921705617,0.29332712947811085,-0.02418560246229321,0.17068630507782384
996,-1.7027527313310811e-15,75.24452921705617,0.2931288243567641,-0.02417505782073414,0.16647560208472204
997,-1.7048797181911308e-15,75.24452921705617,0.2929425884718175,-0.024166543855541536,0.1625608196343604
998,-1.7052984957492589e-15,75.24452921705617,0.29279325385183574,-0.024159771477695383,0.15891968262360306
999,-1.7038278750845015e-15,75.24452921705617,0.2926992872181691,-0.024154889272120568,0.1555050491112007
1000,-1.700565497559189e-15,75.24452921705617,0.29266792699776645,-0.024152305577206254,0.15223593775912161
1001,-1.6961637530102144e-15,75.24452921705617,0.2926964429851538,-0.02415277923071889,0.14900178484734183
1002,-1.6918584252337966e-15,75.24452921705617,0.2927771666830763,-0.02415765503782828,0.1456828786478363
1003,-1.6891244545459245e-15,75.24452921705617,0.29290097052530967,-0.02416865559085828,0.14218082089570447
1004,-1.6890984250540571e-15,75.24452921705617,0.2930568711886776,-0.024186675944543462,0.13844569525756475
1005,-1.6921470618258158e-15,75.24452921705617,0.2932306430683669,-0.024210403224128048,0.1344876136828706
1006,-1.6977942635304643e-15,75.24452921705617,0.29340593153355987,-0.024236535067611725,0.13036900415508465
1007,-1.704916552045415e-15,75.24452921705617,0.2935670811607043,-0.02426183742576324,0.12618351367599023
1008,-1.7120754271014182e-15,75.24452921705617,0.2937006058555872,-0.024284784350525456,0.12203315177791631
1009,-1.7178481930175046e-15,75.24452921705617,0.2937949936956684,-0.024304753334254494,0.11801419260870476
1010,-1.7210646557734877e-15,75.24452921705617,0.29384112329389733,-0.02432005797765467,0.11421281740444493
1011,-1.7210642220646977e-15,75.24452921705617,0.29383390234637,-0.02432771729421507,0.11070223973315062
1012,-1.7180622994232008e-15,75.24452921705617,0.29377331886435165,-0.02432533776392403,0.10753544324199402
1013,-1.7133191827701467e-15,75.24452921705617,0.29366396639680253,-0.024312955542524686,0.10473750183078931
1014,-1.7087090793816566e-15,75.24452921705617,0.2935144838554911,-0.024293191924515244,0.10230453566501328
1015,-1.7058684866701577e-15,75.24452921705617,0.29333824801911645,-0.02426974122934453,0.10021043374832847
1016,-1.7055416688591363e-15,75.24452921705617,0.29315404158743996,-0.024245232186220107,0.09841779297788558
1017,-1.7074898466473965e-15,75.24452921705617,0.2929846773511892,-0.024219661357510403,0.09688881599616708
1018,-1.7108854935363819e-15,75.24452921705617,0.2928539827038255,-0.02419012050604943,0.0955904650935965
1019,-1.7147873059828563e-15,75.24452921705617,0.29278371472062104,-0.02415203061810126,0.09448924987860073
1020,-1.7182743853545701e-15,75.24452921705617,0.29279096533287646,-0.024101292157184522,0.09353846269729181
1021,-1.7203333180956877e-15,75.24452921705617,0.292886307194474,-0.02403584298626637,0.09266659816164209
1022,-1.7199598245135756e-15,75.24452921705617,0.2930723550861086,-0.023955831206988267,0.09177340195594397
1023,-1.716519540811909e-15,75.24452921705617,0.2933419234998636,-0.023863186468939084,0.09073502918323163
1024,-1.7100158524239286e-15,75.24452921705617,0.2936770682325387,-0.023761314964052257,0.08941784358778242
1025,-1.7011657199409877e-15,75.24452921705617,0.2940513008499142,-0.023654949530437036,0.0876997661238151
1026,-1.6913256998861812e-15,75.24452921705617,0.2944343575248187,-0.023550286313648465,0.08549709942614261
1027,-1.682169189816293e-15,75.24452921705617,0.2947966416676607,-0.023455107952387016,0.08279250845397321
1028,-1.6752034014280937e-15,75.24452921705617,0.2951112192242365,-0.023377919531016752,0.07965610714678059
1029,-1.6713837737358424e-15,75.24452921705617,0.29535303473646757,-0.02332607649881246,0.07625211403948898
1030,-1.6709660295941988e-15,75.24452921705617,0.2954972293229057,-0.02330439726301471,0.0728308532133722
1031,-1.6736654676764858e-15,75.24452921705617,0.29551982924913905,-0.023315446650767038,0.06971128951350053
1032,-1.6789518049280814e-15,75.24452921705617,0.2954018546782378,-0.023360845000478667,0.06725779973453704
1033,-1.6860903320166745e-15,75.24452921705617,0.2951341103444059,-0.023441887028746458,0.06585196636419986
1034,-1.6939677858928083e-15,75.24452921705617,0.2947195126720808,-0.023558689760350242,0.06585976192316692
1035,-1.7011751509920153e-15,75.24452921705617,0.29417242157336876,-0.023708851111453853,0.06759637477556481
1036,-1.7064866314961026e-15,75.24452921705617,0.293516638860228,-0.023887133889339433,0.07129354535406013
1037,-1.7094027771595204e-15,75.24452921705617,0.2927841875230435,-0.0240864829584703,0.07707422210049499
1038,-1.7103722110663893e-15,75.24452921705617,0.2920154279482738,-0.02429912831651541,0.0849364608222509
1039,-1.7104591766309584e-15,75.24452921705617,0.2912584416012854,-0.024516491192895007,0.09474657942288484
1040,-1.7106615584865623e-15,75.24452921705617,0.2905652152325151,-0.02472829298673121,0.10624117243948172
1041,-1.7114767015676419e-15,75.24452921705617,0.28998533534482007,-0.024922491684318246,0.11903705425753994
1042,-1.7129048143408458e-15,75.24452921705617,0.2895601669101491,-0.02508684664761226,0.13264924089896743
1043,-1.7145443543904326e-15,75.24452921705617,0.28931848544228206,-0.025211277503794663,0.14651976373100145
1044,-1.715675454521867e-15,75.24452921705617,0.28927264621918397,-0.02528962787182716,0.16005893935721716
1045,-1.7154791674853634e-15,75.24452921705617,0.28941602563561025,-0.025320282713656744,0.17269452985186456
1046,-1.7132795442724277e-15,75.24452921705617,0.2897237618842972,-0.025306147322616955,0.18392012933073112
1047,-1.7086967525741387e-15,75.24452921705617,0.2901569524682605,-0.02525429628880186,0.19333521873432127
1048,-1.7018612494418988e-15,75.24452921705617,0.29066863583137753,-0.025174787665346754,0.20067156771186725
1049,-1.6936024851352036e-15,75.24452921705617,0.2912103491621938,-0.025078756448643276,0.20580341277522446
1050,-1.685285090308136e-15,75.24452921705617,0.29173813026801576,-0.024976791279254482,0.2087435058932974
1051,-1.67835455056007e-15,75.24452921705617,0.2922164317488395,-0.024877660335315594,0.20962933873320083
1052,-1.6739169839897559e-15,75.24452921705617,0.2926200677809128,-0.024786865987452698,0.2087010016618201
1053,-1.6725063298553254e-15,75.24452921705617,0.2929351270394579,-0.024705816749658594,0.20627005521577965
1054,-1.6740866427394169e-15,75.24452921705617,0.293158338794656,-0.02463274428050507,0.2026822261480729
1055,-1.6782209412506105e-15,75.24452921705617,0.29329472364325043,-0.024564886483469873,0.1982814087946461
1056,-1.684223142941357e-15,75.24452921705617,0.29335516383818355,-0.024500496388417992,0.19338149806915209
1057,-1.6912452707892876e-15,75.24452921705617,0.29335494439663395,-0.024439698660432076,0.18824694055208033
1058,-1.698390147098293e-15,75.24452921705617,0.2933119730959564,-0.02438394512148859,0.18307975431277348
1059,-1.7048293675839145e-15,75.24452921705617,0.29324362524174447,-0.02433464104908745,0.17801317349124426
1060,-1.7098196834250042e-15,75.24452921705617,0.2931641137563286,-0.024292164914066956,0.1731149019574611
1061,-1.7127338750372025e-15,75.24452921705617,0.29308438667041187,-0.02425606925527785,0.16840023171753732
1062,-1.7133189002671383e-15,75.24452921705617,0.293013261814149,-0.024226033467329395,0.16385013055367537
1063,-1.7119639573065906e-15,75.24452921705617,0.292957516487574,-0.02420246335774334,0.1594295417201725
1064,-1.7095019888249817e-15,75.24452921705617,0.292920809615772,-0.02418614182355041,0.15510490652220674
1065,-1.7066296043363285e-15,75.24452921705617,0.29290294472209555,-0.024177520196721577,0.1508601035650699
1066,-1.703597263946304e-15,75.24452921705617,0.29290090945819053,-0.024176637986185964,0.14670764199364233
1067,-1.7004357838723687e-15,75.24452921705617,0.29291162833007917,-0.024183519073057845,0.14269218930947747
1068,-1.6973091977037004e-15,75.24452921705617,0.29293417892509493,-0.024197964195068512,0.13888571257049645
1069,-1.6945807336630635e-15,75.24452921705617,0.2929695203901776,-0.024218593461677724,0.1353754047233631
1070,-1.6926162381115358e-15,75.24452921705617,0.2930190075638109,-0.024242345016947556,0.13224682027373605
1071,-1.69164314671114e-15,75.24452921705617,0.2930837300815973,-0.024265271237938476,0.12956496320214003
1072,-1.6918313497233578e-15,75.24452921705617,0.29316358218536476,-0.024283971561730233,0.12735691897380824
1073,-1.6933418767918872e-15,75.24452921705617,0.2932542179630606,-0.02429655072393871,0.12560152320357593
1074,-1.6960993688515349e-15,75.24452921705617,0.2933442493328362,-0.02430287217661381,0.12423082440732706
1075,-1.6995909101107471e-15,75.24452921705617,0.29341722612201493,-0.024304428529158387,0.1231431046837274
1076,-1.7031077228562857e-15,75.24452921705617,0.29345802211237954,-0.024303775593721592,0.1222220546939426
1077,-1.7061565555098973e-15,75.24452921705617,0.2934580738138476,-0.02430330127544769,0.12135533206595109
1078,-1.7084996021285275e-15,75.24452921705617,0.2934162735818226,-0.024303894245603943,0.12044783666712539
1079,-1.709958885916294e-15,75.24452921705617,0.2933378989578793,-0.024304679831121702,0.1194282129697208
1080,-1.710400815391529e-15,75.24452921705617,0.2932343501395965,-0.024304093214361094,0.11824942493744775
1081,-1.709792075725636e-15,75.24452921705617,0.29312242432930047,-0.024301208013697267,0.11688505771095117
1082,-1.7080638972285398e-15,75.24452921705617,0.29302080751766285,-0.0242961104057332,0.11532293649532156
1083,-1.7049146569929033e-15,75.24452921705617,0.2929451129420319,-0.02428912356200517,0.11355796306612632
1084,-1.6998414092245911e-15,75.24452921705617,0.29290509800859765,-0.024279723225463783,0.11158737868587885
1085,-1.6925469194746774e-15,75.24452921705617,0.2929052486518533,-0.024266068403100104,0.10941183960245145
1086,-1.6835443530820109e-15,75.24452921705617,0.2929465333343384,-0.024245244892608632,0.10704144050982443
1087,-1.6743557831036898e-15,75.24452921705617,0.29302751663945414,-0.024213799802011816,0.10450006650116932
1088,-1.6669619714780656e-15,75.24452921705617,0.29314570993929373,-0.024168432440846783,0.10182178033178454
1089,-1.6630333408167045e-15,75.24452921705617,0.29329971343291816,-0.024106804666951243,0.09903939382780012
1090,-1.6635150392280382e-15,75.24452921705617,0.29349008582681807,-0.024028009957175665,0.09617090754771422
1091,-1.6684818856567868e-15,75.24452921705617,0.29371760574242606,-0.023932312531281818,0.09321079044816824
1092,-1.6771254515651238e-15,75.24452921705617,0.29398087471271694,-0.023820688073775974,0.0901307363819012
1093,-1.6879538139771695e-15,75.24452921705617,0.29427504839660606,-0.0236952639793464,0.08689021118130999
1094,-1.6991287331733065e-15,75.24452921705617,0.294590229649594,-0.023560783756350883,0.08345423486998876
1095,-1.7088176286291063e-15,75.24452921705617,0.2949081025599491,-0.023425767618717414,0.07981607379183485
1096,-1.715560196112474e-15,75.24452921705617,0.29519972382484966,-0.023302240189037374,0.07602252825315171
1097,-1.7185725419950182e-15,75.24452921705617,0.2954287757700473,-0.023204265563140588,0.07219651075993881
1098,-1.7178675674373965e-15,75.24452921705617,0.29555922071868007,-0.023145912543569958,0.06854882173283441
1099,-1.7141849196231502e-15,75.24452921705617,0.29556190010527894,-0.023138702072638767,0.06537313878083985
1100,-1.708746954642902e-15,75.24452921705617,0.2954176672232833,-0.023188895286598055,0.06302464344289284
1101,-1.702899351010505e-15,75.24452921705617,0.29511866517467517,-0.023296133832741275,0.06188852305558531
1102,-1.6978406892999552e-15,75.24452921705617,0.2946684866492162,-0.02345460306785947,0.06234581270267446
1103,-1.6945045421619198e-15,75.24452921705617,0.29408077780915953,-0.023655719618133196,0.06474027383912703
1104,-1.6933786627764488e-15,75.24452921705617,0.293377202924169,-0.023890209022186415,0.06934502419806769
1105,-1.6942813550564952e-15,75.24452921705617,0.29258653552918695,-0.024148634905438844,0.07632729889823346
1106,-1.696459314373014e-15,75.24452921705617,0.29174576970162514,-0.024420972675694104,0.08571451789430866
1107,-1.6990336888799564e-15,75.24452921705617,0.29090200635730795,-0.024696052362087,0.09736828390135155
1108,-1.7013401002668883e-15,75.24452921705617,0.2901119809647327,-0.024961236922801475,0.11097224621726236
1109,-1.702899942791283e-15,75.24452921705617,0.28943687531902057,-0.025202528271041913,0.1260389257768225
1110,-1.7032580590801935e-15,75.24452921705617,0.28893306411085384,-0.02540532561509386,0.1419404491909023
1111,-1.7019996360466955e-15,75.24452921705617,0.28864229745876996,-0.02555595246444783,0.15796356126418348
1112,-1.698917386012252e-15,75.24452921705617,0.28858519617001954,-0.025643851219258818,0.1733791538603495
1113,-1.6941134714952292e-15,75.24452921705617,0.2887594092705857,-0.025663933450400994,0.1875100244633833
1114,-1.6880093355754517e-15,75.24452921705617,0.2891412525284764,-0.025617972267878125,0.1997847587511625
1115,-1.6813019707961657e-15,75.24452921705617,0.2896893522085103,-0.025514131534047715,0.2097736836852727
1116,-1.6748202789681692e-15,75.24452921705617,0.29034986082446174,-0.025365239101140274,0.2172072367203507
1117,-1.6693709595035499e-15,75.24452921705617,0.2910631386181184,-0.02518723055584503,0.22198028258973765
1118,-1.6656604263807642e-15,75.24452921705617,0.29177077962783055,-0.024997882040028854,0.2241472281705256
1119,-1.664238890232512e-15,75.24452921705617,0.29242142962464046,-0.024814760423041635,0.2239078029595462
1120,-1.665478418375266e-15,75.24452921705617,0.2929751096771657,-0.024652358341070393,0.2215790955861271
1121,-1.669525523434533e-15,75.24452921705617,0.2934063361669641,-0.024519835779832667,0.21755436610186407
1122,-1.6761166684061711e-15,75.24452921705617,0.2937048760780641,-0.02442033489320808,0.2122563687101766
1123,-1.6844632652923832e-15,75.24452921705617,0.2938731626869913,-0.024351547030593064,0.20609385822298515
