,time,sample_rate,Red,Green,Blue
0,0.04160550346469703,74.97680931630819,15.28812092927468,0.0626068400932216,2.4103435305918093
1,0.04160542503269368,74.97680931630819,15.283213485550984,0.062389739314519924,2.3043102910486266
2,0.041605347651813715,74.97680931630819,15.27765092160251,0.062188933958395864,2.199220865760142
3,0.04160527148903375,74.97680931630819,15.271279411985713,0.06201807652635552,2.096301717422649
4,0.04160519659023022,74.97680931630819,15.26396022767189,0.061884628620777524,1.9966987134735406
5,0.04160512289826109,74.97680931630819,15.255698483664135,0.061789490596061765,1.9015166189832517
6,0.04160505027880632,74.97680931630819,15.246701286890408,0.06172769595611968,1.811862240660373
7,0.04160497854868949,74.97680931630819,15.237319226695908,0.06168989097412564,1.7288541037781044
8,0.04160490750264571,74.97680931630819,15.228014864796855,0.06166465523347176,1.653607288098474
9,0.04160483693593631,74.97680931630819,15.219456622174224,0.06164155586239804,1.5872066806069285
10,0.041604766661457425,74.97680931630819,15.212630775291444,0.06161420042199678,1.5306492079611351
11,0.04160469652099745,74.97680931630819,15.20877902261227,0.06158188381339707,1.4847301955606165
12,0.041604626391028486,74.97680931630819,15.209112964478585,0.06154910130314154,1.4498902707625083
13,0.0416045561838853,74.97680931630819,15.214438257267531,0.06152369409017901,1.4260731536655098
14,0.04160448584542419,74.97680931630819,15.224859610053619,0.06151475561710365,1.4126406635516844
15,0.04160441535031038,74.97680931630819,15.239668483413933,0.061530712686985824,1.4083739498792374
16,0.041604344696004526,74.97680931630819,15.257431772573337,0.06157741084734829,1.411572052204506
17,0.04160427389635579,74.97680931630819,15.27624398061935,0.06165608566640348,1.4202345096889835
18,0.04160420297549967,74.97680931630819,15.294077695493392,0.06176175336492836,1.4322918457473968
19,0.04160413196254014,74.97680931630819,15.30915292117922,0.06188304697142078,1.44583668245855
20,0.041604060887290316,74.97680931630819,15.320241213358857,0.06200418955258115,1.459309201298979
21,0.04160398977717058,74.97680931630819,15.326829449039929,0.062108881931983086,1.471602554776862
22,0.041603918655227445,74.97680931630819,15.32910165486207,0.062184640894102396,1.4820766349497339
23,0.041603847539141335,74.97680931630819,15.327760649050191,0.06222549302960677,1.4904982649229355
24,0.041603776441035564,74.97680931630819,15.323769743690027,0.062232093613893695,1.4969472023629216
25,0.0416037053678761,74.97680931630819,15.318099225276129,0.062210014598088566,1.501723422576392
26,0.041603634322255445,74.97680931630819,15.311520692749516,0.06216731721854138,1.505270252566777
27,0.04160356330337593,74.97680931630819,15.304461381120094,0.062112195997989804,1.5081158330384106
28,0.041603492308081386,74.97680931630819,15.296928290972582,0.062051315709121674,1.5108369489273306
29,0.041603421331824195,74.97680931630819,15.288517971016697,0.06198909592293485,1.5140505049567163
30,0.041603350369493225,74.97680931630819,15.278536347973272,0.06192775628874757,1.518436934054573
31,0.04160327941606244,74.97680931630819,15.266237467267846,0.06186792034963541,1.524797749296893
32,0.0416032084670487,74.97680931630819,15.251126962088543,0.06180959944402006,1.534134562506503
33,0.04160313751878865,74.97680931630819,15.233224609993822,0.061753186462950235,1.547713171690074
34,0.041603066568559305,74.97680931630819,15.21320982698058,0.06170007148050383,1.5670717636119857
35,0.041602995614574916,74.97680931630819,15.192457425728195,0.061652802954858005,1.593953205970085
36,0.041602924655895164,74.97680931630819,15.173011478838447,0.06161509756938758,1.630160239008768
37,0.04160285369227864,74.97680931630819,15.157499763973984,0.06159199509912408,1.6773375110693411
38,0.04160278272401092,74.97680931630819,15.148930857408462,0.06159007203038204,1.7366921101540556
39,0.04160271175173092,74.97680931630819,15.150320870416362,0.06161731563482522,1.8086796783167003
40,0.04160264077627255,74.97680931630819,15.164161099420324,0.061682141065322924,1.8926998938166748
41,0.04160256979853247,74.97680931630819,15.191800896974248,0.06179103480344197,1.9868609838005982
42,0.04160249881936926,74.97680931630819,15.232860977038673,0.061944699577934234,2.087880908447921
43,0.04160242783953471,74.97680931630819,15.284849382605715,0.06213408808555146,2.1911841080894954
44,0.0416023568596347,74.97680931630819,15.343201695424462,0.06233943041796268,2.291226961812182
45,0.04160228588011512,74.97680931630819,15.40188719209321,0.0625341547633803,2.382041157559799
46,0.041602214901267115,74.97680931630819,15.454474960355126,0.0626918269259429,2.4579195578524855
47,0.0416021439232455,74.97680931630819,15.495316959104068,0.06279256882395509,2.514110179315244
48,0.04160207294609516,74.97680931630819,15.520493413199466,0.06282700386406333,2.5473784392599366
49,0.0416020019697804,74.97680931630819,15.528325983742727,0.06279725320594333,2.5563444947649048
50,0.0416019309942138,74.97680931630819,15.519389696519424,0.06271471015191404,2.5415542085682175
51,0.04160186001928177,74.97680931630819,15.496056228728595,0.06259524580444802,2.505292342212789
52,0.04160178904486544,74.97680931630819,15.461766138927892,0.062454236267959644,2.4512088511294996
53,0.04160171807085612,74.97680931630819,15.42033096255861,0.06230386670190405,2.3838676844647253
54,0.04160164709716549,74.97680931630819,15.37547747092042,0.062153107689223615,2.308306309237203
55,0.041601576123730846,74.97680931630819,15.330643982365718,0.06200894586989241,2.2296403159738003
56,0.04160150515051654,74.97680931630819,15.288905761856435,0.061877444808309326,2.1527135518415395
57,0.04160143417751237,74.97680931630819,15.25292257597798,0.06176418571289579,2.081792928051551
58,0.041601363204729985,74.97680931630819,15.224868254788372,0.06167422796662787,2.0203137198521155
59,0.04160129223219821,74.97680931630819,15.206328371175024,0.061611750197472684,1.9706855789539781
60,0.04160122125995809,74.97680931630819,15.198158410850333,0.06157947429420315,1.9341730768991297
61,0.04160115028805814,74.97680931630819,15.200328256571842,0.06157818099146919,1.9108634511321347
62,0.041601079316550216,74.97680931630819,15.211834395968095,0.06160673693613079,1.899732988856753
63,0.04160100834548623,74.97680931630819,15.230765083766224,0.061662441195454616,1.898817697433009
64,0.041600937374915846,74.97680931630819,15.25453322187138,0.06174095640742292,1.905475037588025
65,0.04160086640488495,74.97680931630819,15.280224948495679,0.06183572551246135,1.9167069600923763
66,0.041600795435435,74.97680931630819,15.304987041060405,0.06193774182651322,1.929507608081543
67,0.04160072446660291,74.97680931630819,15.326370237687586,0.06203649585912884,1.9411911802487531
68,0.041600653498421424,74.97680931630819,15.342555907783659,0.062121890558922796,1.9496513304264018
69,0.04160058253091983,74.97680931630819,15.352428259921231,0.062185947482404184,1.9535142258425624
70,0.04160051156412475,74.97680931630819,15.355509029241292,0.06222343181203286,1.9521756548686295
71,0.041600440598060937,74.97680931630819,15.351822335786828,0.06223178230249254,1.9457503967212972
72,0.04160036963275215,74.97680931630819,15.341760981349795,0.06221104296173806,1.9349818918868278
73,0.041600298668221715,74.97680931630819,15.325977288030764,0.06216363066246089,1.9211448159090858
74,0.04160022770449308,74.97680931630819,15.305289580387898,0.06209364234722621,1.9059480311375054
75,0.04160015674159016,74.97680931630819,15.280623347826468,0.06200613553445415,1.8914388066516163
76,0.041600085779537534,74.97680931630819,15.25302599236243,0.06190675927341531,1.8799095138532893
77,0.041600014818360564,74.97680931630819,15.223745215179346,0.06180158924712534,1.8737985445964382
78,0.041599943858085374,74.97680931630819,15.194309062954924,0.06169705858313578,1.8755701476111206
79,0.041599872898738746,74.97680931630819,15.166566634063908,0.0615999706486998,1.8875674664451605
80,0.041599801940348034,74.97680931630819,15.142700901908706,0.06151761031595904,1.911847584547989
81,0.04159973098294099,74.97680931630819,15.125218470573754,0.061458103982320565,1.950004630705191
82,0.04159966002654564,74.97680931630819,15.116859256846075,0.06143084607652393,2.0029737672392063
83,0.04159958907119014,74.97680931630819,15.120333281355038,0.061446211210615186,2.0708119903997764
84,0.04159951811690269,74.97680931630819,15.137828289627212,0.061513841900778354,2.1524725958144972
85,0.041599447163711445,74.97680931630819,15.170341043697261,0.06163948085643842,2.245616699207289
86,0.04159937621164445,74.97680931630819,15.217016523231651,0.06182090885581199,2.346531729679287
87,0.041599305260729656,74.97680931630819,15.274762858397565,0.06204456046857831,2.450237380246946
88,0.041599234310994875,74.97680931630819,15.338405374237709,0.062285596199012784,2.5508348387960287
89,0.04159916336246781,74.97680931630819,15.401481552752088,0.06251285799145219,2.6420895255383354
90,0.041599092415176044,74.97680931630819,15.457464124797944,0.06269659110932678,2.718146079963587
91,0.041599021469147075,74.97680931630819,15.500958136039415,0.0628154087328713,2.774208018375715
92,0.04159895052440834,74.97680931630819,15.528477115037141,0.06286027476792476,2.8070305311701116
93,0.04159887958098725,74.97680931630819,15.538701003879767,0.0628348015360845,2.815161890212607
94,0.04159880863891121,74.97680931630819,15.532348145356986,0.06275241179608926,2.798948117196479
95,0.04159873769820759,74.97680931630819,15.511776146406554,0.06263183026873784,2.760341475286985
96,0.04159866675890379,74.97680931630819,15.480358904974397,0.062492435623296004,2.7025622109664336
97,0.04159859582102722,74.97680931630819,15.441775584872838,0.06235049008901898,2.6296888922726573
98,0.0415985248846053,74.97680931630819,15.39945316704929,0.06221677806293173,2.5462664120725425
99,0.04159845394966547,74.97680931630819,15.356333691702089,0.062095979773421815,2.4569896835796934
100,0.0415983830162352,74.97680931630819,15.314932094991972,0.06198791444638835,2.366461440771946
101,0.041598312084341976,74.97680931630819,15.277497355584657,0.06189037471659389,2.278979444145233
102,0.04159824115401328,74.97680931630819,15.246096959762276,0.061802511285110266,2.1983134302887866
103,0.04159817022527663,74.97680931630819,15.222547678224,0.061726985814220134,2.127473749665943
104,0.041598099298159524,74.97680931630819,15.208215204988154,0.06166966512384353,2.06850935862024
105,0.041598028372689506,74.97680931630819,15.20375843765436,0.06163734548324199,2.0223759997316297
106,0.041597957448894086,74.97680931630819,15.20890711112103,0.06163502432465819,1.988902288172436
107,0.04159788652680078,74.97680931630819,15.222363084289233,0.061663972034418264,1.9668710957083049
108,0.04159781560643709,74.97680931630819,15.241884994191848,0.06172106177910263,1.9542163231143868
109,0.04159774468783054,74.97680931630819,15.264546330113488,0.06179912240855413,1.9483134240766087
110,0.04159767377100861,74.97680931630819,15.287109040520836,0.06188779396044371,1.9463327982842293
111,0.04159760285599881,74.97680931630819,15.306442372682909,0.061974556769836944,1.9456189188335489
112,0.041597531942828635,74.97680931630819,15.319907546554655,0.06204615010799269,1.9440425150924192
113,0.04159746103152558,74.97680931630819,15.325635997476182,0.062090780074109765,1.9402658789073497
114,0.041597390122117134,74.97680931630819,15.322672706999954,0.062100652844018875,1.933882393682385
115,0.04159731921463079,74.97680931630819,15.31100952090856,0.062073544415629074,1.9254292216230977
116,0.04159724830909405,74.97680931630819,15.291553932544883,0.062012693611830066,1.916294815125845
117,0.04159717740553442,74.97680931630819,15.266057313609634,0.06192549666305573,1.9085417365615256
118,0.041597106503979395,74.97680931630819,15.236997328861507,0.06182197456933033,1.904663495384277
119,0.04159703560445646,74.97680931630819,15.207408754464893,0.06171362594301198,1.907301497464349
120,0.0415969647069931,74.97680931630819,15.180674277314745,0.06161268649448096,1.91894841174813
121,0.041596893811616804,74.97680931630819,15.160284855314384,0.061531692482684565,1.941653864947547
122,0.04159682291835507,74.97680931630819,15.149554172581894,0.06148331000097833,1.9767417159727418
123,0.04159675202723542,74.97680931630819,15.151251702418632,0.061479949156162714,2.0245507572726607
124,0.04159668113828535,74.97680931630819,15.167136430157615,0.0615322315896735,2.084221430570421
125,0.04159661025153234,74.97680931630819,15.197450957952574,0.061645820076284163,2.1535692512504836
126,0.041596539367003894,74.97680931630819,15.240533273954233,0.06181729499061275,2.2290971466212164
127,0.04159646848472749,74.97680931630819,15.292741209036729,0.062031288347416016,2.306188988814755
128,0.041596397604730634,74.97680931630819,15.348826649642813,0.06226192458808707,2.37950029964278
129,0.04159632672704082,74.97680931630819,15.402738091347935,0.06247931588971322,2.4435213876137016
130,0.04159625585168554,74.97680931630819,15.448631862387295,0.06265762380630989,2.4932304470460838
131,0.0415961849786923,74.97680931630819,15.481779479766175,0.06278022944183691,2.5247097601979456
132,0.041596114108088604,74.97680931630819,15.499143874631553,0.06284038523753123,2.5356076654448336
133,0.041596043239901945,74.97680931630819,15.499585939559442,0.06283861964006954,2.525384753606733
134,0.04159597237415983,74.97680931630819,15.483800687208076,0.06277948103363905,2.495338001245432
135,0.04159590151088976,74.97680931630819,15.45407249955678,0.06266970318939337,2.4484235570863833
136,0.04159583065011923,74.97680931630819,15.413884536002154,0.0625180865571424,2.388911183763566
137,0.04159575979187572,74.97680931630819,15.367448732665226,0.06233604444847657,2.3219190302399286
138,0.04159568893618672,74.97680931630819,15.319267254781222,0.062137677469014725,2.252890744510168
139,0.041595618083079725,74.97680931630819,15.273783399233432,0.06193887684777686,2.18707528952813
140,0.041595547232582235,74.97680931630819,15.235072707636183,0.06175558189828154,2.1290543211770125
141,0.04159547638472174,74.97680931630819,15.206492811664587,0.06160174523741171,2.082348831479879
142,0.041595405539525745,74.97680931630819,15.190297146436686,0.06148775115198295,2.049134321031625
143,0.041595334697021764,74.97680931630819,15.187309853431474,0.06141975014989306,2.0300902161992194
144,0.0415952638572373,74.97680931630819,15.196770410598914,0.061399948517427805,2.0244033433108686
145,0.04159519302019987,74.97680931630819,15.216425745312618,0.061427461907713345,2.0299415309615605
146,0.04159512218593696,74.97680931630819,15.242889476871218,0.061498832489202945,2.0435922356315097
147,0.04159505135447605,74.97680931630819,15.272196064006875,0.061607526739327116,2.0617175465598594
148,0.04159498052584464,74.97680931630819,15.30041408754458,0.061742756844300986,2.0806443473217584
149,0.04159490970007024,74.97680931630819,15.324192355427883,0.061888903618041884,2.0971087550587475
150,0.04159483887718031,74.97680931630819,15.341159954416907,0.06202705884474823,2.108594985745765
151,0.041594768057202344,74.97680931630819,15.350136735484785,0.06213896924307038,2.113532272506595
152,0.04159469724016383,74.97680931630819,15.351130171500508,0.06221146786318917,2.111338361717507
153,0.04159462642609228,74.97680931630819,15.345131469912642,0.06223893056788925,2.1023310014203047
154,0.04159455561501518,74.97680931630819,15.333784420902498,0.06222317140245818,2.087558443209536
155,0.04159448480696004,74.97680931630819,15.319036052822677,0.06217190446158452,2.0686023475730804
156,0.041594414001954357,74.97680931630819,15.30285083870852,0.06209675768128326,2.047380421987292
157,0.04159434320002563,74.97680931630819,15.287013113670628,0.06201114660147097,2.0259508924722627
158,0.04159427240120136,74.97680931630819,15.273005118373701,0.06192821568677465,2.0063182237384543
159,0.04159420160550905,74.97680931630819,15.261938116281156,0.06185902707996851,1.9902518613373108
160,0.04159413081297617,74.97680931630819,15.254529150281842,0.06181117438319274,1.9791409544313836
161,0.04159406002363023,74.97680931630819,15.251135310138068,0.06178826916938927,1.973906612307418
162,0.04159398923749872,74.97680931630819,15.251836042883285,0.0617906325813171,1.9749756111602963
163,0.04159391845460915,74.97680931630819,15.256509588999714,0.061816736953113495,1.982296150269755
164,0.041593847674989005,74.97680931630819,15.264848641880947,0.06186436378926686,1.9953671204762058
165,0.04159377689866579,74.97680931630819,15.2763161036781,0.06193077302098643,2.0132700726467614
166,0.04159370612566699,74.97680931630819,15.290103436116922,0.06201202834471227,2.0347206507197657
167,0.041593635356020134,74.97680931630819,15.30515831836835,0.06210217986023259,2.058160600023538
168,0.041593564589752705,74.97680931630819,15.320286435079797,0.06219299172857685,2.081888940100123
169,0.0415934938268922,74.97680931630819,15.334268006827534,0.06227457210465902,2.1042067036679577
170,0.04159342306746611,74.97680931630819,15.345928270843133,0.062336797196168726,2.1235469526392
171,0.041593352311501935,74.97680931630819,15.354162106162404,0.06237101582314706,2.1385843957384862
172,0.04159328155902717,74.97680931630819,15.357961917879125,0.06237145344230085,2.1483423004994764
173,0.04159321081006931,74.97680931630819,15.35647466177339,0.06233592311800342,2.1523073025638104
174,0.041593140064655844,74.97680931630819,15.349062118800905,0.062265690376319655,2.1505315669408476
175,0.04159306932281426,74.97680931630819,15.335333490427157,0.062164631328402664,2.143690658245486
176,0.041592998584572057,74.97680931630819,15.315162445433689,0.06203812047417751,2.1330918522863462
177,0.041592927849956746,74.97680931630819,15.288733167578457,0.06189220023579777,2.1206507962815224
178,0.04159285711899582,74.97680931630819,15.25664025707818,0.061733393457413535,2.108842259392765
179,0.04159278639171677,74.97680931630819,15.220016875316984,0.06156916082239484,2.100608661012531
180,0.041592715668147096,74.97680931630819,15.18064759561547,0.06140869300064461,2.099213094616149
181,0.04159264494831429,74.97680931630819,15.141058797251791,0.061263552988099185,2.108040708780184
182,0.04159257423224587,74.97680931630819,15.104589541309105,0.06114775812632551,2.13035045064561
183,0.041592503519969334,74.97680931630819,15.07536902455037,0.06107715456584933,2.168964609492425
184,0.041592432811512176,74.97680931630819,15.05805180704918,0.061068081862539265,2.225889167807776
185,0.0415923621069019,74.97680931630819,15.057208143274245,0.061135260016198484,2.3018893082007605
186,0.041592291406165986,74.97680931630819,15.076420485033598,0.06128880329165549,2.396086322947068
187,0.04159222070933193,74.97680931630819,15.117272030603488,0.06153037513118085,2.5056733880693285
188,0.041592150016427215,74.97680931630819,15.178469522468648,0.06184879258256965,2.6258471436078406
189,0.04159207932747933,74.97680931630819,15.255399824306133,0.06221676222972492,2.7500271652711357
190,0.041592008642515776,74.97680931630819,15.34045778188137,0.06259227657004866,2.8703999388404826
191,0.04159193796156405,74.97680931630819,15.424287017063445,0.06292656500350396,2.978755843227483
192,0.04159186728465166,74.97680931630819,15.497608180512794,0.06317539884823868,3.067479890064083
193,0.0415917966118061,74.97680931630819,15.55295998580877,0.06330843576359475,3.130478814146924
194,0.04159172594305488,74.97680931630819,15.585823682657791,0.06331410923648781,3.163851858203514
195,0.0415916552784255,74.97680931630819,15.595014093102865,0.06320041531236507,3.166208532340395
196,0.041591584617945467,74.97680931630819,15.582414974524442,0.06299226263831073,3.1386196890452625
197,0.04159151396164226,74.97680931630819,15.552159204499997,0.06272575600726346,3.0842457281746722
198,0.04159144330954338,74.97680931630819,15.509499928152774,0.062440481843265845,3.0077484396644962
199,0.041591372661676326,74.97680931630819,15.459767979855794,0.06217199723299514,2.914641966719457
200,0.041591302018068585,74.97680931630819,15.407707932270409,0.06194665636721364,2.8107205351588607
201,0.04159123137874766,74.97680931630819,15.35719905362569,0.06177912936686916,2.7016174942422384
202,0.04159116074374103,74.97680931630819,15.311190449594305,0.061671875173136416,2.5924834254013494
203,0.0415910901130762,74.97680931630819,15.271742330209033,0.06161671657206087,2.487768242474779
204,0.04159101948678066,74.97680931630819,15.240176662824801,0.06159894964022104,2.3911010745742445
205,0.041590948864881905,74.97680931630819,15.2173053223654,0.06160301846400531,2.305239192162693
206,0.041590878247407446,74.97680931630819,15.203590834268724,0.06161751719709878,2.2320342341049377
207,0.04159080763438478,74.97680931630819,15.199110238811828,0.061637350669975166,2.172384610181878
208,0.041590737025841394,74.97680931630819,15.20337600829689,0.06166259463619535,2.126200760594739
209,0.04159066642180479,74.97680931630819,15.215200282167112,0.061695727062654464,2.0924458424249233
210,0.04159059582230247,74.97680931630819,15.23272728339752,0.061739206135439255,2.069288558809358
211,0.041590525227361924,74.97680931630819,15.253624985226327,0.06179395284134402,2.0543501868529104
212,0.04159045463701065,74.97680931630819,15.275363764871551,0.06185834662457295,2.0449997298528553
213,0.041590384051276165,74.97680931630819,15.295518053235488,0.0619277171029734,2.0386550272718527
214,0.041590313470185956,74.97680931630819,15.312044722718056,0.06199475543018314,2.033054423639484
215,0.041590242893767525,74.97680931630819,15.323493723406497,0.062050938301477926,2.02646535753793
216,0.04159017232204836,74.97680931630819,15.329109717160842,0.06208853759184016,2.017805115667328
217,0.041590101755055967,74.97680931630819,15.328804670218114,0.062102422934672434,2.0066675837859362
218,0.041590031192817824,74.97680931630819,15.32301705584289,0.062090923767250755,1.9932701115519753
219,0.04158996063536143,74.97680931630819,15.312503750928942,0.06205567404704464,1.9783484717615787
220,0.041589890082714284,74.97680931630819,15.298127014114526,0.06200073076013844,1.9630314478575241
221,0.04158981953490388,74.97680931630819,15.280705241311516,0.06193127967310942,1.9487220808758894
222,0.041589748991957706,74.97680931630819,15.260975355223781,0.06185258018093246,1.9370034266415597
223,0.041589678453903274,74.97680931630819,15.239662360784738,0.06176968998569965,1.929572976382979
224,0.04158960792076808,74.97680931630819,15.217607139071829,0.061687701845666444,1.9281940968499378
225,0.041589537392579604,74.97680931630819,15.195896706264385,0.06161201508978593,1.9346408907697763
226,0.041589466869365335,74.97680931630819,15.175963882543044,0.06154862487181316,1.9506107975263565
227,0.041589396351152774,74.97680931630819,15.159637111794018,0.061504415082390115,1.9775899101744756
228,0.04158932583796943,74.97680931630819,15.149099382604057,0.06148713425574434,2.0166736839753026
229,0.041589255329842804,74.97680931630819,15.146694126002714,0.061504868538858684,2.0683588710268754
230,0.04158918482680038,74.97680931630819,15.154549087097557,0.06156510632282019,2.132329495735127
231,0.041589114328869664,74.97680931630819,15.174072679774923,0.061673376712346684,2.207271889042047
232,0.04158904383607815,74.97680931630819,15.205446669349907,0.06183089942454553,2.290766857914957
233,0.04158897334845334,74.97680931630819,15.247257475108873,0.06203084414059007,2.3793036322932157
234,0.04158890286602273,74.97680931630819,15.296413716558117,0.06225522688966091,2.4684472512989815
235,0.04158883238881384,74.97680931630819,15.348470574551243,0.06247639862361814,2.553174200936429
236,0.04158876191685418,74.97680931630819,15.398338512705575,0.06266390165217478,2.6283517172132713
237,0.041588691450171224,74.97680931630819,15.441158600586128,0.0627925287424949,2.6892818192246954
238,0.04158862098879247,74.97680931630819,15.47306447805165,0.06284741624184727,2.732202724408543
239,0.041588550532745405,74.97680931630819,15.49167112959443,0.06282555353790126,2.754658746022838
240,0.041588480082057504,74.97680931630819,15.496275168852197,0.06273501692950864,2.7556943442040014
241,0.04158840963675628,74.97680931630819,15.487769681805206,0.06259272577498129,2.7358627736229963
242,0.04158833919686923,74.97680931630819,15.468261190399465,0.06242071095333445,2.697062113296602
243,0.04158826876242388,74.97680931630819,15.440490426275614,0.0622412620845243,2.6422459914386285
244,0.0415881983334477,74.97680931630819,15.407302066356525,0.06207240425385772,2.5750893878209156
245,0.0415881279099682,74.97680931630819,15.371363855624917,0.06192535493070123,2.4996771796745096
246,0.04158805749201286,74.97680931630819,15.33512347828556,0.06180459234708038,2.4202290365637613
247,0.04158798707960917,74.97680931630819,15.300846367795662,0.06171011186647459,2.340835255659243
248,0.04158791667278463,74.97680931630819,15.270611873434493,0.061640686905619954,2.2651855365344886
249,0.04158784627156673,74.97680931630819,15.246237313951598,0.06159625023664368,2.1963054095403955
250,0.041587775875982974,74.97680931630819,15.229141689569513,0.06157803008402812,2.136339629970346
251,0.04158770548606086,74.97680931630819,15.220169498260425,0.06158702287197658,2.0864245476781815
252,0.04158763510182789,74.97680931630819,15.219413106890078,0.06162250227016876,2.0466779950440013
253,0.04158756472331156,74.97680931630819,15.226108473550829,0.06168149790630045,2.0163125147091936
254,0.04158749435053935,74.97680931630819,15.238682812313446,0.06175895688352889,1.9938513722065814
255,0.04158742398353875,74.97680931630819,15.25497018851779,0.06184793969250525,1.9774081835365447
256,0.04158735362233725,74.97680931630819,15.272537773403291,0.061939781097130324,1.9649837234308252
257,0.04158728326696236,74.97680931630819,15.289038425385282,0.06202477081179827,1.9547313809838875
258,0.04158721291744158,74.97680931630819,15.302514692397173,0.062093559598808176,1.9451469297945294
259,0.041587142573802416,74.97680931630819,15.31159789260307,0.062138667446839706,1.9351608656479602
260,0.04158707223607236,74.97680931630819,15.31557172627693,0.062155507158412136,1.924148930946041
261,0.04158700190427891,74.97680931630819,15.314308840620265,0.062142919339135926,1.911897140479836
262,0.041586931578449574,74.97680931630819,15.308124514875328,0.062103205072523676,1.8985527384850953
263,0.04158686125861188,74.97680931630819,15.29759925719193,0.062041408561121426,1.8845836551379134
264,0.041586790944793325,74.97680931630819,15.283409904543417,0.06196387977062718,1.8707557307228406
265,0.04158672063702141,74.97680931630819,15.266210981351684,0.06187671765144146,1.8581217753510288
266,0.04158665033532362,74.97680931630819,15.246619664146198,0.06178495615044834,1.8480198290417897
267,0.041586580039727435,74.97680931630819,15.2253293499277,0.061692834872879486,1.8420782766830694
268,0.04158650975026034,74.97680931630819,15.20330412895603,0.06160469190632005,1.8421988444743067
269,0.04158643946694983,74.97680931630819,15.181948211394873,0.0615258506546172,1.8504702075229515
270,0.041586369189823405,74.97680931630819,15.163153149479212,0.061463111822887474,1.8689861020116156
271,0.041586298918908554,74.97680931630819,15.149201240870683,0.06142464197929978,1.8995847641420287
272,0.04158622865423278,74.97680931630819,15.142566284693356,0.06141937756515527,1.9435544405066028
273,0.04158615839582359,74.97680931630819,15.145629901525519,0.06145623272003953,2.0013458049698882
274,0.041586088143708455,74.97680931630819,15.160278308417912,0.06154282801841634,2.072319893900025
275,0.04158601789791488,74.97680931630819,15.187370175555671,0.061682860999858646,2.154566345532266
276,0.04158594765847035,74.97680931630819,15.226192410953336,0.061871991968898817,2.2448443248278274
277,0.04158587742540239,74.97680931630819,15.27415047282025,0.06209433167369933,2.338704250622188
278,0.041585807198738486,74.97680931630819,15.326934900148911,0.06232308511953662,2.430826618002109
279,0.04158573697850616,74.97680931630819,15.37921934649977,0.06252673367302024,2.5155602653119353
280,0.04158566676473291,74.97680931630819,15.425681817066001,0.06267785363231453,2.5875676969395074
281,0.04158559655744621,74.97680931630819,15.461980105109177,0.06276013686145165,2.6424328212893387
282,0.04158552635667354,74.97680931630819,15.485363526427477,0.0627710451070839,2.677099958327828
283,0.041585456162442413,74.97680931630819,15.494813306748792,0.0627200200791344,2.690080059747165
284,0.04158538597478033,74.97680931630819,15.490820903227203,0.06262390770362189,2.681437644538789
285,0.04158531579371478,74.97680931630819,15.47500049248555,0.06250166647664485,2.652624706766518
286,0.04158524561927326,74.97680931630819,15.449668341547328,0.06236971699807953,2.606234105623076
287,0.04158517545148326,74.97680931630819,15.417447147424273,0.06223877450485093,2.545721231530662
288,0.0415851052903723,74.97680931630819,15.380966698206455,0.06211299401608855,2.4751238186469044
289,0.04158503513596786,74.97680931630819,15.342739070381874,0.06199194156005695,2.3987982874358567
290,0.04158496498829744,74.97680931630819,15.305201501993638,0.061874753483701264,2.3211730467207397
291,0.04158489484738854,74.97680931630819,15.2708015516229,0.061764151917116476,2.246496520396109
292,0.04158482471326866,74.97680931630819,15.241960630723824,0.0616676103633998,2.1785536207812575
293,0.041584754585965306,74.97680931630819,15.220839240984887,0.06159508994146183,2.1203582375441856
294,0.04158468446550598,74.97680931630819,15.208962290866916,0.06155520802248359,2.0738748551412236
295,0.04158461435191816,74.97680931630819,15.206854513321401,0.06155221148941564,2.0398384785190875
296,0.04158454424522935,74.97680931630819,15.213852099641258,0.06158504055538405,2.017726511033282
297,0.04158447414546705,74.97680931630819,15.228184976208619,0.06164817998541722,2.0059032682867217
298,0.041584404052658765,74.97680931630819,15.247301999114915,0.06173307921190907,2.001914510136892
299,0.04158433396683196,74.97680931630819,15.268323292299314,0.061829286203247166,2.0028733824802583
300,0.04158426388801414,74.97680931630819,15.28849498437403,0.06192532934738456,2.0058680000300613
301,0.041584193816232795,74.97680931630819,15.305564406539554,0.06200997737781053,2.0083296451409325
302,0.041584123751515434,74.97680931630819,15.318033575113589,0.06207426425942179,2.008314877655676
303,0.04158405369388956,74.97680931630819,15.325262813981043,0.06211350618760044,2.004667057144517
304,0.041583983643382665,74.97680931630819,15.327407780512225,0.062127868719190876,1.9970353390387225
305,0.041583913600022254,74.97680931630819,15.325212598144095,0.06212105794264687,1.9857574415079287
306,0.041583843563835834,74.97680931630819,15.319735949979936,0.06209821983349542,1.9716555938271112
307,0.04158377353485089,74.97680931630819,15.31209667150566,0.06206433427836191,1.9558157627773103
308,0.04158370351309492,74.97680931630819,15.303273922924738,0.062023473822125585,1.9393994728901693
309,0.041583633498595396,74.97680931630819,15.293947670602458,0.06197852179395869,1.923505154228729
310,0.041583563491379816,74.97680931630819,15.284374589218874,0.061930901922073664,1.9090830476840477
311,0.04158349349147568,74.97680931630819,15.274346053192028,0.061880467712745885,1.8969140767174228
312,0.041583423498910484,74.97680931630819,15.263291244510969,0.061826058768591007,1.8876643772306803
313,0.041583353513711736,74.97680931630819,15.250523405625419,0.0617666165775895,1.8820039729440077
314,0.04158328353590694,74.97680931630819,15.235542280882338,0.061702143877951074,1.880743706768059
315,0.0415832135655236,74.97680931630819,15.218294784882413,0.061634210991674966,1.8849332934264829
316,0.04158314360258921,74.97680931630819,15.19936302941283,0.06156631289900371,1.8958870846530567
317,0.04158307364713126,74.97680931630819,15.180093109137726,0.061504283117389084,1.9151290441019249
318,0.04158300369917727,74.97680931630819,15.162633632376966,0.061456546318860654,1.9442492978227612
319,0.041582933758754714,74.97680931630819,15.149797275672267,0.06143369965975902,1.9846680456054717
320,0.04158286382589109,74.97680931630819,15.14468989926352,0.061447111924690385,2.037327753100257
321,0.041582793900613896,74.97680931630819,15.150153505199201,0.06150685809440629,2.102363122340349
322,0.04158272398295063,74.97680931630819,15.168144432837252,0.06161935310056565,2.178815417496907
323,0.04158265407292879,74.97680931630819,15.19916605788532,0.061784556253756014,2.2644575684635835
324,0.04158258417057587,74.97680931630819,15.241862571750758,0.061992997265868315,2.3557789022551496
325,0.04158251427591937,74.97680931630819,15.292921499847049,0.06222434207142332,2.4481588743666496
326,0.0415824443889868,74.97680931630819,15.347441053203038,0.06244986975845768,2.536241186623096
327,0.04158237450980564,74.97680931630819,15.399755607893438,0.06263907952875664,2.6144785932654933
328,0.041582304638403386,74.97680931630819,15.444461768794406,0.0627674739975694,2.6777579619313507
329,0.04158223477480754,74.97680931630819,15.477313828716397,0.06282213803099009,2.7219843605023217
330,0.041582164919045574,74.97680931630819,15.495789889079614,0.06280360155181826,2.7445198107980016
331,0.041582095071144985,74.97680931630819,15.499254533546658,0.06272384301918285,2.74440883783941
332,0.041582025231133274,74.97680931630819,15.488723798680283,0.06260117596755861,2.7223710693926946
333,0.04158195539903795,74.97680931630819,15.466365760231856,0.06245411205217665,2.680601446595929
334,0.04158188557488651,74.97680931630819,15.434973557055036,0.062297007355901095,2.622462415373431
335,0.04158181575870645,74.97680931630819,15.39759999452496,0.06213917882257314,2.552149677585904
336,0.04158174595052528,74.97680931630819,15.35737218868571,0.06198695527907085,2.4743665158220427
337,0.04158167615037049,74.97680931630819,15.317378509577129,0.06184646244873579,2.3939938100399827
338,0.041581606358269574,74.97680931630819,15.280538357430821,0.06172503192809817,2.315737037123529
339,0.04158153657425003,74.97680931630819,15.249438605143016,0.06163065557743693,2.243762319679868
340,0.04158146679833938,74.97680931630819,15.226148302594236,0.061570234494431,2.181363656973674
341,0.041581397030565105,74.97680931630819,15.212023503034542,0.061547657222611234,2.1307099856889304
342,0.0415813272709547,74.97680931630819,15.207533780898949,0.06156260665142709,2.092710242565343
343,0.041581257519535654,74.97680931630819,15.212171948496058,0.061610665481988514,2.067020201293914
344,0.041581187776335474,74.97680931630819,15.224498618851896,0.061684415753067136,2.05219385860813
345,0.04158111804138165,74.97680931630819,15.242325620847485,0.061774559872999936,2.0459556073741614
346,0.04158104831470167,74.97680931630819,15.263009381271372,0.0618706146816733,2.0455504951633134
347,0.04158097859632304,74.97680931630819,15.283810207363423,0.06196167293493916,2.0481212345324473
348,0.04158090888627324,74.97680931630819,15.3022517707138,0.06203769299109083,2.0510563760218954
349,0.04158083918457977,74.97680931630819,15.31640323382289,0.06209095490881677,2.052258580430267
350,0.04158076949127012,74.97680931630819,15.325028481829365,0.06211697327493948,2.050305122202517
351,0.041580699806371815,74.97680931630819,15.327599668252613,0.06211463937971004,2.044506117114316
352,0.04158063012991236,74.97680931630819,15.324219600274336,0.06208589332103931,2.0348853069651485
353,0.04158056046191924,74.97680931630819,15.31549385036028,0.06203514184774858,2.022104054194391
354,0.04158049080241996,74.97680931630819,15.302358743304532,0.06196832067346074,2.0073387825572637
355,0.04158042115144201,74.97680931630819,15.285876780290685,0.061891762697665303,1.9921285018571486
356,0.041580351509012896,74.97680931630819,15.267059638122761,0.06181137973114986,1.9782253521855393
357,0.0415802818751601,74.97680931630819,15.246793960566626,0.06173228684062833,1.9674773173109181
358,0.04158021224991113,74.97680931630819,15.225889597154138,0.061658678342611406,1.9617457786488468
359,0.04158014263329349,74.97680931630819,15.205194846023254,0.06159391329610098,1.9628388253615114
360,0.04158007302533465,74.97680931630819,15.185705123904224,0.06154077837355174,1.9724401014060655
361,0.04158000342606211,74.97680931630819,15.168644530310939,0.061501926154391436,1.9920241659420586
362,0.04157993383550335,74.97680931630819,15.155535808693298,0.06148055321964848,2.022756868243992
363,0.041579864253685865,74.97680931630819,15.148226012352035,0.06148104039093819,2.0653764205098613
364,0.041579794680637175,74.97680931630819,15.148774015861342,0.06150900349034266,2.120045652645481
365,0.041579725116384796,74.97680931630819,15.15912991170679,0.061570513664969066,2.1861753644616857
366,0.04157965556095623,74.97680931630819,15.180638228693699,0.061670575925121346,2.2622473592368633
367,0.04157958601437897,74.97680931630819,15.213487958209228,0.06181076445995682,2.345691704589961
368,0.04157951647668051,74.97680931630819,15.256272525792872,0.06198602303674437,2.432879318294066
369,0.04157944694788836,74.97680931630819,15.305850461437535,0.0621822071315969,2.5192815768583774
370,0.04157937742803001,74.97680931630819,15.35766461567345,0.062377286337797974,2.599817865884705
371,0.041579307917132956,74.97680931630819,15.406492273676653,0.06254689840548826,2.6693560655677517
372,0.041579238415224685,74.97680931630819,15.447371494293975,0.06267093139442874,2.723275815102325
373,0.041579168922332675,74.97680931630819,15.476399689614066,0.06273748320803473,2.7579847877187147
374,0.04157909943848442,74.97680931630819,15.491243304016368,0.06274366090792699,2.7713013504624575
375,0.0415790299637074,74.97680931630819,15.49133693144723,0.06269445451972963,2.7626562755272275
376,0.04157896049802914,74.97680931630819,15.477773085437427,0.06260041551500821,2.733096507875543
377,0.04157889104147712,74.97680931630819,15.452901552655591,0.062474540608636366,2.6851032153942915
378,0.04157882159407886,74.97680931630819,15.419765287455618,0.06232931457981284,2.622275523857926
379,0.041578752155861855,74.97680931630819,15.381592113993879,0.06217506699813173,2.5489576717692892
380,0.04157868272685362,74.97680931630819,15.341507192190393,0.06202002829022918,2.4698707121536114
381,0.04157861330708165,74.97680931630819,15.302456573658654,0.061871479893210644,2.3897646429209907
382,0.04157854389657345,74.97680931630819,15.267196084058847,0.06173702171995351,2.313082057330328
383,0.041578474495356496,74.97680931630819,15.238210192509223,0.061625064880440145,2.2436345841335212
384,0.041578405103458296,74.97680931630819,15.217520617897064,0.06154406594894908,2.1843132627492046
385,0.04157833572090633,74.97680931630819,15.206429761843827,0.06150090172576987,2.136870591438277
386,0.041578266347728106,74.97680931630819,15.205291490557164,0.061499265184524005,2.1018163651466484
387,0.041578196983951106,74.97680931630819,15.213403957861381,0.061538631473419245,2.078452145452645
388,0.04157812762960281,74.97680931630819,15.229079153761434,0.06161401316213137,2.065044385617065
389,0.04157805828471072,74.97680931630819,15.24987621392947,0.06171638564481785,2.0591132595203057
390,0.04157798894930235,74.97680931630819,15.27292981864254,0.061833396819835545,2.0577908527621354
391,0.041577919623405186,74.97680931630819,15.295301480536118,0.06195047329189193,2.0581929143464124
392,0.04157785030704674,74.97680931630819,15.314304044646475,0.06205275303067577,2.0577572725497637
393,0.041577781000254534,74.97680931630819,15.327760529874954,0.06212751606816815,2.0545124240896615
394,0.04157771170305607,74.97680931630819,15.334170232003535,0.0621661784440676,2.047251184737041
395,0.041577642415478844,74.97680931630819,15.33277476695029,0.06216519251356946,2.0356056083508793
396,0.04157757313755034,74.97680931630819,15.323537327491245,0.06212574712030022,2.020040909033205
397,0.04157750386929804,74.97680931630819,15.307069772130905,0.06205270102143207,2.001790165963861
398,0.041577434610749434,74.97680931630819,15.284543296926664,0.06195339610761817,1.9827385168985803
399,0.04157736536193202,74.97680931630819,15.257589854635794,0.0618366545941968,1.9652577120607042
400,0.04157729612287329,74.97680931630819,15.228187298592635,0.06171207853222006,1.9520032244287278
401,0.041577226893600765,74.97680931630819,15.19855190748565,0.06158987041182748,1.9457015616850326
402,0.04157715767414193,74.97680931630819,15.171082523178088,0.06148096191939783,1.9489501033573975
403,0.04157708846452429,74.97680931630819,15.148347495707561,0.06139672238911019,1.964023699147219
404,0.04157701926477533,74.97680931630819,15.133024775119436,0.06134798620631894,1.992663322352194
405,0.04157695007492257,74.97680931630819,15.127699152147068,0.06134387885463954,2.035837529991065
406,0.041576880894993486,74.97680931630819,15.134503567814095,0.061390813985837414,2.0934989991416426
407,0.04157681172501558,74.97680931630819,15.15467354158605,0.06149159592896584,2.1643793194585785
408,0.04157674256501634,74.97680931630819,15.188104256566676,0.06164427170302956,2.245874668496332
409,0.04157667341502327,74.97680931630819,15.233010033118108,0.061840199353422894,2.3340741916056325
410,0.04157660427506387,74.97680931630819,15.285838994710783,0.06206211503127568,2.423968822236616
411,0.041576535145165634,74.97680931630819,15.341608655742306,0.062285139732927694,2.5098540320382305
412,0.041576466025356064,74.97680931630819,15.394672864207998,0.06248230180199673,2.5858974532530423
413,0.04157639691566266,74.97680931630819,15.439693066851385,0.06263177925451387,2.646783133118919
414,0.041576327816112923,74.97680931630819,15.472508826005445,0.06272166674431069,2.688307917413415
415,0.04157625872673436,74.97680931630819,15.490701920045977,0.06275054713510263,2.7078181218918154
416,0.04157618964755445,74.97680931630819,15.493754026163812,0.06272460344869889,2.704418830022166
417,0.0415761205786007,74.97680931630819,15.48279426478247,0.06265311084519666,2.6789458826214307
418,0.041576051519900604,74.97680931630819,15.460080287144693,0.06254466122396786,2.6337501244134014
419,0.04157598247148166,74.97680931630819,15.428461658491825,0.062406055107843736,2.572376404166866
420,0.041575913433371345,74.97680931630819,15.391012290305458,0.062243921450220854,2.499205734621221
421,0.041575844405597175,74.97680931630819,15.350845185496865,0.06206713467144814,2.419088632201756
422,0.04157577538818664,74.97680931630819,15.311017630088761,0.06188800433074348,2.3369732908393384
423,0.04157570638116724,74.97680931630819,15.27444348252573,0.06172160582989263,2.257536751611383
424,0.04157563738456647,74.97680931630819,15.243753283467045,0.061583564812964536,2.1848397026455117
425,0.04157556839841181,74.97680931630819,15.221070230386054,0.06148707835268458,2.1220330569092347
426,0.04157549942273076,74.97680931630819,15.207733776054733,0.061440413597970894,2.0711487960954296
427,0.04157543045755083,74.97680931630819,15.20406449410541,0.06144574918905234,2.0330051033718197
428,0.04157536150289951,74.97680931630819,15.2092778684048,0.06149926868039882,2.0072410687275513
429,0.04157529255880432,74.97680931630819,15.221599853843584,0.06159190615701104,1.992474845011909
430,0.041575223625292757,74.97680931630819,15.23855325740055,0.06171026791811277,1.9865612430464867
431,0.04157515470239232,74.97680931630819,15.25734765619922,0.06183791756860248,1.986914171601278
432,0.04157508579013051,74.97680931630819,15.275306379777836,0.06195759512929398,1.9908540683166451
433,0.041575016888534815,74.97680931630819,15.29025105887385,0.06205416325366076,1.9959331360277521
434,0.041574947997632734,74.97680931630819,15.30075677374907,0.06211709689491903,2.0001852362874217
435,0.04157487911745176,74.97680931630819,15.30623139435498,0.06214156647373804,2.0022642997700553
436,0.04157481024801937,74.97680931630819,15.306845283760921,0.06212827747985684,2.0014740729041014
437,0.04157474138936308,74.97680931630819,15.303376332507217,0.06208279953396877,1.997717714165338
438,0.041574672541510385,74.97680931630819,15.297016551034195,0.06201462266465504,1.9913923682809413
439,0.04157460370448878,74.97680931630819,15.289160453527645,0.061935678189876546,1.9832464738359221
440,0.041574534878325776,74.97680931630819,15.281198397970224,0.061858367694462,1.9742245446695514
441,0.041574466063048855,74.97680931630819,15.274353501846853,0.061793596544812104,1.9653282233528393
442,0.041574397258685516,74.97680931630819,15.269593508931175,0.06174936304886854,1.9575077609473488
443,0.041574328465263245,74.97680931630819,15.267601590999833,0.06173024276308857,1.9515770838880517
444,0.04157425968280953,74.97680931630819,15.268739401814557,0.06173751548806708,1.9481333785787045
445,0.041574190911351894,74.97680931630819,15.272955381685922,0.061769216939750266,1.9474699298019842
446,0.04157412215091783,74.97680931630819,15.27968740352669,0.06182001980583876,1.9495059534642587
447,0.04157405340153487,74.97680931630819,15.287861589259682,0.061881682886104385,1.9537844204631638
448,0.041573984663230486,74.97680931630819,15.296019391202211,0.06194433602318058,1.9595652511465615
449,0.041573915936032185,74.97680931630819,15.302506352039545,0.06199784579006196,1.9659912507643822
450,0.04157384721996747,74.97680931630819,15.305645607856862,0.062032640719007194,1.9722806039627663
451,0.041573778515063824,74.97680931630819,15.303894119570646,0.06204039456772534,1.977912761553496
452,0.04157370982134873,74.97680931630819,15.296031255995969,0.06201508943949276,1.9827946664042908
453,0.0415736411388497,74.97680931630819,15.28138433932979,0.061954191065850456,1.987393937264797
454,0.04157357246759422,74.97680931630819,15.260029096555712,0.06185959330887577,1.9928127379358995
455,0.04157350380760981,74.97680931630819,15.232912438237232,0.06173829863380922,2.00077717257149
456,0.04157343515892394,74.97680931630819,15.20190544617664,0.06160245596431816,2.0135350040012305
457,0.0415733665215641,74.97680931630819,15.16980811137554,0.061468402266559495,2.0336669699254744
458,0.04157329789555777,74.97680931630819,15.140265548605884,0.061355061313908464,2.063813868378394
459,0.04157322928093247,74.97680931630819,15.117502691078302,0.061282055941861716,2.1063203934521595
460,0.04157316067771571,74.97680931630819,15.105823321996976,0.06126737696974065,2.1628183037742437
461,0.041573092085934994,74.97680931630819,15.10892662795101,0.06132461203195517,2.2338087486333538
462,0.041573023505617826,74.97680931630819,15.129166933544099,0.061460158475989055,2.3183225473982896
463,0.0415729549367917,74.97680931630819,15.166878009344263,0.06167063805665193,2.4137279197846664
464,0.04157288637948413,74.97680931630819,15.219893665356862,0.06194054649637696,2.5157431173731015
465,0.041572817833722596,74.97680931630819,15.283478526210432,0.062241359512644596,2.6187035127830294
466,0.0415727492995346,74.97680931630819,15.350896228190726,0.06253461038854397,2.7161024995133203
467,0.04157268077694763,74.97680931630819,15.414603435028154,0.06277966309487207,2.801349838207577
468,0.0415726122659892,74.97680931630819,15.467698131721443,0.06294322282085583,2.86859785065447
469,0.04157254376668678,74.97680931630819,15.505142495919962,0.06300664303764679,2.9134494679551786
470,0.041572475279067864,74.97680931630819,15.524467754003524,0.0629690331819725,2.9334059215151607
471,0.04157240680315994,74.97680931630819,15.525858044397753,0.06284586807463824,2.9279869419219553
472,0.041572338338990496,74.97680931630819,15.511645257331356,0.06266374023758607,2.8985373580709197
473,0.04157226988658703,74.97680931630819,15.485436555129343,0.06245314715538662,2.847818346647506
474,0.04157220144597706,74.97680931630819,15.45122765183415,0.06224190965463113,2.7795293551176403
475,0.04157213301718809,74.97680931630819,15.412774605523747,0.06205095299601029,2.6978808916411308
476,0.04157206460024762,74.97680931630819,15.373274338657609,0.06189267876815797,2.6072627946490092
477,0.04157199619518316,74.97680931630819,15.335253132525331,0.06177137181133167,2.511993338629031
478,0.0415719278020222,74.97680931630819,15.30058367037851,0.061685125053608576,2.416125230045775
479,0.04157185942079224,74.97680931630819,15.270610519938943,0.061628801373382426,2.3232944275887486
480,0.04157179105152077,74.97680931630819,15.24633063000943,0.0615971702948473,2.236596096409991
481,0.041571722694235286,74.97680931630819,15.228509219653976,0.061586961235477904,2.1584712445449505
482,0.041571654348963274,74.97680931630819,15.217638859441838,0.061596920976937086,2.090605577874908
483,0.04157158601573224,74.97680931630819,15.21377694530153,0.06162625746677648,2.033865028023962
484,0.04157151769456971,74.97680931630819,15.216391957343088,0.06167291344390033,1.9882960425345482
485,0.04157144938550317,74.97680931630819,15.22432929380939,0.06173275226024161,1.9532066835362738
486,0.0415713810885601,74.97680931630819,15.235927684107981,0.061799613174765816,1.9273294614540095
487,0.041571312803767996,74.97680931630819,15.249252807077472,0.06186579948149733,1.9090467385964063
488,0.041571244531154336,74.97680931630819,15.262387555174088,0.061923009281149,1.8966377359327267
489,0.04157117627074664,74.97680931630819,15.273714312745145,0.06196383184542613,1.8884961588317568
490,0.04157110802257243,74.97680931630819,15.282128616454502,0.061983383928733676,1.8832788994386895
491,0.0415710397866592,74.97680931630819,15.28713710406159,0.06198040067545412,1.8799728230374955
492,0.041570971563034444,74.97680931630819,15.288827034521224,0.06195746830378736,1.877888050764775
493,0.041570903351725655,74.97680931630819,15.28774170247708,0.06192040740767216,1.8765967950707052
494,0.041570835152760326,74.97680931630819,15.284714565107878,0.06187696537064786,1.8758464936427228
495,0.041570766966165955,74.97680931630819,15.280697218686885,0.06183525567397287,1.8754806096166148
496,0.041570698791970034,74.97680931630819,15.276608836188286,0.061802403948447285,1.8753901254608651
497,0.04157063063020006,74.97680931630819,15.273237647059574,0.06178355416514801,1.8754981714937962
498,0.041570562480883526,74.97680931630819,15.271197762171944,0.06178128532074052,1.8757621920026946
499,0.04157049434404793,74.97680931630819,15.27090295418247,0.061795425766639524,1.8761740677058347
500,0.04157042621972078,74.97680931630819,15.272518801568786,0.06182316246179118,1.8767513141770462
501,0.04157035810792958,74.97680931630819,15.275907495756632,0.06185957240891395,1.8775294705462107
502,0.041570290008701806,74.97680931630819,15.280619418502633,0.06189866606158482,1.8785693030835944
503,0.041570221922064964,74.97680931630819,15.285955161043878,0.06193449912096187,1.8799767864758268
504,0.041570153848046555,74.97680931630819,15.291062580922443,0.0619618253610765,1.881912725612008
505,0.04157008578667408,74.97680931630819,15.295029790920239,0.06197632236834925,1.8845718237117197
506,0.04157001773797504,74.97680931630819,15.29699717752278,0.0619748720672701,1.8881458172037868
507,0.04156994970197694,74.97680931630819,15.296333944333812,0.06195621422057505,1.892804477821009
508,0.041569881678707246,74.97680931630819,15.292842135671522,0.06192177540016373,1.8987021701071192
509,0.04156981366819346,74.97680931630819,15.286873456328903,0.0618761927253424,1.905990932650396
510,0.04156974567046309,74.97680931630819,15.279282880512149,0.0618270538999944,1.9148254868032908
511,0.04156967768554364,74.97680931630819,15.271249271996961,0.06178358948208911,1.925356521386802
512,0.041569609713462616,74.97680931630819,15.26404832688102,0.06175454933242131,1.9377102604913552
513,0.041569541754247506,74.97680931630819,15.258833413063178,0.06174599644106799,1.9519544019673043
514,0.041569473807925805,74.97680931630819,15.256432327067293,0.06175983942999372,1.9680537246294891
515,0.04156940587452501,74.97680931630819,15.257170394216013,0.06179353917657398,1.9858234641881722
516,0.04156933795407263,74.97680931630819,15.260786121423074,0.06184098025445423,2.0049038108284725
517,0.041569270046596156,74.97680931630819,15.266524225059822,0.061894264591507125,2.0247845772471096
518,0.04156920215212309,74.97680931630819,15.273392713055692,0.06194586915973713,2.0448801408092434
519,0.04156913427068092,74.97680931630819,15.280445677185694,0.06199020743961521,2.0646194321733335
520,0.04156906640229713,74.97680931630819,15.286953339893353,0.062023952677309084,2.08351381857422
521,0.04156899854699921,74.97680931630819,15.292443787836183,0.06204560314415723,2.1011914807630188
522,0.041568930704814676,74.97680931630819,15.296694040483045,0.06205517308806123,2.1174083441733162
523,0.04156886287577102,74.97680931630819,15.299716252323435,0.062054020391163325,2.132044194681802
524,0.04156879505989577,74.97680931630819,15.301704869033879,0.06204425917437558,2.1450797286576897
525,0.0415687272572164,74.97680931630819,15.30290677853636,0.06202778337503425,2.156551372701449
526,0.041568659467760415,74.97680931630819,15.303465187471996,0.06200560693274176,2.166501133946477
527,0.04156859169155531,74.97680931630819,15.303346665666503,0.06197808226786482,2.1749516304116225
528,0.04156852392862859,74.97680931630819,15.302393359788732,0.06194582903303964,2.181920607704989
529,0.04156845617900775,74.97680931630819,15.3004360282966,0.06191066377163304,2.187462193356644
530,0.04156838844272029,74.97680931630819,15.297388201669538,0.061875881326955276,2.191710826648326
531,0.04156832071979371,74.97680931630819,15.293308359300182,0.061845746194549855,2.194911175477608
532,0.04156825301025551,74.97680931630819,15.288457906974752,0.06182452362422491,2.1974264330045123
533,0.04156818531413319,74.97680931630819,15.283343541849295,0.06181541052910382,2.199716447406108
534,0.04156811763145425,74.97680931630819,15.278681190863983,0.06181959864008284,2.202277351559472
535,0.041568049962246195,74.97680931630819,15.27524756340937,0.06183589748569253,2.205549671990573
536,0.041567982306536515,74.97680931630819,15.273683988081874,0.06186134153897328,2.2098244786942507
537,0.041567914664352695,74.97680931630819,15.274365111666377,0.061892450070471186,2.2151838325583166
538,0.04156784703572223,74.97680931630819,15.27737156500155,0.06192623652069108,2.2214900166473144
539,0.04156777942067261,74.97680931630819,15.282507148649728,0.06196048326881531,2.228407845416836
540,0.041567711819231315,74.97680931630819,15.289297777259566,0.06199342643074604,2.2354397624185416
541,0.04156764423142586,74.97680931630819,15.296984257061185,0.06202314580719921,2.241974892326929
542,0.041567576657283736,74.97680931630819,15.304558590489732,0.06204697249823302,2.2473640774679398
543,0.04156750909683244,74.97680931630819,15.310840449722692,0.06206128642575599,2.2510157754345768
544,0.04156744155009948,74.97680931630819,15.314532646944643,0.06206180702931219,2.2524920913148834
545,0.04156737401711236,74.97680931630819,15.314227525962401,0.062044046708928165,2.251595542414763
546,0.04156730649789857,74.97680931630819,15.30843292552683,0.062003702958042285,2.248457240027396
547,0.04156723899248562,74.97680931630819,15.295726991261182,0.061937242704544274,2.243638593047945
548,0.041567171500901015,74.97680931630819,15.275068522841838,0.06184291066343542,2.2382397742014977
549,0.041567104023172256,74.97680931630819,15.246169063381048,0.061721863235466926,2.2339856642547606
550,0.04156703655932685,74.97680931630819,15.209805955217668,0.06157892308143098,2.2332505943448964
551,0.04156696910939228,74.97680931630819,15.168026830696224,0.061422868351074536,2.238990517103668
552,0.04156690167339605,74.97680931630819,15.124243503374439,0.061266623113014965,2.254563819221346
553,0.04156683425136566,74.97680931630819,15.083171263060112,0.06112753861383778,2.2834309946569893
554,0.0415667668433286,74.97680931630819,15.050522304207044,0.06102714413260005,2.328736566810183
555,0.041566699449312364,74.97680931630819,15.032398595328532,0.060989274298889125,2.3928040593957767
556,0.04156663206934445,74.97680931630819,15.03442052945915,0.061036191579653815,2.4766052087604296
557,0.04156656470345237,74.97680931630819,15.060682636131009,0.06118343713437591,2.5792796647509646
558,0.0415664973516636,74.97680931630819,15.11264148710676,0.061434444300568714,2.6977892627424387
559,0.04156643001400564,74.97680931630819,15.188122206534867,0.061775796956734325,2.826804117432018
560,0.04156636269050599,74.97680931630819,15.28082519230711,0.06217489524282342,2.9589207232830517
561,0.04156629538119215,74.97680931630819,15.380829148800817,0.06258304978965841,3.0852798376037396
562,0.041566228086091624,74.97680931630819,15.476284481444017,0.06294518560758018,3.1965594090606086
563,0.0415661608052319,74.97680931630819,15.555831719333236,0.06321276201728997,3.2841759752078152
564,0.04156609353864047,74.97680931630819,15.610879004404763,0.06335460610063053,3.3414280294342458
565,0.041566026286344836,74.97680931630819,15.637044676490273,0.0633623859322046,3.3643265626703722
566,0.041565959048372486,74.97680931630819,15.63446085428063,0.06324983682664183,3.351947417912342
567,0.041565891824750914,74.97680931630819,15.60699448379224,0.06304650092030245,3.3062679623867686
568,0.04156582461550762,74.97680931630819,15.56080036640915,0.06278861961474978,3.2315962203777273
569,0.041565757420670105,74.97680931630819,15.50281489173582,0.06251095398256397,3.133800106177903
570,0.041565690240265886,74.97680931630819,15.439646187359354,0.06224194812825096,3.0195396793810914
571,0.041565623074322454,74.97680931630819,15.376943706137421,0.06200185256966306,2.8956157183036404
572,0.04156555592286732,74.97680931630819,15.319086145854135,0.06180231192478175,2.7684600045574492
573,0.04156548878592798,74.97680931630819,15.269081104670704,0.061646975632708004,2.6437670887251357
574,0.041565421663531936,74.97680931630819,15.228689225914355,0.06153353929461138,2.526267853443814
575,0.041565354555706674,74.97680931630819,15.198730005154108,0.06145692369815157,2.4196207015978985
576,0.04156528746247969,74.97680931630819,15.179396173477047,0.06141203759412377,2.3263702607068253
577,0.0415652203838785,74.97680931630819,15.170411604012958,0.061394756472496245,2.247939426768899
578,0.041565153319930596,74.97680931630819,15.171021032242352,0.06140157793644541,2.1846589160957905
579,0.041565086270663486,74.97680931630819,15.179924734117336,0.06142938784521452,2.135853445974553
580,0.04156501923610466,74.97680931630819,15.19527630831304,0.0614756204464019,2.0999961185840252
581,0.04156495221628159,74.97680931630819,15.214798496119705,0.0615379352574497,2.0749326013639973
582,0.041564885211221786,74.97680931630819,15.236008112162954,0.06161311472136098,2.0581629618569255
583,0.04156481822095274,74.97680931630819,15.256506711128116,0.061695943817170744,2.04714904617681
584,0.041564751245501935,74.97680931630819,15.274277968132445,0.06177893327011181,2.0395986954861076
585,0.041564684284896874,74.97680931630819,15.287926203137824,0.061853321569523355,2.033678914929093
586,0.04156461733916507,74.97680931630819,15.296803956076756,0.06191128929620485,2.0281295957001713
587,0.041564550408334025,74.97680931630819,15.301005442417377,0.06194848917167315,2.022271627493599
588,0.04156448349243124,74.97680931630819,15.301233056619628,0.06196537688816217,2.0159212057900096
589,0.041564416591484216,74.97680931630819,15.298570132294147,0.06196653704474722,2.009241456164378
590,0.041564349705520455,74.97680931630819,15.294213211836627,0.06195861767620189,2.0025762654335297
591,0.041564282834567444,74.97680931630819,15.289226037363512,0.06194802335038553,1.9963085458906538
592,0.041564215978652695,74.97680931630819,15.284364013488263,0.06193927625525744,1.990771075070789
593,0.041564149137803694,74.97680931630819,15.279984860682157,0.06193443600126836,1.9862170457124284
594,0.04156408231204794,74.97680931630819,15.276028458248028,0.0619331157094698,1.9828339690909906
595,0.04156401550141294,74.97680931630819,15.272041546089941,0.06193247397498348,1.9807787623477464
596,0.0415639487059262,74.97680931630819,15.26725396432253,0.06192754752544639,1.9802280426993992
597,0.04156388192561521,74.97680931630819,15.260736225252598,0.06191260579505339,1.9814469176183171
598,0.04156381516050746,74.97680931630819,15.251630508133115,0.061883034152082975,1.9848665927273335
599,0.041563748410630444,74.97680931630819,15.23939047622714,0.06183649662042212,1.9911462053455091
600,0.041563681676011675,74.97680931630819,15.223968415595293,0.06177307120958985,2.0011976788566708
601,0.04156361495667864,74.97680931630819,15.205948375024569,0.06169526862748961,2.0161701413886624
602,0.04156354825265883,74.97680931630819,15.186651191516175,0.061608577357674034,2.0374001864880076
603,0.041563481563979744,74.97680931630819,15.16818575420126,0.061522026804419705,2.0663200624426294
604,0.04156341489066888,74.97680931630819,15.153365092038161,0.06144796562207308,2.104295400572538
605,0.041563348232753726,74.97680931630819,15.145420988259215,0.0614008434412161,2.1523722298749783
606,0.04156328159026177,74.97680931630819,15.14752113225457,0.061395250718996985,2.2109554237862405
607,0.04156321496322052,74.97680931630819,15.16215276914239,0.06144346539231821,2.2794836766956474
608,0.041563148351657475,74.97680931630819,15.190458077134549,0.06155238571493586,2.356180137140308
609,0.04156308175560015,74.97680931630819,15.231643167034138,0.06171976735721829,2.437949778492733
610,0.04156301517507603,74.97680931630819,15.282673123769273,0.061931182385011864,2.5204830017135316
611,0.04156294861011264,74.97680931630819,15.338505328615136,0.06216071813570971,2.59860323145471
612,0.041562882060737466,74.97680931630819,15.392937795324562,0.06237682603559923,2.6668381503626044
613,0.041562815526978006,74.97680931630819,15.43982370967699,0.06255073022895326,2.720110212640851
614,0.04156274900886177,74.97680931630819,15.474234597507282,0.06266327823740613,2.754394095704939
615,0.04156268250641626,74.97680931630819,15.49324902504606,0.06270790556964471,2.7672049435671924
616,0.04156261601966897,74.97680931630819,15.496208112502716,0.06268938934310958,2.75783070407618
617,0.04156254954864741,74.97680931630819,15.484429173069232,0.06261950763520567,2.727288649362052
618,0.041562483093379066,74.97680931630819,15.460554712366386,0.06251202456134414,2.678062776749455
619,0.04156241665389143,74.97680931630819,15.427844176360212,0.062379406724262544,2.613725580109473
620,0.041562350230212,74.97680931630819,15.389655972678636,0.062231992117530215,2.538538127894128
621,0.041562283822368255,74.97680931630819,15.34916797770023,0.06207861283999377,2.457075865438164
622,0.0415622174303877,74.97680931630819,15.309243852987114,0.061927406795845796,2.3738881420791165
623,0.041562151054297836,74.97680931630819,15.272368835010957,0.06178635391749154,2.293195815413236
624,0.04156208469412615,74.97680931630819,15.240635278358814,0.06166338149064494,2.21864222872438
625,0.04156201834990016,74.97680931630819,15.215745587389982,0.06156573132339681,2.153106068056004
626,0.04156195202164735,74.97680931630819,15.19896904396365,0.061498850663566224,2.0985716324057613
627,0.04156188570939523,74.97680931630819,15.191018180165132,0.06146569086964914,2.0560561462582805
628,0.0415618194131713,74.97680931630819,15.191887385500126,0.061466737168952144,2.0256035798358605
629,0.04156175313300306,74.97680931630819,15.200747161118558,0.0615001970000996,2.0063517998504174
630,0.041561686868918,74.97680931630819,15.2159745382716,0.061561884092959145,1.996674372440824
631,0.041561620620943616,74.97680931630819,15.235347110157678,0.06164498830775074,1.994396771686771
632,0.0415615543891074,74.97680931630819,15.256364892635995,0.06174015838897459,1.9970725882358316
633,0.041561488173436856,74.97680931630819,15.27661726049387,0.061836278987724896,2.0022790784765165
634,0.04156142197395949,74.97680931630819,15.294103039912512,0.06192213074859923,2.0078789581333485
635,0.041561355790702796,74.97680931630819,15.30743540447833,0.06198854358111678,2.0122075142994
636,0.04156128962369429,74.97680931630819,15.315904086890693,0.062030107535838964,2.014167652505601
637,0.04156122347296146,74.97680931630819,15.319412832557418,0.06204573096552515,2.013237323422672
638,0.04156115733853183,74.97680931630819,15.3183365441673,0.06203811306457865,2.0094108530224966
639,0.04156109122043288,74.97680931630819,15.313334595424,0.06201251924926155,2.0031022023412968
640,0.04156102511869211,74.97680931630819,15.305141757138298,0.06197511427873957,1.9950317807652826
641,0.04156095903333702,74.97680931630819,15.294376790159212,0.06193135974829387,1.9861159675992714
642,0.04156089296439511,74.97680931630819,15.281435557304519,0.06188509744375784,1.9773833109493635
643,0.041560826911893854,74.97680931630819,15.266505577417497,0.06183823001301968,1.969932082048482
644,0.04156076087586075,74.97680931630819,15.249666722097862,0.06179060132514926,1.9649217223157023
645,0.041560694856323285,74.97680931630819,15.23101859176157,0.06174029272684722,1.9635800677368058
646,0.04156062885330897,74.97680931630819,15.210825626541759,0.06168467257196089,1.967214798983105
647,0.04156056286684529,74.97680931630819,15.189704400923267,0.061621955710917165,1.977222251430361
648,0.041560496896959766,74.97680931630819,15.168829026800845,0.06155282984122358,1.9950745268083616
649,0.04156043094367989,74.97680931630819,15.150061731440012,0.061481826157612086,2.0222500073167256
650,0.04156036500703317,74.97680931630819,15.135910040419235,0.06141800466217426,2.060077699805957
651,0.04156029908704709,74.97680931630819,15.129278037271552,0.0613745000071666,2.1094954010079685
652,0.04156023318374915,74.97680931630819,15.13304608408818,0.06136676123014003,2.1707546148579255
653,0.04156016729716686,74.97680931630819,15.149520096100753,0.06140959381099387,2.24312459537844
654,0.04156010142732772,74.97680931630819,15.179787155173974,0.06151320367515036,2.324656117072441
655,0.041560035574259226,74.97680931630819,15.223084679953665,0.061678539564966293,2.41207107297696
656,0.041559969737988894,74.97680931630819,15.27642355542537,0.06189334722120408,2.5008481130850613
657,0.04155990391854421,74.97680931630819,15.334752037425565,0.06213209237269478,2.5855581293802885
658,0.04155983811595268,74.97680931630819,15.391762852076608,0.06236169689337629,2.660440625002433
659,0.041559772330241815,74.97680931630819,15.441128441200814,0.0625507782197025,2.72012108262623
660,0.04155970656143911,74.97680931630819,15.477740078397368,0.06267781336542672,2.760306988923038
661,0.04155964080957207,74.97680931630819,15.498536546529163,0.06273482176996173,2.778302235309507
662,0.04155957507466817,74.97680931630819,15.502716803274025,0.0627256590343373,2.77324296669595
663,0.04155950935675489,74.97680931630819,15.491424331694777,0.06266085990145351,2.7460519200646583
664,0.041559443655859736,74.97680931630819,15.467178432182132,0.06255263516818575,2.6991860420310885
665,0.04155937797201019,74.97680931630819,15.433305482373497,0.06241253803334248,2.6362734658519082
666,0.041559312305233756,74.97680931630819,15.393463198314809,0.06225162745465591,2.56170493903255
667,0.04155924665555794,74.97680931630819,15.351237247809546,0.062081298768470135,2.4802151371806636
668,0.041559181023010254,74.97680931630819,15.309819842583474,0.061913410143543984,2.396491541814335
669,0.04155911540761818,74.97680931630819,15.27183716614066,0.06175955452758564,2.3148510022569084
670,0.04155904980940925,74.97680931630819,15.239346447314876,0.06162983557800443,2.239001987645485
671,0.041558984228410936,74.97680931630819,15.213915568147732,0.06153162619160548,2.1718840816174603
672,0.04155891866465075,74.97680931630819,15.196656974512617,0.0614690077082935,2.1155666346677435
673,0.04155885311815618,74.97680931630819,15.188162601675186,0.0614431553588791,2.0711943293891433
674,0.041558787588954725,74.97680931630819,15.188386496552676,0.061452932284066904,2.038979805471914
675,0.04155872207707388,74.97680931630819,15.196557972568849,0.061494984451594494,2.0182552195985
676,0.041558656582541154,74.97680931630819,15.211197000007441,0.0615636714554798,2.007597329460854
677,0.04155859110538405,74.97680931630819,15.230269803733709,0.06165142285101362,2.0050271855048787
678,0.04155852564563007,74.97680931630819,15.251461439964523,0.061749458178088946,2.0082614265507566
679,0.04155846020330671,74.97680931630819,15.272483969893477,0.061848503039139635,2.014974463774264
680,0.04155839477844147,74.97680931630819,15.291334180185377,0.061939376910346934,2.023029820476585
681,0.04155832937106183,74.97680931630819,15.306464184531556,0.06201368678001733,2.030651164626853
682,0.04155826398119528,74.97680931630819,15.31687376366821,0.062064912787589945,2.036521445234884
683,0.041558198608869334,74.97680931630819,15.322132711259462,0.06208962014526121,2.0398150594376085
684,0.04155813325411149,74.97680931630819,15.322322495742076,0.062087970490846876,2.0401758322442993
685,0.04155806791694925,74.97680931630819,15.317899074987325,0.06206304986591226,2.0376550422275423
686,0.04155800259741011,74.97680931630819,15.309521056223732,0.06201950747548907,2.032628645504732
687,0.04155793729552157,74.97680931630819,15.297903639920452,0.061962365741064764,2.0257164555668203
688,0.04155787201131113,74.97680931630819,15.283720629268405,0.06189627698254456,2.0177185705600094
689,0.041557806744806296,74.97680931630819,15.267533080640373,0.061824990143887364,2.009572807851975
690,0.04155774149603457,74.97680931630819,15.249734403113715,0.06175096415967557,2.002332750179065
691,0.04155767626502344,74.97680931630819,15.230557770205097,0.0616754257895931,1.9971703529100224
692,0.04155761105180041,74.97680931630819,15.21020778865418,0.061599090111643114,1.99540403596426
693,0.04155754585639298,74.97680931630819,15.189104931399543,0.06152322889931664,1.998530079090577
694,0.04155748067882863,74.97680931630819,15.168138679316925,0.06145053686972863,2.008214944922407
695,0.04155741551913489,74.97680931630819,15.148814596116967,0.06138573653047574,2.0262145476461515
696,0.04155735037733926,74.97680931630819,15.13325432427085,0.06133615924710137,2.054212002928926
697,0.04155728525346924,74.97680931630819,15.124063075290676,0.06131190078791665,2.09358368184036
698,0.04155722014755232,74.97680931630819,15.12405437312715,0.06132472960981001,2.1451113610571233
699,0.041557155059616,74.97680931630819,15.135786978830524,0.0613857434775495,2.2086728547488286
700,0.04155708998968776,74.97680931630819,15.160912306157984,0.061502388344580876,2.282969025795746
701,0.0415570249377951,74.97680931630819,15.199455353673873,0.06167494787805729,2.365364445429898
702,0.041556959903965525,74.97680931630819,15.249282679685251,0.06189291429354991,2.451916395965504
703,0.04155689488822653,74.97680931630819,15.306051622725395,0.062133500091206814,2.537639052140269
704,0.04155682989060561,74.97680931630819,15.363819296049536,0.062365063286305054,2.6170016128956592
705,0.04155676491113024,74.97680931630819,15.41620637305192,0.06255532880545549,2.684590083318954
706,0.04155669994982793,74.97680931630819,15.457705344234357,0.06268060245457212,2.7357898890329087
707,0.0415566350067262,74.97680931630819,15.484646257243728,0.06273141320353467,2.767326497123824
708,0.04155657008185254,74.97680931630819,15.495556931713887,0.06271228167336294,2.777559598430559
709,0.04155650517523446,74.97680931630819,15.490992392989309,0.06263676684293962,2.766521425918883
710,0.04155644028689946,74.97680931630819,15.473088450440077,0.06252151484209269,2.7357577780959454
711,0.041556375416875055,74.97680931630819,15.445015594034642,0.06238242709098184,2.6880390512161365
712,0.04155631056518872,74.97680931630819,15.410381128261978,0.06223318689193809,2.6269915072611854
713,0.041556245731867975,74.97680931630819,15.37265740601399,0.062084778417207984,2.5567024238458633
714,0.04155618091694031,74.97680931630819,15.334790916009169,0.061945232862400786,2.4813616910515908
715,0.04155611612043322,74.97680931630819,15.299087313492038,0.06181981451890463,2.4049809668626247
716,0.0415560513423742,74.97680931630819,15.267306862854218,0.061711926867491614,2.331187435214336
717,0.04155598658279075,74.97680931630819,15.240809513977753,0.06162442703324927,2.2630624092807343
718,0.04155592184171037,74.97680931630819,15.220630607952595,0.06156045655218745,2.203005466165622
719,0.04155585711916056,74.97680931630819,15.207462225057947,0.06152298175271775,2.152629891580163
720,0.04155579241516882,74.97680931630819,15.201574858292012,0.06151340793082262,2.1127076956731177
721,0.04155572772976265,74.97680931630819,15.202734023767873,0.061530620141610225,2.0831818211467814
722,0.04155566306296953,74.97680931630819,15.210164989027277,0.061571132445028216,2.0632581458990025
723,0.04155559841481697,74.97680931630819,15.222603374160283,0.061629840409228004,2.0515754709917466
724,0.04155553378533245,74.97680931630819,15.238434917876043,0.061700705961050484,2.046421203293062
725,0.041555469174543475,74.97680931630819,15.255889189684169,0.061777121754719964,2.045939164844184
726,0.041555404582477556,74.97680931630819,15.273240852645174,0.06185214164438304,2.0482960771504675
727,0.041555340009162195,74.97680931630819,15.288982840638104,0.061919026765169326,2.0518109749828812
728,0.04155527545462489,74.97680931630819,15.301944609607009,0.06197217158308498,2.055058309216919
729,0.041555210918893144,74.97680931630819,15.311337148796506,0.06200788177654081,2.0569364912951618
730,0.04155514640199445,74.97680931630819,15.316727747999753,0.06202457218945726,2.0566930026017847
731,0.041555081903956306,74.97680931630819,15.317974510142195,0.062022508655699075,2.0539206204074154
732,0.04155501742480622,74.97680931630819,15.315155045362363,0.06200340910617582,2.0485487868014762
733,0.041554952964571686,74.97680931630819,15.308497237702788,0.0619699657487725,2.0408356365238207
734,0.041554888523280216,74.97680931630819,15.29829686815634,0.06192522056262287,2.0313498701567108
735,0.0415548241009593,74.97680931630819,15.284827066008322,0.061871812136370205,2.020941038706065
736,0.041554759697636445,74.97680931630819,15.268293659712487,0.06181135824600868,2.010715855985293
737,0.04155469531333914,74.97680931630819,15.248894617241307,0.06174454260140999,2.002033415417002
738,0.0415546309480949,74.97680931630819,15.226972657223675,0.06167196805939744,1.9965022127187722
739,0.04155456660193123,74.97680931630819,15.20318181866939,0.06159496935504485,1.99594361274349
740,0.04155450227487561,74.97680931630819,15.178597517121872,0.06151600329359848,2.002301761142051
741,0.041554437966955536,74.97680931630819,15.15476945667416,0.06143913155673082,2.017509773908505
742,0.04155437367819852,74.97680931630819,15.133749303500023,0.06137078303651885,2.043334520771902
743,0.041554309408632056,74.97680931630819,15.118068604009501,0.06132025690481324,2.0812077294533435
744,0.04155424515828364,74.97680931630819,15.110578517385463,0.06129941052215947,2.1320318744327666
745,0.04155418092718077,74.97680931630819,15.114082990132669,0.061321216339445116,2.19595386550909
746,0.041554116715350954,74.97680931630819,15.130786664986122,0.06139709159699047,2.2721291855576173
747,0.041554052522821676,74.97680931630819,15.161657826707438,0.061533209440904485,2.3585299487111766
748,0.04155398834962043,74.97680931630819,15.205848653995126,0.061726314317560135,2.451863606342459
749,0.0415539241957747,74.97680931630819,15.260372705693163,0.06196054866196326,2.5476634864269854
750,0.04155386006131198,74.97680931630819,15.320276092424033,0.06220808576427632,2.6405895392594094
751,0.041553795946259776,74.97680931630819,15.37940415616317,0.06243500387344514,2.724931610107484
752,0.041553731850645585,74.97680931630819,15.431559352472663,0.06260995380962378,2.795238147698502
753,0.04155366777449693,74.97680931630819,15.471628198053763,0.06271157046553037,2.8469368882225
754,0.0415536037178413,74.97680931630819,15.496343082846677,0.06273242514947457,2.876820500174705
755,0.04155353968070621,74.97680931630819,15.504587863034265,0.06267916987649713,2.8833242487601702
756,0.04155347566311915,74.97680931630819,15.49727632467972,0.06256921478293165,2.8665706212008746
757,0.04155341166510765,74.97680931630819,15.476862996304115,0.06242504804970466,2.8281978839172806
758,0.0415533476866992,74.97680931630819,15.446641579125698,0.06226826186525973,2.7710418214658725
759,0.04155328372792131,74.97680931630819,15.410081688445306,0.062115507859203015,2.6987710908933824
760,0.04155321978880145,74.97680931630819,15.370409741411505,0.06197738328127837,2.615557214205751
761,0.0415531558693671,74.97680931630819,15.33045823624105,0.06185940748643547,2.5258057937940817
762,0.04155309196964576,74.97680931630819,15.29265559445284,0.06176351765882929,2.4339305177165227
763,0.041553028089664934,74.97680931630819,15.259043194543741,0.06168931807640482,2.3441440714977517
764,0.04155296422945214,74.97680931630819,15.23129361214341,0.06163531195055641,2.2602518457093494
765,0.04155290038903489,74.97680931630819,15.210718032822305,0.06160038185101722,2.185444035404268
766,0.041552836568440686,74.97680931630819,15.198215216768148,0.06158487224201838,2.122094345825885
767,0.041552772767697026,74.97680931630819,15.194135082123857,0.061590153440048354,2.0715868130853288
768,0.0415527089868314,74.97680931630819,15.198118124462912,0.06161675816698053,2.034201812784499
769,0.04155264522587132,74.97680931630819,15.209024808680315,0.06166262146358781,2.009107292047136
770,0.04155258148484427,74.97680931630819,15.225027755392555,0.06172254710445589,1.9945020599808077
771,0.04155251776377772,74.97680931630819,15.243856751895038,0.06178878865577186,1.9879101597012003
772,0.04155245406269919,74.97680931630819,15.263128149313603,0.06185239206074745,1.986559490572892
773,0.041552390381636176,74.97680931630819,15.280675511800604,0.06190499262834578,1.9877548644657743
774,0.041552326720616185,74.97680931630819,15.294812439564184,0.06194040694352167,1.9891779213570964
775,0.041552263079666724,74.97680931630819,15.304484692422914,0.06195551552703508,1.9890829584173306
776,0.04155219945881528,74.97680931630819,15.309301725801271,0.0619504722360295,1.9863887724035265
777,0.041552135858089354,74.97680931630819,15.309464710958318,0.061928388788545424,1.980679667546293
778,0.04155207227751645,74.97680931630819,15.305619662575229,0.06189453490707162,1.9721304090103164
779,0.041552008717124056,74.97680931630819,15.298665181987241,0.06185506891366267,1.9613760103044986
780,0.041551945176939685,74.97680931630819,15.289541530004865,0.06181541968335289,1.9493557412005638
781,0.04155188165699082,74.97680931630819,15.279033444232685,0.061778854162908625,1.937163892519722
782,0.04155181815730497,74.97680931630819,15.267631013806401,0.06174602732384324,1.9259360170057591
783,0.041551754677909634,74.97680931630819,15.255484825491047,0.061715608282480273,1.9167860252295588
784,0.04155169121883231,74.97680931630819,15.24245778095994,0.061685158794466295,1.9107906458888173
785,0.04155162778010049,74.97680931630819,15.228252524091111,0.06165176407483973,1.9090068629582828
786,0.04155156436174169,74.97680931630819,15.212605880175333,0.06161277872062533,1.9125075527281
787,0.04155150096378339,74.97680931630819,15.195544152990545,0.06156699793629646,1.9224175401947838
788,0.0415514375862531,74.97680931630819,15.177640240593165,0.0615159689550388,1.9399235740096856
789,0.04155137422917833,74.97680931630819,15.160163564448851,0.06146478387514277,1.9662306906123637
790,0.04155131089258658,74.97680931630819,15.145049203616423,0.06142174031657135,2.0024545940747505
791,0.04155124757650535,74.97680931630819,15.134710430457352,0.06139702138738541,2.0494645246114556
792,0.04155118428096214,74.97680931630819,15.131765608858368,0.06140135286511084,2.1076962819620406
793,0.04155112100598445,74.97680931630819,15.138692323494077,0.061445083505223895,2.176941092156628
794,0.04155105775159978,74.97680931630819,15.157356338042295,0.061536793654902805,2.2561194768541393
795,0.04155099451783561,74.97680931630819,15.188416021491511,0.06168023961015508,2.343082988195351
796,0.041550931304719464,74.97680931630819,15.230764575910808,0.06186992100010516,2.434521950406677
797,0.041550868112278844,74.97680931630819,15.281296838372365,0.06208801266621983,2.5260627300507195
798,0.04155080494054124,74.97680931630819,15.335227754180664,0.062306276863360884,2.612600125431926
799,0.04155074178953415,74.97680931630819,15.386946457170904,0.062493421912797754,2.6888364425414695
800,0.04155067865928507,74.97680931630819,15.431123796284155,0.06262403982578142,2.7499192613183636
801,0.0415506155498215,74.97680931630819,15.46367957791051,0.06268470693772887,2.7920275485467414
802,0.04155055246117093,74.97680931630819,15.482315849626358,0.06267533374568689,2.812775268911684
803,0.04155048939336086,74.97680931630819,15.486555346499138,0.06260626968942348,2.8113712047646335
804,0.0415504263464188,74.97680931630819,15.47744294369346,0.0624934595711443,2.7885575515515795
805,0.04155036332037224,74.97680931630819,15.457127469287114,0.06235432377496419,2.7464008019782917
806,0.04155030031524868,74.97680931630819,15.428422979586172,0.06220520389001867,2.6879998336282513
807,0.04155023733107561,74.97680931630819,15.394350108700012,0.06205946973191575,2.6171486093217817
808,0.04155017436788053,74.97680931630819,15.357722744329918,0.06192588294704748,2.5379941733640194
809,0.04155011142569095,74.97680931630819,15.320923426830893,0.061808125828786316,2.4547411048926446
810,0.04155004850453437,74.97680931630819,15.285933562994117,0.06170635055683724,2.371430491356627
811,0.0415499856044383,74.97680931630819,15.254509072850938,0.06162017632005534,2.2917736000787556
812,0.04154992272543025,74.97680931630819,15.228296349544738,0.06155127008146725,2.2189907552282198
813,0.04154985986753771,74.97680931630819,15.208761878126433,0.06150381428112751,2.155629578302688
814,0.041549797030788184,74.97680931630819,15.196967031582506,0.061482720924489864,2.1033916740550116
815,0.041549734215209175,74.97680931630819,15.193312963525347,0.06149098832468589,2.06302297139771
816,0.041549671420828174,74.97680931630819,15.197378331402621,0.06152786130890896,2.0343044006454805
817,0.04154960864767268,74.97680931630819,15.207922225393624,0.06158855751292856,2.016151526966045
818,0.0415495458957702,74.97680931630819,15.223061872707444,0.0616652554588536,2.006813164943376
819,0.041549483165148234,74.97680931630819,15.240570358271732,0.06174856458681432,2.0041386541474977
820,0.04154942045583428,74.97680931630819,15.258209467023184,0.061828844579513084,2.0058653933246027
821,0.04154935776785582,74.97680931630819,15.274040612271799,0.06189722238287715,2.009880628644932
822,0.041549295101240356,74.97680931630819,15.286680358532854,0.061946692578893306,2.014426039661456
823,0.04154923245601538,74.97680931630819,15.29544488220624,0.06197355335724121,2.0182218807801404
824,0.04154916983220839,74.97680931630819,15.300326036061481,0.061978383803297545,2.0204973460159685
825,0.04154910722984689,74.97680931630819,15.30180582807286,0.06196546589253317,2.020937484840067
826,0.041549044648958394,74.97680931630819,15.300591654635173,0.06194087924465675,2.019581065405833
827,0.0415489820895704,74.97680931630819,15.297373057414136,0.06191048012641033,2.0167071436257946
828,0.0415489195517104,74.97680931630819,15.292658134388889,0.06187854220569412,2.012732547501441
829,0.0415488570354059,74.97680931630819,15.28669216310915,0.061847195805880426,2.008131061264212
830,0.041548794540684414,74.97680931630819,15.27943852420516,0.06181650151687744,2.003388215873466
831,0.04154873206757344,74.97680931630819,15.27061822381967,0.06178487225697969,1.9990066045484962
832,0.04154866961610047,74.97680931630819,15.25981778337812,0.06174972943626602,1.9955610621142241
833,0.04154860718629301,74.97680931630819,15.246654595645545,0.06170845007700295,1.9937813268062852
834,0.04154854477817856,74.97680931630819,15.23095858458128,0.06165942986167789,1.994629122587535
835,0.04154848239178464,74.97680931630819,15.21292904786049,0.06160283725914456,1.9993397107900475
836,0.04154842002713872,74.97680931630819,15.193261990630408,0.06154098490067059,2.009407467912719
837,0.04154835768426831,74.97680931630819,15.173263052313091,0.061478691370705586,2.0265042357744845
838,0.0415482953632009,74.97680931630819,15.154917124825376,0.06142364124786946,2.0523256875409928
839,0.041548233063963984,74.97680931630819,15.140830924277376,0.06138612371419223,2.0883662963999066
840,0.04154817078658506,74.97680931630819,15.133977653126992,0.06137772324229824,2.1356348315060694
841,0.04154810853109163,74.97680931630819,15.137245788094893,0.06140926777539448,2.1943447228882533
842,0.041548046297511174,74.97680931630819,15.15285762250024,0.06148860910169418,2.263634930115122
843,0.041547984085871216,74.97680931630819,15.18174570096141,0.061618372601421965,2.3413813944768895
844,0.041547921896199255,74.97680931630819,15.223006744915882,0.06179346032365228,2.4241520018299316
845,0.041547859728522776,74.97680931630819,15.273630778846599,0.06199905820380109,2.507352591715858
846,0.041547797582869285,74.97680931630819,15.328731817799346,0.06221147614716235,2.585597687406767
847,0.041547735459266294,74.97680931630819,15.382338147526616,0.06240315896824393,2.6532882639856115
848,0.0415476733577413,74.97680931630819,15.428511572830887,0.0625497658183857,2.705297927141389
849,0.04154761127832182,74.97680931630819,15.462431380821657,0.06263582944984009,2.737620467752484
850,0.04154754922103534,74.97680931630819,15.481160795570748,0.06265716685863419,2.7478506514812264
851,0.041547487185909344,74.97680931630819,15.48393616768386,0.06261975934781809,2.735420269982494
852,0.04154742517297135,74.97680931630819,15.47194532795173,0.0625357149224078,2.7015627282300962
853,0.04154736318224886,74.97680931630819,15.447743886295612,0.06241837143429379,2.6490428277902787
854,0.041547301213769365,74.97680931630819,15.414592855388767,0.062279123054868914,2.58174989173534
855,0.04154723926756038,74.97680931630819,15.375955519675385,0.06212688753861676,2.504261774480002
856,0.04154717734364941,74.97680931630819,15.335205094346852,0.06196927289990455,2.4214370008520065
857,0.04154711544206395,74.97680931630819,15.295454630703265,0.06181413866061035,2.3380421402319977
858,0.04154705356283148,74.97680931630819,15.259437660464453,0.06167061523860294,2.2584167924307614
859,0.04154699170597952,74.97680931630819,15.229431126045608,0.061548906875947516,2.186193664996784
860,0.04154692987153557,74.97680931630819,15.207202590813369,0.061458681239396816,2.1240886877378635
861,0.04154686805952713,74.97680931630819,15.193930857337461,0.06140687479952603,2.0737653250220465
862,0.0415468062699817,74.97680931630819,15.190078854654729,0.061396351829332715,2.0357799407450874
863,0.04154674450292678,74.97680931630819,15.19527579524277,0.061425977756304685,2.009620904786738
864,0.04154668275838985,74.97680931630819,15.208296654266958,0.061491349363539734,1.993843544185995
865,0.04154662103639842,74.97680931630819,15.22717544083984,0.06158528789050041,1.9862846613979046
866,0.04154655933697997,74.97680931630819,15.249432044975686,0.0616979824114689,1.9843332297430103
867,0.04154649766016201,74.97680931630819,15.272377284769911,0.06181726025692474,1.9852342012718591
868,0.041546436005972034,74.97680931630819,15.293449218789034,0.06192952253589358,1.986395879233648
869,0.04154637437443755,74.97680931630819,15.310509842779947,0.06202155307227811,1.9856589904498203
870,0.041546312765586055,74.97680931630819,15.322029603676668,0.0620827700148144,1.981485161356418
871,0.041546251179445055,74.97680931630819,15.327133396139507,0.0621069735048353,1.9730472411393594
872,0.041546189616042055,74.97680931630819,15.325545551621296,0.06209289282609392,1.9602361210633907
873,0.041546128075404566,74.97680931630819,15.317489119629565,0.062043562992465114,1.9436102261345876
874,0.041546066557560095,74.97680931630819,15.303564361357777,0.061964962588417986,1.924307344334514
875,0.04154600506253614,74.97680931630819,15.284620397476443,0.06186451173237743,1.903932845746174
876,0.0415459435903602,74.97680931630819,15.261662622958108,0.061750129075974956,1.8844379862408411
877,0.04154588214105978,74.97680931630819,15.23584487839208,0.061630093799592264,1.868000413124227
878,0.04154582071466239,74.97680931630819,15.208543783208412,0.06151321145143976,1.8569102628694327
879,0.041545759311195515,74.97680931630819,15.181448171718886,0.06140862754792683,1.8534497502659457
880,0.04154569793068666,74.97680931630819,15.156584706062342,0.06132512832738542,1.8597471209571506
881,0.04154563657316332,74.97680931630819,15.136256407626645,0.06127034806434375,1.8776012020206958
882,0.04154557523865299,74.97680931630819,15.122921208956031,0.06125044563110908,1.9082908537066052
883,0.041545513927183156,74.97680931630819,15.119011763380728,0.06127028622692484,1.9523795970801778
884,0.04154545263878133,74.97680931630819,15.12664283321666,0.06133347104982572,2.0095178480448213
885,0.041545391373475,74.97680931630819,15.147170625100554,0.06144162051224433,2.0782627915265537
886,0.04154533013129167,74.97680931630819,15.180682565361696,0.061592975039360745,2.155968776529219
887,0.041545268912258834,74.97680931630819,15.225601790280678,0.061780653734462364,2.23881314819586
888,0.041545207716403985,74.97680931630819,15.27858960533604,0.06199129575995818,2.3219996067241953
889,0.041545146543754616,74.97680931630819,15.334850762034161,0.06220566761364559,2.400142256199486
890,0.041545085394338224,74.97680931630819,15.388820614247873,0.06240209064850581,2.467791695955141
891,0.04154502426818233,74.97680931630819,15.435052659997158,0.06256113858909984,2.5200227275601557
892,0.04154496316531445,74.97680931630819,15.469037333463627,0.06266906956575101,2.5529798130345864
893,0.04154490208576208,74.97680931630819,15.48774781438508,0.06271861373323133,2.5642885380810605
894,0.04154484102955273,74.97680931630819,15.489864167033126,0.06270756839331561,2.5532837417618373
895,0.04154477999671389,74.97680931630819,15.475747348654094,0.06263705170890176,2.521050858359868
896,0.04154471898727306,74.97680931630819,15.447244980218219,0.0625109868702463,2.4702961223731856
897,0.04154465800125774,74.97680931630819,15.407375054911345,0.06233681297311865,2.405062281441887
898,0.04154459703869543,74.97680931630819,15.359945929749406,0.062126376174710465,2.3303228596928878
899,0.04154453609961364,74.97680931630819,15.309193266651965,0.061895930206217746,2.251512978860355
900,0.04154447518403986,74.97680931630819,15.259474733418342,0.06166484986748738,2.174055720403764
901,0.0415444142920016,74.97680931630819,15.21498744375142,0.06145354150187087,2.102922113399963
902,0.04154435342352637,74.97680931630819,15.17944195269096,0.06128118581570182,2.042246710386561
903,0.04154429257864168,74.97680931630819,15.155672334593925,0.061163386121774674,1.995015930366827
904,0.041544231757375025,74.97680931630819,15.14523671226838,0.06110970459772376,1.9628472764120184
905,0.0415441709597539,74.97680931630819,15.148124354718822,0.061121834107962694,1.9458912809176485
906,0.04154411018580578,74.97680931630819,15.162714635993483,0.06119350765301349,1.9429020232251055
907,0.04154404943555818,74.97680931630819,15.186070416195575,0.06131228361319346,1.9514950717209594
908,0.04154398870903858,74.97680931630819,15.21449490170654,0.06146216664033604,1.9685484673467848
909,0.04154392800627449,74.97680931630819,15.244164526738308,0.0616259046885102,1.9906611223281627
910,0.041543867327293406,74.97680931630819,15.271664319680035,0.06178657767352771,2.0145866790783122
911,0.041543806672122825,74.97680931630819,15.29435225528401,0.061928994133960344,2.0375826298228508
912,0.041543746040790266,74.97680931630819,15.310553631321454,0.06204140633586478,2.0576363987551387
913,0.04154368543332322,74.97680931630819,15.31958763032886,0.062117025640298834,2.0735550370228246
914,0.04154362484974919,74.97680931630819,15.321620111228917,0.062154410774492005,2.0849322766604272
915,0.04154356429009567,74.97680931630819,15.317380796537705,0.062156508619866935,2.092028824017228
916,0.041543503754390164,74.97680931630819,15.307850624591216,0.062128784919188794,2.0956154146114305
917,0.04154344324266018,74.97680931630819,15.294042175676477,0.06207725454111094,2.09682716859701
918,0.041543382754933224,74.97680931630819,15.276929749988943,0.062007338244081396,2.0970538916603596
919,0.041543322291236785,74.97680931630819,15.257492062139681,0.06192387918285619,2.097856147101197
920,0.04154326185159837,74.97680931630819,15.23679465230294,0.061831755950506405,2.10088310107909
921,0.041543201436045486,74.97680931630819,15.216070965146086,0.06173635677533318,2.107782554936835
922,0.041543141044605617,74.97680931630819,15.196792266115404,0.0616437553506412,2.120105191576716
923,0.04154308067730628,74.97680931630819,15.180704350745513,0.061560744239514506,2.1392002836023774
924,0.04154302033417496,74.97680931630819,15.169785949080323,0.06149473598238104,2.1660974047455244
925,0.04154296001523917,74.97680931630819,15.166091730857048,0.061453570238733275,2.2013705227503166
926,0.04154289972052641,74.97680931630819,15.17148156597971,0.06144526267777144,2.2449800505606152
927,0.041542839450064185,74.97680931630819,15.187269117721197,0.06147737050393993,2.296098928473606
928,0.04154277920388,74.97680931630819,15.21382283932392,0.06155548504528438,2.352957732443962
929,0.04154271898200134,74.97680931630819,15.250164701795537,0.06168057279969789,2.4127710257726998
930,0.04154265878445572,74.97680931630819,15.29368998438517,0.06184557501604648,2.471814889816582
931,0.04154259861127063,74.97680931630819,15.340217760683068,0.06203338029502836,2.5257070802086905
932,0.04154253846247357,74.97680931630819,15.38451669207707,0.062219066926330294,2.5698855557365796
933,0.04154247833809205,74.97680931630819,15.42120723406197,0.06237640017061543,2.600203106740588
934,0.04154241823815357,74.97680931630819,15.445744197645245,0.06248475507997134,2.613511272729011
935,0.04154235816268562,74.97680931630819,15.455191355097371,0.06253276524506422,2.6081199953855903
936,0.04154229811171569,74.97680931630819,15.448612614120357,0.06251810194910717,2.5840564495684317
937,0.04154223808527128,74.97680931630819,15.427036980200237,0.06244513863402594,2.5430868327382776
938,0.04154217808337989,74.97680931630819,15.393107027668528,0.06232266122965177,2.488512893351154
939,0.04154211810606904,74.97680931630819,15.350606605935088,0.06216269472866866,2.4247939613377714
940,0.04154205815336623,74.97680931630819,15.304008903576662,0.06197998873789468,2.357057622113427
941,0.04154199822529898,74.97680931630819,15.258059046484924,0.061791083523338466,2.2905579622437986
942,0.04154193832189478,74.97680931630819,15.217334169307618,0.06161257599978335,2.230136814902065
943,0.041541878443181135,74.97680931630819,15.185758579522352,0.06145918455324004,2.1797441335405336
944,0.04154181858918553,74.97680931630819,15.166122818886707,0.06134226564278277,2.142068618957644
945,0.04154175875993545,74.97680931630819,15.159701962372196,0.06126903499824105,2.118317206601618
946,0.041541698955458416,74.97680931630819,15.16609220878351,0.06124271918500266,2.108172592741755
947,0.041541639175781915,74.97680931630819,15.183350655966574,0.0612635062248005,2.1099443750848477
948,0.04154157942093344,74.97680931630819,15.208407786187355,0.06132933472238176,2.120893415156762
949,0.04154151969094052,74.97680931630819,15.237612718541127,0.0614355614251479,2.1376657735444895
950,0.04154145998583064,74.97680931630819,15.267263021228208,0.06157366499969638,2.156757322888145
951,0.04154140030563132,74.97680931630819,15.294044237833695,0.061730341342499766,2.174943432096526
952,0.041541340650370046,74.97680931630819,15.315361010955657,0.06188850366082572,2.189621556530773
953,0.04154128102007433,74.97680931630819,15.329536868808123,0.0620302807234718,2.199023563472275
954,0.04154122141477168,74.97680931630819,15.335851863894785,0.06214041893468049,2.202279791019923
955,0.04154116183448959,74.97680931630819,15.334426691426852,0.06220855288993498,2.1993592059233826
956,0.041541102279255566,74.97680931630819,15.326013903097842,0.06223006863144421,2.190940347557513
957,0.0415410427490971,74.97680931630819,15.311767122282712,0.06220584755190749,2.1782620178558223
958,0.04154098324404169,74.97680931630819,15.293029573070395,0.06214108579525078,2.1629742273999537
959,0.041540923764116854,74.97680931630819,15.27116236774195,0.062043552434793856,2.1469927468213
960,0.04154086430935007,74.97680931630819,15.247444961536592,0.06192197285471513,2.1323634887521568
961,0.041540804879768835,74.97680931630819,15.22308835893437,0.06178523862547207,2.121146800254366
962,0.04154074547540063,74.97680931630819,15.199363316916974,0.06164268875071326,2.1153233358279198
963,0.041540686096272955,74.97680931630819,15.177783563477742,0.061505020421212406,2.1167076922218353
964,0.04154062674241332,74.97680931630819,15.160247733366703,0.061384964613647265,2.126845653350822
965,0.04154056741384926,74.97680931630819,15.149034877934964,0.0612968674587445,2.146870899298645
966,0.04154050811060826,74.97680931630819,15.146575218186014,0.0612548387659993,2.177312263127529
967,0.04154044883271784,74.97680931630819,15.155006330580424,0.06127010248844815,2.2178772129065205
968,0.041540389580205485,74.97680931630819,15.175617804306624,0.06134859721563347,2.267268746633402
969,0.0415403303530987,74.97680931630819,15.208315442371102,0.061489092183832306,2.3230949636966085
970,0.04154027115142499,74.97680931630819,15.251237257591914,0.061681470415831746,2.3819142268174187
971,0.041540211975211835,74.97680931630819,15.300677760229812,0.06190592259274066,2.4394435265685774
972,0.04154015282448675,74.97680931630819,15.351463361671604,0.062135118110205646,2.490937868173749
973,0.04154009369927725,74.97680931630819,15.397767417111742,0.06233989828030838,2.531711470688714
974,0.04154003459961084,74.97680931630819,15.434130677926808,0.062495859176274524,2.557724608476847
975,0.041539975525515006,74.97680931630819,15.456380819615747,0.06258761425715635,2.566129259339258
976,0.04153991647701726,74.97680931630819,15.46224757146981,0.06260966606653573,2.555667970800258
977,0.0415398574541451,74.97680931630819,15.451582344943832,0.06256487831823616,2.5268515231165276
978,0.04153979845692603,74.97680931630819,15.426179706265211,0.06246229641231055,2.4818918848167377
979,0.04153973948538752,74.97680931630819,15.389309218504701,0.06231533340977846,2.424416528966272
980,0.041539680539557075,74.97680931630819,15.345140863168057,0.06214012721776381,2.3590275121607314
981,0.041539621619462196,74.97680931630819,15.2982206073371,0.06195374399602564,2.290792260578924
982,0.04153956272513038,74.97680931630819,15.25305061747741,0.06177245661820836,2.22474339193655
983,0.04153950385658914,74.97680931630819,15.213739635286204,0.061610403793204795,2.165426113333496
984,0.04153944501386597,74.97680931630819,15.183679042124714,0.06147868513111799,2.1165071909950717
985,0.041539386196988395,74.97680931630819,15.165234992369376,0.06138481723729618,2.080464280412429
986,0.04153932740598391,74.97680931630819,15.159483091539384,0.06133251300037568,2.058388341545593
987,0.04153926864088001,74.97680931630819,15.166056665698118,0.06132198829624521,2.0499365777982996
988,0.04153920990170421,74.97680931630819,15.18319857496358,0.061350929544507216,2.0534552493176563
989,0.04153915118848401,74.97680931630819,15.20804700575392,0.06141542237158872,2.0662549299731903
990,0.04153909250124692,74.97680931630819,15.237082621571792,0.06150974288436622,2.0849896272063586
991,0.04153903384002044,74.97680931630819,15.266615009263369,0.061625091022837836,2.1060825218857078
992,0.04153897520483206,74.97680931630819,15.293226979457865,0.06174872783030152,2.126149381262342
993,0.04153891659570927,74.97680931630819,15.314149997903618,0.06186483184505253,2.1423765395557623
994,0.04153885801267958,74.97680931630819,15.327542789671723,0.06195730001949007,2.1528065262696154
995,0.041538799455770485,74.97680931630819,15.33262831382659,0.06201366419034952,2.1564875737897578
996,0.04153874092500948,74.97680931630819,15.329671841267356,0.0620284121144018,2.153468261143223
997,0.04153868242042408,74.97680931630819,15.319834604642573,0.06200413611272746,2.1446569040541013
998,0.04153862394204177,74.97680931630819,15.30495669935971,0.061950300642637464,2.131594077956202
999,0.04153856548989005,74.97680931630819,15.287296511100969,0.06188045239673115,2.116190589453406
1000,0.041538507063996435,74.97680931630819,15.269225562037866,0.061808763535740836,2.1004679009397984
1001,0.041538448664388425,74.97680931630819,15.252897616568864,0.06174692725715631,2.08632358099957
1002,0.041538390291093526,74.97680931630819,15.23996916291467,0.06170255328241914,2.0753421048854324
1003,0.04153833194413924,74.97680931630819,15.231461107894003,0.06167921842067376,2.0686689809316947
1004,0.041538273623553064,74.97680931630819,15.227775050768138,0.061677171301622286,2.066951437636916
1005,0.0415382153293625,74.97680931630819,15.228794146611916,0.061694010664581654,2.070333868893534
1006,0.04153815706159505,74.97680931630819,15.233999110184449,0.06172543647455515,2.078493815498593
1007,0.0415380988202782,74.97680931630819,15.24258760737486,0.06176620468888648,2.090707343573065
1008,0.041538040605439475,74.97680931630819,15.253608619259962,0.061811198816426424,2.1059348014517143
1009,0.04153798241710638,74.97680931630819,15.26608832345589,0.061856358805138546,2.122920716236454
1010,0.041537924255306405,74.97680931630819,15.279093538613644,0.06189903801207377,2.140298209045431
1011,0.04153786612006707,74.97680931630819,15.291708725967196,0.06193747875338333,2.156681258814276
1012,0.04153780801141588,74.97680931630819,15.302980231681195,0.061969708925369224,2.170741999767354
1013,0.04153774992938033,74.97680931630819,15.31191669582653,0.06199275306347153,2.181297054064342
1014,0.04153769187398791,74.97680931630819,15.317566383425458,0.062002816975415986,2.1874209449630326
1015,0.041537633845266125,74.97680931630819,15.319106113299497,0.061996256663639,2.1885678663060473
1016,0.04153757584324247,74.97680931630819,15.3158818336749,0.061970614640093485,2.1846668717509425
1017,0.04153751786794443,74.97680931630819,15.307417336772962,0.0619252180368454,2.1761751210311107
1018,0.04153745991939949,74.97680931630819,15.293452774771628,0.06186121184188805,2.164095448247081
1019,0.04153740199763518,74.97680931630819,15.274036312537637,0.06178101813619822,2.149962720648651
1020,0.041537344102678994,74.97680931630819,15.249627711987792,0.061687627390533566,2.1357913770073336
1021,0.04153728623455845,74.97680931630819,15.221168158648823,0.06158446329564634,2.1239815106481124
1022,0.041537228393301054,74.97680931630819,15.190127265792293,0.061475976355333264,2.1171990139088375
1023,0.041537170578934315,74.97680931630819,15.15856717053953,0.0613685631994869,2.118240854827693
1024,0.04153711279148573,74.97680931630819,15.129208019853216,0.06127134974333989,2.12986383829124
1025,0.04153705503098279,74.97680931630819,15.105397574069714,0.061196161834663046,2.1545373602254125
1026,0.041536997297452985,74.97680931630819,15.090880054828183,0.06115634275510882,2.194106580226272
1027,0.041536939590923826,74.97680931630819,15.089349122189766,0.06116508546304263,2.2494052377497997
1028,0.04153688191142281,74.97680931630819,15.10385727742423,0.06123388493885314,2.319894884792508
1029,0.04153682425897744,74.97680931630819,15.136145047467984,0.06137053030374653,2.4034017623002417
1030,0.04153676663361522,74.97680931630819,15.18592785635351,0.06157572778880952,2.4960022503066877
1031,0.04153670903536364,74.97680931630819,15.250280784696077,0.0618388205794471,2.5921162975434497
1032,0.04153665146425021,74.97680931630819,15.323450394504336,0.06213521113158883,2.684884695855729
1033,0.04153659392030244,74.97680931630819,15.397439121406117,0.06242870955355593,2.7668649885175514
1034,0.04153653640354785,74.97680931630819,15.463385761943101,0.06267938787581942,2.830963394255314
1035,0.04153647891401392,74.97680931630819,15.513331528778524,0.06285382261939981,2.871401602944495
1036,0.041536421451728166,74.97680931630819,15.54176598139846,0.06293319710349395,2.8844921961374106
1037,0.04153636401671807,74.97680931630819,15.546463152627084,0.06291581094871847,2.8690673552062633
1038,0.041536306609011135,74.97680931630819,15.528439592276717,0.06281358299209441,2.826510826996135
1039,0.04153624922863487,74.97680931630819,15.49124385895736,0.0626457985515115,2.760442328519793
1040,0.04153619187561679,74.97680931630819,15.439999115432116,0.062434091391079936,2.676170532337072
1041,0.04153613454998438,74.97680931630819,15.380542619537088,0.06219991868426385,2.5800415654419244
1042,0.04153607725176515,74.97680931630819,15.318762655531147,0.061963314393924745,2.4787774733532038
1043,0.0415360199809866,74.97680931630819,15.260080013188693,0.061741643535528024,2.3788670190751073
1044,0.041535962737676235,74.97680931630819,15.209049368249673,0.06154819896940561,2.2860556160439094
1045,0.04153590552186155,74.97680931630819,15.169103737985695,0.0613911996827138,2.204962895806366
1046,0.04153584833357006,74.97680931630819,15.14242690287902,0.06127374104008582,2.1388339279477746
1047,0.04153579117282926,74.97680931630819,15.129900517749284,0.061194893335367956,2.089418450647563
1048,0.04153573403966665,74.97680931630819,15.131102834198847,0.06115176070777254,2.056971236083318
1049,0.041535676934109735,74.97680931630819,15.144391733125808,0.06114182785635772,2.040369906669573
1050,0.04153561985618602,74.97680931630819,15.16711383625764,0.06116444452004729,2.037345577712367
1051,0.041535562805923014,74.97680931630819,15.195936582814745,0.061220513404935034,2.044807277162158
1052,0.04153550578334821,74.97680931630819,15.227257637710647,0.06131042337670946,2.0592227877704654
1053,0.04153544878848911,74.97680931630819,15.257631236364048,0.06143126000864332,2.0770120282597073
1054,0.0415353918213732,74.97680931630819,15.284145193425186,0.06157488273966076,2.094910942782567
1055,0.04153533488202797,74.97680931630819,15.304685243875749,0.061728139038212754,2.110265145675745
1056,0.04153527797048092,74.97680931630819,15.318047850176361,0.06187523309087891,2.121218300907648
1057,0.041535221086759555,74.97680931630819,15.323902351835468,0.06200116600860138,2.1267800314775696
1058,0.04153516423089139,74.97680931630819,15.322645072087965,0.06209489925505385,2.1267876014620817
1059,0.041535107402903934,74.97680931630819,15.315212258994494,0.062151179606700156,2.1217946162188337
1060,0.04153505060282469,74.97680931630819,15.302905184508234,0.06217060649202782,2.11291681440704
1061,0.041534993830681155,74.97680931630819,15.287246179658121,0.062158243708540506,2.101654000121268
1062,0.04153493708650083,74.97680931630819,15.269863874769788,0.062121524709323514,2.0897047072356703
1063,0.04153488037031121,74.97680931630819,15.252400208554565,0.06206833559907019,2.078790107536572
1064,0.04153482368213981,74.97680931630819,15.236429438037304,0.06200587905099997,2.070496283817119
1065,0.04153476702201412,74.97680931630819,15.223380503571228,0.061940255164534046,2.0661370336862945
1066,0.04153471038996164,74.97680931630819,15.214459372079029,0.06187624942502311,2.0666417270924065
1067,0.041534653786009894,74.97680931630819,15.210584494727952,0.061817113980003495,2.0724770410535007
1068,0.041534597210186396,74.97680931630819,15.212360732426065,0.061764678976296304,2.0836071030941627
1069,0.041534540662518646,74.97680931630819,15.220086580072627,0.061719964488724945,2.0994859948945073
1070,0.04153448414303415,74.97680931630819,15.233737528162074,0.06168390526672265,2.1190708518805
1071,0.04153442765176041,74.97680931630819,15.25287112391859,0.061658000550950845,2.140851491250963
1072,0.04153437118872492,74.97680931630819,15.27647201620971,0.06164506913764873,2.162909039743254
1073,0.041534314753955165,74.97680931630819,15.302822509341445,0.06164959012087821,2.183025091163625
1074,0.04153425834747865,74.97680931630819,15.329489458942597,0.06167639492675807,2.198854300722907
1075,0.041534201969322865,74.97680931630819,15.353484568030705,0.061727478918759605,2.2081534625834656
1076,0.04153414561951532,74.97680931630819,15.37161238985235,0.06179864028700343,2.2090450803129835
1077,0.041534089298083506,74.97680931630819,15.380965625457256,0.06187820401900333,2.2002888593828027
1078,0.04153403300505493,74.97680931630819,15.379466787297314,0.06194893146387123,2.1815277908842314
1079,0.041533976740457085,74.97680931630819,15.366324495053751,0.06199282521327832,2.153462021126773
1080,0.041533920504317486,74.97680931630819,15.342295103944885,0.06199715464015763,2.1178979965650724
1081,0.041533864296663635,74.97680931630819,15.309691524335504,0.06195887896002667,2.0776359819650247
1082,0.04153380811752303,74.97680931630819,15.272129295515533,0.06188534061292761,2.036195647882565
1083,0.041533751966923174,74.97680931630819,15.234042785984967,0.061791384952191705,1.9974169653446279
1084,0.04153369584489158,74.97680931630819,15.2000382241689,0.06169462963764992,1.9649920512138481
1085,0.041533639751455756,74.97680931630819,15.174172683228619,0.06161072646197213,1.9419901356687925
1086,0.041533583686643206,74.97680931630819,15.159288712096547,0.06154998295453328,1.9304481491956205
1087,0.041533527650481426,74.97680931630819,15.156584142238714,0.061516291165497644,1.9311076027486356
1088,0.04153347164299792,74.97680931630819,15.165554047704743,0.061508725785527116,1.9433587613614405
1089,0.041533415664220204,74.97680931630819,15.184278089854262,0.061524683291163264,1.9653950419889266
1090,0.041533359714175794,74.97680931630819,15.209886423961448,0.0615621351741819,1.9945195538643554
1091,0.0415333037928922,74.97680931630819,15.239043285840703,0.06161946236558553,2.0275261946403953
1092,0.041533247900396905,74.97680931630819,15.26838948835205,0.061693608537512726,2.0610962563310524
1093,0.04153319203671741,74.97680931630819,15.294946417540316,0.061778550793876015,2.092170371060947
1094,0.0415331362018812,74.97680931630819,15.316453072635236,0.061865420714891366,2.1182563598263755
1095,0.04153308039591577,74.97680931630819,15.331568923111963,0.06194413749914939,2.1376320791149444
1096,0.04153302461884864,74.97680931630819,15.339901734493656,0.062005681232732854,2.1494174725677295
1097,0.04153296887070728,74.97680931630819,15.341882740566543,0.06204407699910961,2.1535213595239364
1098,0.0415329131515192,74.97680931630819,15.338551228116923,0.062057355782180086,2.150501279616608
1099,0.041532857461311905,74.97680931630819,15.331301215058126,0.062047301792382305,2.141386433483947
1100,0.04153280180011291,74.97680931630819,15.321611423001427,0.06201819559984023,2.127497691129206
1101,0.041532746167949705,74.97680931630819,15.310778138782945,0.06197499272931966,2.1102809006812975
1102,0.04153269056484982,74.97680931630819,15.299708777701843,0.06192183844435809,2.09116910601052
1103,0.04153263499084074,74.97680931630819,15.288842574121464,0.06186167419685503,2.0714900279546953
1104,0.04153257944594998,74.97680931630819,15.27819269303788,0.06179662354449882,2.052423007697874
1105,0.04153252393020501,74.97680931630819,15.267424321222139,0.06172828135220011,2.034993771849924
1106,0.041532468443633355,74.97680931630819,15.255900306769954,0.06165747739853317,2.0200953822295253
1107,0.04153241298626252,74.97680931630819,15.242726475912331,0.0615837626018036,2.008542010455426
1108,0.04153235755812,74.97680931630819,15.226889649102876,0.061505453561876075,2.001166726604219
1109,0.0415323021592333,74.97680931630819,15.207522084536588,0.06142096047643257,1.9989461786627971
1110,0.04153224678962993,74.97680931630819,15.184215902380602,0.061330946160497016,2.0031059639597757
1111,0.04153219144933741,74.97680931630819,15.15728632149643,0.06124003816913053,2.0151646715540195
1112,0.04153213613838324,74.97680931630819,15.127967928210888,0.06115719297817701,2.036901620065768
1113,0.04153208085679492,74.97680931630819,15.098578530850332,0.061094589058499224,2.0702489660189967
1114,0.041532025604599954,74.97680931630819,15.072597798838622,0.06106576941588105,2.1171015104009334
1115,0.041531970381825836,74.97680931630819,15.054500355963617,0.061083940615055954,2.179029263234648
1116,0.04153191518850005,74.97680931630819,15.049220045769857,0.06116017995356991,2.256894212634983
1117,0.041531860024650105,74.97680931630819,15.061292730598382,0.06130098046895673,2.3504168302073754
1118,0.041531804890303496,74.97680931630819,15.093855836904986,0.061506061899762286,2.4577808932719383
1119,0.04153174978548773,74.97680931630819,15.147674015396168,0.06176742223329693,2.5753752894890853
1120,0.04153169471023031,74.97680931630819,15.220346391841606,0.0620686974269478,2.6977583789138486
1121,0.041531639664558744,74.97680931630819,15.305970473588998,0.06238437620607848,2.8179210318368253
1122,0.04153158464850052,74.97680931630819,15.395637249313552,0.06268125037941398,2.9278996420545647
1123,0.04153152966208316,74.97680931630819,15.478900168035247,0.06292406308316706,3.019700952918049
1124,0.04153147470533415,74.97680931630819,15.545835565210062,0.06308344099308806,3.0863661688206365
1125,0.04153141977828102,74.97680931630819,15.588987018060568,0.06314251682054332,3.122927750140213
1126,0.041531364880951285,74.97680931630819,15.604617079882898,0.06309999178513824,3.1270505668282995
1127,0.04153131001337242,74.97680931630819,15.59300457518445,0.06296867233499287,3.099244965685393
1128,0.04153125517557194,74.97680931630819,15.557827801945072,0.06277008844847604,3.0426459353106226
1129,0.04153120036757735,74.97680931630819,15.504974949349496,0.06252823513174724,2.96245864556974
1130,0.041531145589416146,74.97680931630819,15.441277777150658,0.062265862080450866,2.865235030841223
1131,0.04153109084111582,74.97680931630819,15.373527002342865,0.062003796769606115,2.758129711664989
1132,0.04153103612270388,74.97680931630819,15.307827977458754,0.061760903705073686,2.648216487328133
1133,0.04153098143420783,74.97680931630819,15.249181998671265,0.061552716931186496,2.5419015206546978
1134,0.04153092677565517,74.97680931630819,15.201234808198459,0.06138931200949089,2.444469542174699
1135,0.041530872147073405,74.97680931630819,15.16621512671879,0.06127426856563114,2.359800170232836
1136,0.04153081754849004,74.97680931630819,15.145039284325495,0.06120564897836367,2.290263189118956
1137,0.04153076297993259,74.97680931630819,15.13748238875291,0.06117833439752374,2.2367625369206774
1138,0.04153070844142856,74.97680931630819,15.142333361453279,0.06118639942225764,2.198878291979095
1139,0.041530653933005444,74.97680931630819,15.157535841777964,0.06122454747189085,2.1750667154143173
1140,0.04153059945469073,74.97680931630819,15.18036458470617,0.06128823960030051,2.1629023359471495
1141,0.041530545006511925,74.97680931630819,15.20766769675452,0.06137287453525696,2.159360308560477
1142,0.04153049058849654,74.97680931630819,15.236170051300292,0.06147284091222068,2.1611376872026704
1143,0.04153043620067207,74.97680931630819,15.262803788624348,0.06158094727799121,2.164996233598254
1144,0.04153038184306603,74.97680931630819,15.285009352750876,0.061688390460969265,2.168084550606353
1145,0.041530327515705914,74.97680931630819,15.300955774987697,0.06178554434580786,2.168191423162204
1146,0.041530273218619206,74.97680931630819,15.309659247620727,0.06186362372623854,2.1639021243541023
1147,0.04153021895183342,74.97680931630819,15.3110017479708,0.061916576835358526,2.154650477214526
1148,0.04153016471537606,74.97680931630819,15.305658831213695,0.061942265899247756,2.140672091995289
1149,0.041530110509274645,74.97680931630819,15.294954289469578,0.06194241577864254,2.122877743059862
1150,0.041530056333556685,74.97680931630819,15.280661492684288,0.0619216121496645,2.1026752535076603
1151,0.041530002188249676,74.97680931630819,15.26476435675804,0.0618861281863428,2.081767861009221
1152,0.04152994807338112,74.97680931630819,15.24920752838151,0.06184293934399827,2.0619567279852884
1153,0.041529893988978515,74.97680931630819,15.235694026486831,0.061798698981926074,2.0449718139739814
1154,0.041529839935069375,74.97680931630819,15.225566991564362,0.061758687610007856,2.0323353858110136
1155,0.04152978591168118,74.97680931630819,15.21974917206922,0.061726158165702226,2.025241361914393
1156,0.04152973191884145,74.97680931630819,15.218695179998525,0.061702370949843766,2.0244401721858987
1157,0.041529677956577686,74.97680931630819,15.222357370594562,0.06168728039271955,2.030146167890183
1158,0.041529624024917396,74.97680931630819,15.23019384748739,0.061680424744535896,2.04199703372504
1159,0.041529570123888075,74.97680931630819,15.241215901264043,0.06168131000524057,2.059079369492108
1160,0.04152951625351721,74.97680931630819,15.254043234228906,0.061689042629036545,2.080015113871696
1161,0.0415294624138323,74.97680931630819,15.26695793832092,0.0617017274813976,2.1031009017178253
1162,0.04152940860486085,74.97680931630819,15.277996829757845,0.0617162976454873,2.1265024443935463
1163,0.04152935482663039,74.97680931630819,15.285132587996419,0.06172893417318187,2.1485051832167232
1164,0.04152930107916841,74.97680931630819,15.286544256231648,0.061735617579692176,2.1677964204773565
1165,0.04152924736250243,74.97680931630819,15.280924615678996,0.0617323696068616,2.1837251993816666
1166,0.04152919367665995,74.97680931630819,15.267766616029407,0.0617154887864829,2.196482722686096
1167,0.04152914002166848,74.97680931630819,15.247594110594132,0.06168242612668644,2.2071638952847623
1168,0.041529086397555516,74.97680931630819,15.222109496958067,0.06163339226564614,2.2176904379339453
1169,0.041529032804348553,74.97680931630819,15.19421013745161,0.06157306819364947,2.2305891114819145
1170,0.0415289792420751,74.97680931630819,15.167810440896595,0.061511388768321504,2.2486330046209897
1171,0.04152892571076265,74.97680931630819,15.147433932109738,0.0614626408997697,2.2743819667211973
1172,0.041528872210438716,74.97680931630819,15.137598166767267,0.06144300202971894,2.3096895688442096
1173,0.0415288187411308,74.97680931630819,15.142059861804904,0.06146718408988111,2.3552545241103093
1174,0.0415287653028664,74.97680931630819,15.163008155242489,0.061544786365235214,2.4102862477174507
1175,0.041528711895673025,74.97680931630819,15.200333855683569,0.06167685230766618,2.472348671933211
1176,0.04152865851957818,74.97680931630819,15.251189932058296,0.06185340473672127,2.537444364163068
1177,0.041528605174609365,74.97680931630819,15.310120124679152,0.06205347696694123,2.600379495220224
1178,0.041528551860794086,74.97680931630819,15.369902520256062,0.06224898295918037,2.6553921379189998
1179,0.04152849857815984,74.97680931630819,15.422920511143591,0.06241160078953521,2.6969451032600014
1180,0.041528445326734144,74.97680931630819,15.462617770128038,0.06251978775031278,2.7205245587188203
1181,0.041528392106544486,74.97680931630819,15.48461532257198,0.06256313803446198,2.7232797412812877
1182,0.041528338917618375,74.97680931630819,15.487239496907561,0.06254267201604415,2.704380116801412
1183,0.04152828575998331,74.97680931630819,15.471409752843538,0.06246749019027456,2.665042126440218
1184,0.0415282326336668,74.97680931630819,15.440057900101412,0.06235021745165985,2.6082704033344863
1185,0.04152817953869634,74.97680931630819,15.397385787993533,0.062204054629143114,2.53841736632212
1186,0.041528126475099444,74.97680931630819,15.348203370375934,0.0620422007260043,2.4606605862616733
1187,0.04152807344290361,74.97680931630819,15.297402901096351,0.06187805566988178,2.3804630004697356
1188,0.04152802044213632,74.97680931630819,15.249520959211463,0.06172442836160122,2.3030603442918935
1189,0.04152796747282509,74.97680931630819,15.208382678940728,0.06159177218638335,2.233016882687919
1190,0.041527914534997434,74.97680931630819,15.176867792483996,0.061486760676611435,2.1738848811665217
1191,0.04152786162868086,74.97680931630819,15.156801293763694,0.061411976364468115,2.127987399716479
1192,0.041527808753902856,74.97680931630819,15.148924050067826,0.06136658874461525,2.0963271385567026
1193,0.04152775591069093,74.97680931630819,15.152903160700975,0.06134774504195942,2.078612588737711
1194,0.041527703099072596,74.97680931630819,15.167386896993799,0.06135229310368657,2.0733856401054007
1195,0.04152765031907536,74.97680931630819,15.190138894091053,0.061378099421709374,2.078234342732758
1196,0.04152759757072672,74.97680931630819,15.218269868992747,0.061424210436711243,2.090079971148092
1197,0.04152754485405419,74.97680931630819,15.24855086984929,0.06148974802276192,2.1055230965842786
1198,0.041527492169085266,74.97680931630819,15.277763751001244,0.061572216680418373,2.121211107695778
1199,0.041527439515847454,74.97680931630819,15.30302810290676,0.061666109427284815,2.1341743301096896
1200,0.04152738689436826,74.97680931630819,15.32205459439331,0.06176247300828066,2.142090429766167
