,time,sample_rate,Red,Green,Blue
0,2.8445486198521587e-15,75.24364590770881,-0.9550569672200006,0.042596064266977325,0.21248641168813764
1,2.844147355350149e-15,75.24364590770881,-0.9550625062264764,0.042968045532571233,0.19903355150118096
2,2.8438639367312875e-15,75.24364590770881,-0.9542961157648071,0.04329979350300421,0.18624140745892787
3,2.843738393851191e-15,75.24364590770881,-0.9522420666212805,0.04356300064085801,0.17454649459105656
4,2.8437927997018925e-15,75.24364590770881,-0.9486712684940782,0.04373626518199472,0.16422250722719664
5,2.8440216797922504e-15,75.24364590770881,-0.9436878393655771,0.04380720003324662,0.1553551069435482
6,2.8443964463203686e-15,75.24364590770881,-0.9377023119427318,0.043773516004273434,0.14785180627368266
7,2.8448779777523844e-15,75.24364590770881,-0.9313350429899809,0.04364379012028668,0.14147997434629614
8,2.8454231976611755e-15,75.24364590770881,-0.9252779826446842,0.043436923130782436,0.13592098281468584
9,2.8459843438732236e-15,75.24364590770881,-0.9201673036148977,0.043178627386785,0.13082567759807176
10,2.8465127640424594e-15,75.24364590770881,-0.9165057625331703,0.042895891429406634,0.12586154919985357
11,2.8469695387128593e-15,75.24364590770881,-0.9146324403328604,0.04261270832517618,0.12074936850915943
12,2.8473317680335786e-15,75.24364590770881,-0.9147138946901632,0.042348707158182494,0.11529003126475723
13,2.8475911137588646e-15,75.24364590770881,-0.9167447486086473,0.04211904723585218,0.10938306684931011
14,2.8477532014623635e-15,75.24364590770881,-0.9205652676299989,0.041933547924835834,0.10304042766117605
15,2.8478383526548834e-15,75.24364590770881,-0.9258942922778045,0.04179555787236873,0.09639953134553352
16,2.8478749886074094e-15,75.24364590770881,-0.9323588563254553,0.0417024794694319,0.08973114476633695
17,2.8478887836450644e-15,75.24364590770881,-0.9395123248550097,0.04164825963195254,0.08342672877486766
18,2.847899516746292e-15,75.24364590770881,-0.9468594749282817,0.041626214026559555,0.07795344435779476
19,2.8479228376119873e-15,75.24364590770881,-0.9539083127223994,0.04163076923573505,0.07378410409367425
20,2.8479655596886315e-15,75.24364590770881,-0.9602381452170676,0.04165800547529569,0.07132520271826798
21,2.8480214446399992e-15,75.24364590770881,-0.9655541707718459,0.04170544274223518,0.07086541620466831
22,2.848081429886488e-15,75.24364590770881,-0.9697115686672088,0.04177148135871955,0.07255299732035418
23,2.8481470387972077e-15,75.24364590770881,-0.9727099549469002,0.041854933810937044,0.07639638185620581
24,2.8482253454731956e-15,75.24364590770881,-0.9746645898600829,0.04195484162667693,0.08227826050455542
25,2.8483137589216828e-15,75.24364590770881,-0.9757620211618289,0.042070158965645935,0.08997623157167658
26,2.84840141441211e-15,75.24364590770881,-0.9762119855908402,0.04219882525019026,0.09918535140272793
27,2.8484846855529158e-15,75.24364590770881,-0.9762110889217986,0.04233648614784436,0.10953961230974896
28,2.848568844034022e-15,75.24364590770881,-0.9759268873517708,0.042475752502195735,0.12063209811102892
29,2.8486524973972755e-15,75.24364590770881,-0.9754955229842527,0.042606861656537647,0.13203477417760995
30,2.8487198316368354e-15,75.24364590770881,-0.9750212070893326,0.04271978290927456,0.14331780721851983
31,2.8487505110222946e-15,75.24364590770881,-0.9745752064815474,0.042806600374185044,0.1540696241571847
32,2.848731055500605e-15,75.24364590770881,-0.9741985688638576,0.04286282223071286,0.16392291755346716
33,2.848654808535444e-15,75.24364590770881,-0.9739093550970439,0.04288752263260908,0.1725886146865143
34,2.848518177410909e-15,75.24364590770881,-0.9737095518915164,0.042883187236203595,0.17988810059904045
35,2.848326796589962e-15,75.24364590770881,-0.9735875319063896,0.04285559001033937,0.1857686057462164
36,2.848108255661646e-15,75.24364590770881,-0.9735183231774263,0.04281313374709335,0.1902957187841286
37,2.8479141250211026e-15,75.24364590770881,-0.9734669835918733,0.04276532286023834,0.19362985337702598
38,2.847803679493985e-15,75.24364590770881,-0.9733955170604532,0.04272101290219015,0.19599708040920077
39,2.8478180904032998e-15,75.24364590770881,-0.973268939702339,0.04268722687622735,0.19765961475796595
40,2.847960011608261e-15,75.24364590770881,-0.9730586486917828,0.04266849431567593,0.19888707893980878
41,2.8481920409091707e-15,75.24364590770881,-0.9727461438846035,0.042666340437645646,0.1999308397629001
42,2.848455877040716e-15,75.24364590770881,-0.9723289182392201,0.04267908402646392,0.2010059712179976
43,2.848697715086342e-15,75.24364590770881,-0.9718237682913587,0.042702416614125396,0.202283474481969
44,2.848885319696804e-15,75.24364590770881,-0.9712607549805435,0.04273076991414659,0.2038901326535456
45,2.849014927195876e-15,75.24364590770881,-0.9706679882381388,0.042758790794793,0.2059115914235167
46,2.8491101157903186e-15,75.24364590770881,-0.9700557954157629,0.04278218052684076,0.20839842949330298
47,2.849210141599258e-15,75.24364590770881,-0.9694109533254671,0.04279773149708565,0.2113767059164699
48,2.8493482848664146e-15,75.24364590770881,-0.9687047921376298,0.042803027490181215,0.21485891527613482
49,2.8495314077298785e-15,75.24364590770881,-0.9679088410575708,0.04279638512475183,0.21884813759895855
50,2.849733466102637e-15,75.24364590770881,-0.9670110469967199,0.042777056931968524,0.22333404878170326
51,2.849907464468762e-15,75.24364590770881,-0.9660330119395247,0.04274533829064309,0.2282861103155284
52,2.850011059907008e-15,75.24364590770881,-0.9650481432480361,0.04270250724912054,0.23364999914171464
53,2.850032228240788e-15,75.24364590770881,-0.9641908139060726,0.04265077326586243,0.23935148818271315
54,2.8500009684042862e-15,75.24364590770881,-0.9636452867716676,0.04259329600173841,0.2453087132627968
55,2.8499799701230815e-15,75.24364590770881,-0.9636168366199981,0.04253416942625713,0.2514473689830302
56,2.850034246372185e-15,75.24364590770881,-0.9642998819611532,0.042478164294090785,0.257708872693661
57,2.8501941580796143e-15,75.24364590770881,-0.9658546777282873,0.0424300936564876,0.2640444744563523
58,2.850437678399939e-15,75.24364590770881,-0.9683920113765045,0.042394050926397045,0.27039550209035473
59,2.8507021900777166e-15,75.24364590770881,-0.9719593814517721,0.04237307675933418,0.2766656943998464
60,2.8509101193230926e-15,75.24364590770881,-0.9765247682960372,0.042369411836451515,0.2826940589587181
61,2.8509905225658057e-15,75.24364590770881,-0.981958785979194,0.04238481358350631,0.2882360920754466
62,2.8508932363022507e-15,75.24364590770881,-0.9880196741629618,0.042420529780959254,0.2929599869862376
63,2.850597091010829e-15,75.24364590770881,-0.9943465036351257,0.042477202838671256,0.29646425252241976
64,2.8501091929290944e-15,75.24364590770881,-1.000464610610871,0.042555080976578265,0.2983187951759652
65,2.8494551810064406e-15,75.24364590770881,-1.005807507150305,0.04265429008222988,0.2981218665162158
66,2.8486705360046224e-15,75.24364590770881,-1.0097596972372587,0.04277448062976919,0.29556047078764786
67,2.847803630909842e-15,75.24364590770881,-1.0117217733879256,0.042913572705852276,0.29046343495611965
68,2.846930508477543e-15,75.24364590770881,-1.01119399011554,0.04306614596994954,0.2828348896712638
69,2.8461677293588883e-15,75.24364590770881,-1.0078653801544026,0.043222406570375634,0.27285574725430944
70,2.845663237655913e-15,75.24364590770881,-1.0016840886281686,0.043368520646356025,0.2608540501634171
71,2.8455611083500692e-15,75.24364590770881,-0.9928844277323661,0.04348858945431509,0.2472627208162585
72,2.8459578254224853e-15,75.24364590770881,-0.9819645372402981,0.043567582148497284,0.23258337749961636
73,2.8468713127215656e-15,75.24364590770881,-0.969631021527243,0.043593861814706966,0.2173585413066682
74,2.84823614877862e-15,75.24364590770881,-0.9567315565974644,0.0435604753647943,0.2021442387243813
75,2.849922347338823e-15,75.24364590770881,-0.9441803242966078,0.043465583417839605,0.1874783155467143
76,2.8517614130462812e-15,75.24364590770881,-0.9328668223504809,0.04331298066973649,0.17384562978501303
77,2.8535704954989607e-15,75.24364590770881,-0.9235496925897507,0.043112843742643216,0.1616428927133292
78,2.8551755449335893e-15,75.24364590770881,-0.9167650691793399,0.042881265309418826,0.15114516055137708
79,2.856425569561247e-15,75.24364590770881,-0.9127859159817465,0.0426372953356458,0.14247872840360123
80,2.8571884679885176e-15,75.24364590770881,-0.9116396117014841,0.04239876695310245,0.13561110550379973
81,2.857347742181197e-15,75.24364590770881,-0.9131557690361859,0.04217960253030326,0.13036634704735364
82,2.85683008118167e-15,75.24364590770881,-0.9170103205608655,0.04198953285206243,0.12646279961821963
83,2.8556575218977106e-15,75.24364590770881,-0.9227566167613305,0.041834896617146296,0.1235661635374164
84,2.8539839357843285e-15,75.24364590770881,-0.9298559403201897,0.04171916423637294,0.12135482915316466
85,2.8520765468790917e-15,75.24364590770881,-0.9377160144293488,0.04164327558102614,0.1195884961446977
86,2.8502396282082133e-15,75.24364590770881,-0.9457368609233596,0.04160639611592511,0.11815503750264263
87,2.8487266189847623e-15,75.24364590770881,-0.9533636210750652,0.041606874139252153,0.11707076695208563
88,2.8476942402601505e-15,75.24364590770881,-0.9601411492444132,0.04164273828407767,0.11643537969436445
89,2.8472029109188136e-15,75.24364590770881,-0.9657547923101371,0.04171162598333582,0.11636909290224147
90,2.8472301384512715e-15,75.24364590770881,-0.9700442864773249,0.041810389478998226,0.11696121623821816
91,2.847689007888243e-15,75.24364590770881,-0.9729930209673612,0.041934428658375995,0.11824333573924714
92,2.8484655878872087e-15,75.24364590770881,-0.9747038670821011,0.04207689198467216,0.12018775717461892
93,2.8494602836894807e-15,75.24364590770881,-0.975368352244885,0.04222833760374532,0.12272656332638755
94,2.8506032402596303e-15,75.24364590770881,-0.975230471525876,0.04237750383760387,0.1257795268433649
95,2.8518341053378e-15,75.24364590770881,-0.9745496453141592,0.042513146473259066,0.1292740508765692
96,2.8530620441832752e-15,75.24364590770881,-0.9735717733612612,0.04262604418427185,0.13314826489843873
97,2.8541470830310487e-15,75.24364590770881,-0.9725120122999216,0.04271024877822238,0.1373432651320778
98,2.8549358476584196e-15,75.24364590770881,-0.971543446152572,0.04276347441207196,0.14179566752047604
99,2.8553286492357035e-15,75.24364590770881,-0.9707855721864668,0.042787043613791036,0.1464351495648754
100,2.855318741981319e-15,75.24364590770881,-0.9702946267865343,0.04278550909697443,0.15118476722206423
101,2.8549789763879667e-15,75.24364590770881,-0.970063603752813,0.04276576632025205,0.15596157651741568
102,2.8544248703216457e-15,75.24364590770881,-0.9700371638335594,0.04273580037689131,0.16067965870775192
103,2.853784270217688e-15,75.24364590770881,-0.970135678962502,0.04270358883736718,0.1652597533714151
104,2.853169595383105e-15,75.24364590770881,-0.9702750558502152,0.04267638646905218,0.16964450296465972
105,2.8526471613887518e-15,75.24364590770881,-0.9703773022384328,0.04266007448073885,0.17381148388338558
106,2.8522272187486228e-15,75.24364590770881,-0.9703798382998081,0.042658285516889376,0.1777755241789297
107,2.8518893550371408e-15,75.24364590770881,-0.9702488699948387,0.042671472564571516,0.18157666806576928
108,2.851611911398681e-15,75.24364590770881,-0.9699886307079958,0.04269644816720109,0.1852575389451019
109,2.851379558239603e-15,75.24364590770881,-0.9696360178926932,0.04272700697776597,0.18884024684758607
110,2.851193554185422e-15,75.24364590770881,-0.9692430660067191,0.042755748089280635,0.1923118694986339
111,2.8510912065604072e-15,75.24364590770881,-0.9688604026908979,0.04277620420159094,0.19562074562535642
112,2.851129700956244e-15,75.24364590770881,-0.9685302878723162,0.04278405296593066,0.1986824623741558
113,2.85133423796573e-15,75.24364590770881,-0.968284932500542,0.04277712613756061,0.2013936191736625
114,2.8516701323348646e-15,75.24364590770881,-0.9681423807732392,0.04275491666707205,0.20364949347184788
115,2.8520567313370023e-15,75.24364590770881,-0.9681007455557004,0.04271829770198454,0.2053634776662241
116,2.852395661925188e-15,75.24364590770881,-0.9681366348056891,0.04266966352344664,0.20648919567967705
117,2.8526055784429795e-15,75.24364590770881,-0.9682092627590823,0.04261325406561891,0.20704182608180435
118,2.852662164520938e-15,75.24364590770881,-0.9682669414371944,0.04255516016204027,0.20710979252355222
119,2.852612886171162e-15,75.24364590770881,-0.9682538416326458,0.04250261952792764,0.20685219400408048
120,2.852541794200724e-15,75.24364590770881,-0.9681183303412222,0.04246268163050247,0.20648573156533714
121,2.8525182707115486e-15,75.24364590770881,-0.9678245766429506,0.042440660601706225,0.20626744421796334
122,2.8525857052884277e-15,75.24364590770881,-0.9673672852346288,0.042438821330915,0.2064758452442487
123,2.8527822065109958e-15,75.24364590770881,-0.9667861051957556,0.042455742979257236,0.20738978693042245
124,2.8531385882783954e-15,75.24364590770881,-0.9661726373264694,0.04248673059129577,0.20926598249505432
125,2.853655466125921e-15,75.24364590770881,-0.9656646937427465,0.042525242116124316,0.21231755068210273
126,2.8543143658502824e-15,75.24364590770881,-0.9654293907540341,0.042564710056347606,0.2166927002100655
127,2.855110647008621e-15,75.24364590770881,-0.9656411882125658,0.04259990832806553,0.22245079059952863
128,2.856031705227738e-15,75.24364590770881,-0.966460129558256,0.04262759132294159,0.22953722811242147
129,2.85699132564491e-15,75.24364590770881,-0.968012533557473,0.04264678121259916,0.23776419450746827
130,2.8578171299389245e-15,75.24364590770881,-0.9703746026182869,0.042658806966955315,0.24680612862142828
131,2.8583089019148166e-15,75.24364590770881,-0.973559112275917,0.04266676667909973,0.25621735599114576
132,2.8583042039620633e-15,75.24364590770881,-0.9775045104826402,0.04267444307436602,0.2654742551246178
133,2.8577229503963443e-15,75.24364590770881,-0.9820648517928535,0.04268523598916446,0.27403448728994934
134,2.85658953298735e-15,75.24364590770881,-0.9870009368809828,0.042701617925196465,0.2813965312185228
135,2.855021795618978e-15,75.24364590770881,-0.9919765744873364,0.0427251344297457,0.28714330982234
136,2.853196489595957e-15,75.24364590770881,-0.9965653543943337,0.04275667098839568,0.29096193632170797
137,2.851319736298351e-15,75.24364590770881,-1.0002731011857648,0.042796727084730465,0.2926394538536088
138,2.849610611689534e-15,75.24364590770881,-1.0025799773582307,0.042845445953379475,0.2920427399229893
139,2.8482791248807147e-15,75.24364590770881,-1.003002443128405,0.042902177251810183,0.2890988942568639
140,2.8474973639066813e-15,75.24364590770881,-1.0011689013979932,0.04296460169008561,0.28379077022080257
141,2.847387219194509e-15,75.24364590770881,-0.9968942283870708,0.04302784749140134,0.27616966288579337
142,2.8480163971446816e-15,75.24364590770881,-0.9902312443338566,0.04308433527792516,0.26637515263229783
143,2.849374141937936e-15,75.24364590770881,-0.981481180513549,0.043124874964958024,0.25464921209490876
144,2.8513391515312023e-15,75.24364590770881,-0.9711614808035511,0.043140653593183725,0.2413377265097816
145,2.853678371191529e-15,75.24364590770881,-0.9599451638536305,0.04312502846666694,0.22688002662026735
146,2.856085684083384e-15,75.24364590770881,-0.9485904818476648,0.04307447462996875,0.2117865162978208
147,2.8582270417658904e-15,75.24364590770881,-0.9378728695821082,0.04298902704424232,0.19660065438589525
148,2.859776197408131e-15,75.24364590770881,-0.928522325967911,0.04287260797843086,0.18184674482556845
149,2.860479627590303e-15,75.24364590770881,-0.9211648861797371,0.04273294562785021,0.16797580646811394
150,2.8602498400935146e-15,75.24364590770881,-0.9162664523483129,0.042580742445748485,0.15532777054705713
151,2.8592049735233552e-15,75.24364590770881,-0.9140830051815936,0.04242834261003022,0.14412623104075092
152,2.857612806568184e-15,75.24364590770881,-0.9146305093148072,0.04228829476813548,0.13450838202883572
153,2.855792578093615e-15,75.24364590770881,-0.9176885555294737,0.042171744947893317,0.12657142113602485
154,2.854040509919383e-15,75.24364590770881,-0.9228388842402215,0.042086619905639604,0.12040623994278793
155,2.852597688105442e-15,75.24364590770881,-0.9295255182162708,0.04203628705522554,0.11609989723759341
156,2.8516444954132214e-15,75.24364590770881,-0.9371223809629443,0.04201941357690061,0.1137095985441925
157,2.8513021364207294e-15,75.24364590770881,-0.9450025176095695,0.042030856045524236,0.1132260841367362
158,2.8516259992776973e-15,75.24364590770881,-0.9526042911782141,0.04206300033140062,0.11454568402397539
159,2.852578894369227e-15,75.24364590770881,-0.9594831550953498,0.04210737203297566,0.11746267112753302
160,2.854007971612078e-15,75.24364590770881,-0.9653375397167503,0.04215645353227338,0.12168429238252193
161,2.8556784673141363e-15,75.24364590770881,-0.9700094511927617,0.04220518440089604,0.1268625815906692
162,2.8573486062082525e-15,75.24364590770881,-0.9734690354337917,0.042251554272136164,0.1326322558492596
163,2.8588050716655967e-15,75.24364590770881,-0.9757883499969812,0.04229628265869202,0.1386448819234564
164,2.8598522678936938e-15,75.24364590770881,-0.9771059734438194,0.042341992676599105,0.14459528655762494
165,2.8603275621505205e-15,75.24364590770881,-0.9775897542464068,0.04239214385208855,0.15024144880729168
166,2.8601616678358102e-15,75.24364590770881,-0.9774103122392069,0.04244970397963613,0.1554173046582741
167,2.859416599061424e-15,75.24364590770881,-0.9767314882134789,0.04251560058505534,0.16003404339413957
168,2.8582527444202714e-15,75.24364590770881,-0.9757100836993778,0.04258743301271869,0.16406922290035864
169,2.8568653496424704e-15,75.24364590770881,-0.9744924012344516,0.04265928572407353,0.16755022764660285
170,2.855447832849333e-15,75.24364590770881,-0.9732044155717506,0.04272318207360348,0.1705396116523936
171,2.8541850420406077e-15,75.24364590770881,-0.9719432347534995,0.04277160270228552,0.1731244499355515
172,2.8532479893084253e-15,75.24364590770881,-0.9707775241278056,0.04279954025624288,0.17540713697871396
173,2.8527616125896694e-15,75.24364590770881,-0.9697544577449039,0.04280503052984341,0.17749585526098416
174,2.85274872278252e-15,75.24364590770881,-0.9689040674534438,0.04278849157995695,0.1794950053075119
175,2.853107997969848e-15,75.24364590770881,-0.968237805777029,0.04275192219283135,0.1814955185555265
176,2.8536672022992556e-15,75.24364590770881,-0.9677478183615322,0.04269862393096043,0.18356613233887603
177,2.8542682189937176e-15,75.24364590770881,-0.9674137387827118,0.04263336786622647,0.18574943020380297
178,2.8548222925331437e-15,75.24364590770881,-0.967214370560464,0.04256249533582873,0.1880653424693611
179,2.855325365580181e-15,75.24364590770881,-0.9671347443125913,0.04249349015279103,0.1905200965267179
180,2.8558424798635825e-15,75.24364590770881,-0.9671638519315415,0.04243400674378692,0.19311516032767267
181,2.8564537639703734e-15,75.24364590770881,-0.9672876370160779,0.042390763567562884,0.19585234957284695
182,2.85717354272535e-15,75.24364590770881,-0.9674840644370659,0.042368598891527644,0.19873577920671603
183,2.8579054774339735e-15,75.24364590770881,-0.9677222277654877,0.042369797152276,0.20177094538531462
184,2.8584785940770415e-15,75.24364590770881,-0.9679634890789681,0.04239409866833772,0.20495737005433975
185,2.858724868536768e-15,75.24364590770881,-0.9681634361056923,0.042439651355967105,0.20827435752042694
186,2.858545975562259e-15,75.24364590770881,-0.968275184963617,0.04250414864183949,0.21166768160013102
187,2.8579749538726847e-15,75.24364590770881,-0.9682540267656102,0.042585141932588014,0.21504655034326584
188,2.857229731759661e-15,75.24364590770881,-0.9680620203957376,0.04267961053417421,0.21829411807537172
189,2.856678755023511e-15,75.24364590770881,-0.9676710761404794,0.042783637161916355,0.22128930035950617
190,2.8566625549529682e-15,75.24364590770881,-0.9670648820073872,0.04289248536161551,0.2239348334459424
191,2.8572744376659838e-15,75.24364590770881,-0.9662423871187391,0.043000663271263194,0.22618390771656985
192,2.8582890809672657e-15,75.24364590770881,-0.9652249357525118,0.04310176603313669,0.2280566443670873
193,2.859299913182418e-15,75.24364590770881,-0.9640638689187406,0.04318847734724307,0.2296417642039366
194,2.8599280920855e-15,75.24364590770881,-0.9628425714123187,0.04325323266404984,0.23108615317123907
195,2.8599424572475638e-15,75.24364590770881,-0.9616730129598539,0.043289510170742146,0.2325789236041247
196,2.8592847016196842e-15,75.24364590770881,-0.960693286806704,0.04329299998061414,0.23433474806046947
197,2.858082355593831e-15,75.24364590770881,-0.9600684035619859,0.04326194293404071,0.2365767333766757
198,2.8566489910069898e-15,75.24364590770881,-0.9599865642669305,0.04319667519226175,0.23951534295727528
199,2.8553872025593552e-15,75.24364590770881,-0.9606400494005846,0.04309892981952198,0.2433212408397369
200,2.854596496968061e-15,75.24364590770881,-0.9621875564182921,0.0429715802692336,0.24809625936808125
201,2.854336372307927e-15,75.24364590770881,-0.9647073828766582,0.04281929693902412,0.2538489839289392
202,2.8544621047088136e-15,75.24364590770881,-0.9681598814324829,0.04264981423634893,0.2604759313692743
203,2.8547761315501374e-15,75.24364590770881,-0.9723757758883713,0.04247481827888462,0.2677454494319801
204,2.855156535124741e-15,75.24364590770881,-0.977073562648108,0.04230958452406576,0.27528573278193613
205,2.855583779138148e-15,75.24364590770881,-0.9818950170592976,0.04217101950604457,0.282584247880798
206,2.856086631282771e-15,75.24364590770881,-0.9864434721343164,0.04207442429023874,0.28900656385611473
207,2.8566871148602923e-15,75.24364590770881,-0.9903153477804643,0.04203022996422812,0.2938395803394222
208,2.857382890487562e-15,75.24364590770881,-0.99312577566498,0.04204216001822915,0.2963601154495061
209,2.858136924685826e-15,75.24364590770881,-0.9945354079695468,0.042107114901501604,0.29592380885928143
210,2.8588757953194062e-15,75.24364590770881,-0.9942826525672205,0.04221596714623918,0.2920611761238618
211,2.859530092424267e-15,75.24364590770881,-0.9922189949704402,0.04235459610856411,0.28456065499379246
212,2.860083758160204e-15,75.24364590770881,-0.9883399839642865,0.04250529507295676,0.27351607636450637
213,2.860564481198605e-15,75.24364590770881,-0.9828011998760228,0.04264899770854985,0.25932088341362103
214,2.8609786036889716e-15,75.24364590770881,-0.9759098772512134,0.04276819134858995,0.24260640677879677
215,2.8612695342348875e-15,75.24364590770881,-0.9680908354323,0.04284966912999394,0.2241435641270509
216,2.861350563910534e-15,75.24364590770881,-0.9598356243441144,0.04288634791891056,0.20474219376041247
217,2.8611661145409404e-15,75.24364590770881,-0.9516509395784645,0.04287787886795272,0.18517669880243592
218,2.860712394172803e-15,75.24364590770881,-0.9440217480564673,0.04282987340449309,0.16614650350960217
219,2.8600308515471703e-15,75.24364590770881,-0.937392829155237,0.04275181262079083,0.1482628361828949
220,2.8592315253000127e-15,75.24364590770881,-0.9321573738884024,0.04265458670649274,0.13204787974443977
221,2.8585087017389853e-15,75.24364590770881,-0.9286370668374436,0.04254882709067644,0.11793426388320118
222,2.858049682572253e-15,75.24364590770881,-0.9270483894460649,0.042444172042176535,0.10625900071380566
223,2.85787854848169e-15,75.24364590770881,-0.9274659076520899,0.04234882742614739,0.0972552052055248
224,2.8578140285703445e-15,75.24364590770881,-0.9298003056516987,0.04226909126339128,0.09104985040157337
225,2.8576156726408788e-15,75.24364590770881,-0.9338005726523645,0.042209069810836566,0.08766991602895732
226,2.857178772358522e-15,75.24364590770881,-0.9390776785666202,0.04217085126389491,0.08705003577417307
227,2.856598659671522e-15,75.24364590770881,-0.945144187335075,0.04215502461825309,0.08903529950680258
228,2.8560971494012255e-15,75.24364590770881,-0.9514673777111412,0.042161135087682496,0.09338312052647539
229,2.8559361657405865e-15,75.24364590770881,-0.9575314223633055,0.04218780956647876,0.09977310270421971
230,2.856368034603732e-15,75.24364590770881,-0.9628980578400217,0.04223266619546751,0.10782690587346437
231,2.857556605562852e-15,75.24364590770881,-0.967254989452022,0.04229227263887399,0.11713368198121432
232,2.8594554010918057e-15,75.24364590770881,-0.9704453985205828,0.04236227207912735,0.1272773106760069
233,2.8617466466954512e-15,75.24364590770881,-0.9724729758346452,0.042437632313838125,0.137861560628106
234,2.8639222415345374e-15,75.24364590770881,-0.9734777590614945,0.04251301970654873,0.14852789012612763
235,2.865464606208604e-15,75.24364590770881,-0.9736859381290961,0.04258340476122284,0.15896253139059194
236,2.866034744554075e-15,75.24364590770881,-0.9733500123420895,0.042644794417052934,0.16889330428042196
237,2.8655992150548783e-15,75.24364590770881,-0.9727007120722116,0.042694672947368735,0.17808045664929956
238,2.864426842000833e-15,75.24364590770881,-0.9719206609348187,0.04273189668918264,0.1863082425398454
239,2.8629236012752865e-15,75.24364590770881,-0.9711352368278243,0.04275627230436385,0.19338349313143594
240,2.8614105403717897e-15,75.24364590770881,-0.9704137961320036,0.04276822395213809,0.19914484699149015
241,2.860015818865365e-15,75.24364590770881,-0.9697786752668082,0.04276866046882872,0.2034816553343324
242,2.8587380812847853e-15,75.24364590770881,-0.9692200487806933,0.04275880218815891,0.2063568038460753
243,2.8575796339787244e-15,75.24364590770881,-0.9687128554546776,0.04273983936149305,0.20782662073986274
244,2.8566214811751002e-15,75.24364590770881,-0.9682311018202869,0.0427126765673312,0.2080525108735324
245,2.856013903993437e-15,75.24364590770881,-0.967756493961558,0.04267797336324696,0.20729880576918458
246,2.855917789555511e-15,75.24364590770881,-0.9672821570022864,0.04263634210472469,0.20591028494811175
247,2.8564197557431563e-15,75.24364590770881,-0.9668142252650611,0.04258853082676903,0.20426747804524945
248,2.8574553305811445e-15,75.24364590770881,-0.9663716369405346,0.04253567846976366,0.20273025115925156
249,2.8587806237880037e-15,75.24364590770881,-0.9659813671359018,0.042479798748597794,0.20158991734670018
250,2.860009466055343e-15,75.24364590770881,-0.9656678583248967,0.04242434894309099,0.20104629734560853
251,2.860738360320307e-15,75.24364590770881,-0.9654404672236095,0.04237447950616499,0.20121084388523985
252,2.8607491904180765e-15,75.24364590770881,-0.9652855429030669,0.04233661572712217,0.20212213202468565
253,2.860150826579988e-15,75.24364590770881,-0.9651668887197011,0.04231724676216804,0.20375779697316768
254,2.8592987566342622e-15,75.24364590770881,-0.9650331782304984,0.042321298460161944,0.20603753989844845
255,2.8585519204076213e-15,75.24364590770881,-0.9648290143263546,0.04235089617435795,0.20882306695260006
256,2.8581079152801677e-15,75.24364590770881,-0.9645080520926343,0.04240486765774706,0.21192478543606
257,2.858027769006208e-15,75.24364590770881,-0.964047267409639,0.04247868582343822,0.21512277891870585
258,2.8583222487777782e-15,75.24364590770881,-0.9634586343941234,0.04256474738635429,0.21820360168986755
259,2.858969739598043e-15,75.24364590770881,-0.9627930911501144,0.042653258598180664,0.22100760592568366
260,2.8599034429100495e-15,75.24364590770881,-0.9621356436374248,0.04273386418990911,0.2234761019237495
261,2.86103462735552e-15,75.24364590770881,-0.9615951150929237,0.04279767102341606,0.22568447428663393
262,2.862271136651134e-15,75.24364590770881,-0.9612926532593202,0.042838817400472066,0.22784886074404664
263,2.863486608254546e-15,75.24364590770881,-0.9613509389859294,0.042854940311025776,0.2303014486556744
264,2.8645032053852143e-15,75.24364590770881,-0.9618846012233492,0.04284681819687617,0.2334375905515815
265,2.8651582710938114e-15,75.24364590770881,-0.9629923938095122,0.04281792048322207,0.23764259309444322
266,2.8653976228287468e-15,75.24364590770881,-0.9647506656478245,0.04277404945805084,0.2432108262987066
267,2.86528501207068e-15,75.24364590770881,-0.9672054040188941,0.04272257901024632,0.2502734483965884
268,2.8649367664200145e-15,75.24364590770881,-0.9703600163550398,0.042671017324948796,0.25874680917593806
269,2.8644746126780985e-15,75.24364590770881,-0.9741591809934593,0.042625578569582864,0.2683059751341156
270,2.8640037868468966e-15,75.24364590770881,-0.9784727705290015,0.04259074443869004,0.27838508299169246
271,2.8635653161019225e-15,75.24364590770881,-0.9830852664842643,0.042569883675531085,0.2882068698154189
272,2.8630825590141616e-15,75.24364590770881,-0.9876944441459465,0.0425660950202313,0.2968441179374517
273,2.86236288617043e-15,75.24364590770881,-0.9919198624574428,0.04258250829912592,0.30331342636576525
274,2.8611887623133047e-15,75.24364590770881,-0.9953213999699424,0.04262181773778232,0.3066936658365974
275,2.859493155741636e-15,75.24364590770881,-0.997431818190709,0.042685182692752274,0.3062511040278407
276,2.857505709193968e-15,75.24364590770881,-0.9978082932424356,0.042770896799738126,0.3015475578238427
277,2.8556919814891612e-15,75.24364590770881,-0.9961006402211297,0.04287337610180545,0.29250823861190706
278,2.8545083552076394e-15,75.24364590770881,-0.9921219685044742,0.04298289943990915,0.27943275565956965
279,2.8542223137244273e-15,75.24364590770881,-0.9859004689423915,0.04308642659292724,0.26294830522297497
280,2.854925140189034e-15,75.24364590770881,-0.9776962061049336,0.043169675078406376,0.2439216186364998
281,2.8565914551953033e-15,75.24364590770881,-0.967980609286008,0.04322002582500545,0.22335384998580787
282,2.8590386216202046e-15,75.24364590770881,-0.9573894040814133,0.043228936298225565,0.20227820478652414
283,2.861874454781269e-15,75.24364590770881,-0.9466645676543431,0.04319256615311725,0.18167048460580684
284,2.864584701477974e-15,75.24364590770881,-0.9365939560390186,0.04311099952653231,0.16237513229801998
285,2.8667069377596723e-15,75.24364590770881,-0.9279443020797647,0.04298777216477787,0.14504822380746885
286,2.867939244411394e-15,75.24364590770881,-0.9213778424809947,0.042830439960875766,0.13012160227898178
287,2.868154646235138e-15,75.24364590770881,-0.9173576109780475,0.042651232280858695,0.11779240251928784
288,2.867400832975592e-15,75.24364590770881,-0.9160749226930823,0.04246619298724094,0.10803955465772437
289,2.865929824701617e-15,75.24364590770881,-0.917436776656126,0.042291989112652036,0.1006677125673239
290,2.8641743220313233e-15,75.24364590770881,-0.9211138004452236,0.04214173567137155,0.09537533692531242
291,2.8626034246213623e-15,75.24364590770881,-0.9266131293012766,0.042022543448933865,0.09183249124662386
292,2.861563873422469e-15,75.24364590770881,-0.933344714821148,0.04193601164323203,0.08974538498670151
293,2.861215557660509e-15,75.24364590770881,-0.9406795620988986,0.041880409874693304,0.08889034719501004
294,2.861526249032943e-15,75.24364590770881,-0.948012275336915,0.04185259037472886,0.08911500236943853
295,2.8622723709807504e-15,75.24364590770881,-0.9548246863433361,0.04184883311026707,0.09031703992628332
296,2.8630823853903883e-15,75.24364590770881,-0.9607326211534504,0.041865023470345056,0.09241559830935248
297,2.863579571370437e-15,75.24364590770881,-0.9655042122553157,0.041896763787650525,0.09532901087827197
298,2.863565152214007e-15,75.24364590770881,-0.9690513925908356,0.041939844863338335,0.0989674974386621
299,2.863117571557914e-15,75.24364590770881,-0.9714035383239101,0.04199126266264192,0.10324002175212493
300,2.862581704392938e-15,75.24364590770881,-0.9726747125864912,0.0420503110087118,0.1080658397494269
301,2.862458257793637e-15,75.24364590770881,-0.9730351452403283,0.042118714058505265,0.11338114928746126
302,2.8631811666899364e-15,75.24364590770881,-0.9726911935494507,0.04219922444468826,0.11913930880896924
303,2.8648964302791107e-15,75.24364590770881,-0.9718678723687019,0.042293399005481624,0.12530905907835332
304,2.867406258324784e-15,75.24364590770881,-0.970785556015955,0.0423999316570417,0.13187222366533924
305,2.870253742803311e-15,75.24364590770881,-0.9696327185981399,0.0425142903738247,0.13881748227873544
306,2.8728213771359373e-15,75.24364590770881,-0.9685475480844465,0.04262946382203552,0.1461283772134447
307,2.8744209304593483e-15,75.24364590770881,-0.9676180044971447,0.04273727967439142,0.1537677780012545
308,2.874434770947219e-15,75.24364590770881,-0.9668935054438107,0.04282992341279991,0.1616620173644955
309,2.8725093395406667e-15,75.24364590770881,-0.9663933517542449,0.04290138676003401,0.169688464964714
310,2.8686841472990854e-15,75.24364590770881,-0.9661084660465943,0.04294842324437555,0.17767302073993443
311,2.863369531215772e-15,75.24364590770881,-0.966004843913927,0.042970723174667234,0.18540461371213207
312,2.8572490804327965e-15,75.24364590770881,-0.9660341839198625,0.04297042074042995,0.19266658122859448
313,2.8512011079570448e-15,75.24364590770881,-0.9661475215424321,0.042951236670796665,0.19927405865529618
314,2.8462045530571054e-15,75.24364590770881,-0.9663029743967327,0.042917601904076355,0.20510405286144037
315,2.843177742837786e-15,75.24364590770881,-0.9664639853976705,0.04287402134581036,0.21011113433266915
316,2.84279046803133e-15,75.24364590770881,-0.9665943319732481,0.042824689757863355,0.21432609285390086
317,2.8453001555632347e-15,75.24364590770881,-0.9666577892466094,0.042773253157549894,0.21783672049460978
318,2.850444864273095e-15,75.24364590770881,-0.9666222222753326,0.042722647015660774,0.22075650407078656
319,2.8574605460017354e-15,75.24364590770881,-0.9664628190427349,0.042674899783162225,0.22319432973290473
320,2.86526035739945e-15,75.24364590770881,-0.9661626661038614,0.04263086585071615,0.2252357475473274
321,2.872716846403337e-15,75.24364590770881,-0.9657134181533817,0.04259015141370554,0.22693751747773191
322,2.878902552733033e-15,75.24364590770881,-0.9651188171322835,0.042551507473245855,0.22833360295206334
323,2.883156354841597e-15,75.24364590770881,-0.9643998063103039,0.04251360864269824,0.22945133318233552
324,2.8850110107165757e-15,75.24364590770881,-0.963596858656347,0.042475869974725265,0.2303333915468021
325,2.8841398178217704e-15,75.24364590770881,-0.9627678668141672,0.042438983721479744,0.23105773172677874
326,2.880423798967955e-15,75.24364590770881,-0.9619843581208893,0.04240513804666983,0.23174966783287035
327,2.8741226536770315e-15,75.24364590770881,-0.9613283390162128,0.04237797120190659,0.232584250622334
328,2.8660255388460154e-15,75.24364590770881,-0.9608887808062675,0.04236202507986396,0.23377863567909443
329,2.8574172265743442e-15,75.24364590770881,-0.9607558672805694,0.04236160914388933,0.23557604466710563
330,2.849788124055645e-15,75.24364590770881,-0.9610133102282734,0.04237965535012002,0.23822417515319544
331,2.8444290013571616e-15,75.24364590770881,-0.9617314025931907,0.04241704927490958,0.2419487276623354
332,2.8421657438157354e-15,75.24364590770881,-0.9629634196148874,0.04247217012642477,0.24691998805352006
333,2.843308114717707e-15,75.24364590770881,-0.9647442930558192,0.042540484551586905,0.2532119413121499
334,2.8476834210005603e-15,75.24364590770881,-0.9670863487338082,0.04261479159660721,0.2607604195411643
335,2.8546766366951208e-15,75.24364590770881,-0.9699689715406565,0.042686606640941684,0.2693334174839245
336,2.8633153297567474e-15,75.24364590770881,-0.9733258852615304,0.04274822939513748,0.27852410046661386
337,2.872421543022903e-15,75.24364590770881,-0.977035671118744,0.04279460364018121,0.28776749594597356
338,2.8807791223689974e-15,75.24364590770881,-0.9809163639129342,0.04282451974930621,0.2963765988294345
339,2.887286129699637e-15,75.24364590770881,-0.9847220205345026,0.04284093108923953,0.30359387939730287
340,2.891100438850041e-15,75.24364590770881,-0.9881426041405461,0.042849941481968176,0.30865413298687167
341,2.891729603628179e-15,75.24364590770881,-0.9908137757548696,0.04285866313793769,0.3108545226353635
342,2.889046911356293e-15,75.24364590770881,-0.9923446160801455,0.042873173548514366,0.3096274769906137
343,2.883326064386004e-15,75.24364590770881,-0.9923668659255821,0.04289733031127874,0.3046089283243731
344,2.8753110896188315e-15,75.24364590770881,-0.990600241536057,0.04293194310049162,0.2956898950927214
345,2.866190276732801e-15,75.24364590770881,-0.9869178662198256,0.0429739626077658,0.28303808688047755
346,2.8573869980914802e-15,75.24364590770881,-0.9813885872511804,0.04301653441585894,0.2670822383010985
347,2.850239997758593e-15,75.24364590770881,-0.9742773226397374,0.043050735614612055,0.24846462261936264
348,2.845715806738177e-15,75.24364590770881,-0.9660050963250643,0.043068280505894604,0.22797664803894035
349,2.844256362337819e-15,75.24364590770881,-0.9570932154395405,0.04306334371836972,0.20649104723468736
350,2.8457936028410157e-15,75.24364590770881,-0.9481174359296387,0.04303242049886212,0.18489637710140874
351,2.8498658393554504e-15,75.24364590770881,-0.9396759006434282,0.04297322574665774,0.16403364302116644
352,2.855727586079068e-15,75.24364590770881,-0.932353475843931,0.042884493507597626,0.14463626539171617
353,2.8624301273831948e-15,75.24364590770881,-0.9266670341492045,0.04276719695767599,0.12728141306020074
354,2.8689356150583225e-15,75.24364590770881,-0.9229993475103693,0.04262615605845822,0.11236378889264967
355,2.8742905233050096e-15,75.24364590770881,-0.921547806184759,0.042470630558444106,0.10009849496374067
356,2.87779026764536e-15,75.24364590770881,-0.9223079631352082,0.04231301059983283,0.09055136902678745
357,2.8790644874391795e-15,75.24364590770881,-0.9250899649629102,0.042165926446341186,0.0836864838655594
358,2.8780931149487347e-15,75.24364590770881,-0.9295511465524894,0.0420394411785296,0.07941457287490446
359,2.875192828566451e-15,75.24364590770881,-0.9352339737257526,0.04193988858742682,0.0776248895821736
360,2.8709757779314394e-15,75.24364590770881,-0.9416131524327186,0.04187031089491003,0.07818823722177638
361,2.8662448547715188e-15,75.24364590770881,-0.9481554480029993,0.041831445797438076,0.08093429633583374
362,2.861819549196474e-15,75.24364590770881,-0.9543818439114918,0.04182257516301685,0.08562478330982427
363,2.8583682703795555e-15,75.24364590770881,-0.9599144601363178,0.04184218252211841,0.09194771722830482
364,2.856322984782021e-15,75.24364590770881,-0.9644985790897651,0.041888520396014456,0.09954175609031847
365,2.8558687857322016e-15,75.24364590770881,-0.9680023348278033,0.041959913664900775,0.1080378646709621
366,2.856976902347337e-15,75.24364590770881,-0.97040161797515,0.04205449142468479,0.11709731611832737
367,2.859477897038543e-15,75.24364590770881,-0.9717582590031905,0.042169282351654874,0.12643372775158637
368,2.8631327834235833e-15,75.24364590770881,-0.9721977615855744,0.04229902025593718,0.13581916006008105
369,2.8676186140140506e-15,75.24364590770881,-0.9718879488413996,0.042435537607697214,0.14507851763904697
370,2.8724383902114464e-15,75.24364590770881,-0.9710184707804598,0.04256868870965144,0.1540747446220524
371,2.876868447201725e-15,75.24364590770881,-0.9697831109425585,0.04268863927394188,0.16268904434853132
372,2.8800316310187524e-15,75.24364590770881,-0.9683662183782127,0.04278801219348464,0.17080658210716448
373,2.881104444897918e-15,75.24364590770881,-0.9669332031220531,0.04286257280516537,0.17831742225411498
374,2.8796004389499808e-15,75.24364590770881,-0.9656240230634344,0.04291073589826441,0.18513036236719022
375,2.875625197761537e-15,75.24364590770881,-0.9645469525062664,0.04293303126762704,0.1911876453420009
376,2.8699595832040058e-15,75.24364590770881,-0.9637708576101133,0.042931904104018315,0.1964720944142594
377,2.8638651268523505e-15,75.24364590770881,-0.9633192409275986,0.04291142756680263,0.2010065901559381
378,2.858672362529554e-15,75.24364590770881,-0.9631725119651936,0.04287676831993353,0.204848288853214
379,2.855368156154152e-15,75.24364590770881,-0.9632796666767253,0.04283364828660532,0.20807943234121878
380,2.8543940651787167e-15,75.24364590770881,-0.9635728737647424,0.042787798736256044,0.21079813679866025
381,2.8556960276192984e-15,75.24364590770881,-0.9639785474936777,0.04274417516258593,0.21311280481904893
382,2.8588794025785233e-15,75.24364590770881,-0.9644241806615658,0.042706027438579694,0.215140001129396
383,2.863326406732542e-15,75.24364590770881,-0.9648437132330067,0.04267430625428095,0.21700218586211803
384,2.868272751896378e-15,75.24364590770881,-0.9651817570678164,0.04264777496672366,0.21882159051547953
385,2.8729171338829823e-15,75.24364590770881,-0.9653933614376862,0.042623663493961815,0.22070858480665279
386,2.8765857282849585e-15,75.24364590770881,-0.9654395645959267,0.04259849966213033,0.22274721189946903
387,2.878865172925596e-15,75.24364590770881,-0.9652859581394497,0.04256911350752751,0.22498413159407843
388,2.879597555466588e-15,75.24364590770881,-0.9649100149881275,0.04253379315723423,0.2274256624234863
389,2.878762897520083e-15,75.24364590770881,-0.9643128664074534,0.04249308656550811,0.2300445514364814
390,2.8764114405835905e-15,75.24364590770881,-0.9635260962955432,0.04244981254922053,0.23279588706971016
391,2.8727443536634154e-15,75.24364590770881,-0.9626101956276606,0.04240840174020123,0.23563732502776513
392,2.8682380536715927e-15,75.24364590770881,-0.96164820228012,0.04237397448129636,0.23854644496161836
393,2.863634296579023e-15,75.24364590770881,-0.960737616466791,0.04235152686128511,0.24153149006253358
394,2.859748770900426e-15,75.24364590770881,-0.9599809323561879,0.0423453498003737,0.24463451796345703
395,2.8572391708679793e-15,75.24364590770881,-0.959476666348731,0.042358519891796946,0.24792450863076637
396,2.8564955522223334e-15,75.24364590770881,-0.9593153557769588,0.04239233566272391,0.25147950210360254
397,2.8576279880173115e-15,75.24364590770881,-0.9595818221176172,0.042445712798600134,0.25536416667149187
398,2.860460462009124e-15,75.24364590770881,-0.9603591731490162,0.042514624660897,0.25961263340467644
399,2.864559915192148e-15,75.24364590770881,-0.9617280727518948,0.04259203844100169,0.2642203980715627
400,2.8693185651949513e-15,75.24364590770881,-0.9637568160664202,0.04266895852516022,0.2691410390684677
401,2.874025877333121e-15,75.24364590770881,-0.9664827192568027,0.04273642297966734,0.27428147741669845
402,2.8779225420209267e-15,75.24364590770881,-0.9698909136492976,0.042787538533090703,0.2794927845173013
403,2.880303094560513e-15,75.24364590770881,-0.9738974810519856,0.04281893219255118,0.2845560312630924
404,2.880687305121338e-15,75.24364590770881,-0.9783395324438386,0.042831551099759675,0.2891647340287774
405,2.8789699716933467e-15,75.24364590770881,-0.9829711253923182,0.04283062498603509,0.2929133915069674
406,2.8754357609842744e-15,75.24364590770881,-0.9874644194809832,0.04282443492435751,0.29530904726121016
407,2.8706517012478962e-15,75.24364590770881,-0.9914188371325342,0.04282211223876192,0.29581675598496265
408,2.8653703457052016e-15,75.24364590770881,-0.9943841179096001,0.042831389587936,0.29393437927510363
409,2.8604838351770003e-15,75.24364590770881,-0.995902098870153,0.04285701336347526,0.2892797954989365
410,2.8569002954624365e-15,75.24364590770881,-0.9955664089188773,0.04289978951820428,0.28166769479624804
411,2.855298729302231e-15,75.24364590770881,-0.9930919045713392,0.04295602329435784,0.2711533397304129
412,2.8559225641730292e-15,75.24364590770881,-0.9883775129217727,0.04301761349683527,0.2580294095627813
413,2.8585598345417098e-15,75.24364590770881,-0.9815426965936334,0.04307350403822578,0.24277898456013924
414,2.862688567372863e-15,75.24364590770881,-0.9729266848218183,0.04311241556312254,0.2260044717383401
415,2.867666089658157e-15,75.24364590770881,-0.9630557325395921,0.043125232683162026,0.2083591030768684
416,2.8728812341062833e-15,75.24364590770881,-0.9525930112436541,0.04310570083080423,0.19050040167092747
417,2.8778365395631072e-15,75.24364590770881,-0.9422799969579473,0.0430503296976745,0.17306440020134783
418,2.8821225471635823e-15,75.24364590770881,-0.9328664020952161,0.04295904227653196,0.15664018593203113
419,2.8853175882864412e-15,75.24364590770881,-0.92502805907342,0.042836282592226854,0.14172882950808882
420,2.88693176593171e-15,75.24364590770881,-0.9192879030096514,0.0426911753227623,0.1286942241353248
421,2.886479543932918e-15,75.24364590770881,-0.9159618248730423,0.04253608901892994,0.11772803747321418
422,2.883667232925417e-15,75.24364590770881,-0.91513970255379,0.04238409809278098,0.10884691358145239
423,2.8785938187328336e-15,75.24364590770881,-0.9166965057597795,0.04224646661146428,0.1019269689007267
424,2.8718529704261243e-15,75.24364590770881,-0.9203251409401474,0.04213099251732762,0.09676491116689939
425,2.864473348845714e-15,75.24364590770881,-0.9255857555001701,0.04204131562577777,0.09314249343049034
426,2.8576846223877024e-15,75.24364590770881,-0.9319628516979797,0.04197713083296693,0.09086976888022412
427,2.8525963376352716e-15,75.24364590770881,-0.9389196781523429,0.041935261086038365,0.08979468510869866
428,2.849948933303005e-15,75.24364590770881,-0.9459451023332761,0.04191126170536936,0.08978634949604122
429,2.850011852956954e-15,75.24364590770881,-0.9525922993680462,0.0419010539461983,0.0907128316068107
430,2.8525973070048576e-15,75.24364590770881,-0.958507969272728,0.04190207494398629,0.09242986704053625
431,2.8571655651125494e-15,75.24364590770881,-0.9634496385815526,0.041913627144068696,0.09478364640846064
432,2.8630000429331988e-15,75.24364590770881,-0.9672890475679875,0.04193653410392875,0.09762489367433652
433,2.8693681099281737e-15,75.24364590770881,-0.9700017300169888,0.041972455100625264,0.10083119994175879
434,2.875594047646639e-15,75.24364590770881,-0.9716460037558896,0.04202317178422887,0.10433178523558338
435,2.881071294664692e-15,75.24364590770881,-0.9723373816096504,0.04209005052973637,0.10812366863856895
436,2.8852864454372556e-15,75.24364590770881,-0.9722253070618303,0.04217369243556424,0.11226765204683539
437,2.887854664993867e-15,75.24364590770881,-0.9714779034770857,0.04227351173733902,0.11686255444260009
438,2.888515265120716e-15,75.24364590770881,-0.9702759667269831,0.0423869514562704,0.12200949929804955
439,2.887133872275406e-15,75.24364590770881,-0.9688092028442794,0.04250857199709534,0.12778083498538648
440,2.883797482359235e-15,75.24364590770881,-0.9672640697998185,0.0426300084024205,0.1342019520820179
441,2.8789345184401364e-15,75.24364590770881,-0.9658017649430881,0.04274159791334498,0.14124801433442186
442,2.873301302557586e-15,75.24364590770881,-0.9645380597204873,0.04283494287188117,0.1488510652373653
443,2.86779298098361e-15,75.24364590770881,-0.9635378506481043,0.04290467643935778,0.15690589008859837
444,2.863219373282452e-15,75.24364590770881,-0.9628246356220757,0.042948719222081176,0.1652642646429836
445,2.860202250443208e-15,75.24364590770881,-0.9623935164971512,0.042967778271767475,0.17372167673931033
446,2.859148892151249e-15,75.24364590770881,-0.9622191920808674,0.042964801363999244,0.18201422353798302
447,2.860173158121853e-15,75.24364590770881,-0.96226110107732,0.042944215213400576,0.1898387705517946
448,2.863004747451392e-15,75.24364590770881,-0.9624705622077674,0.04291073226237293,0.1968926582361642
449,2.8670203822113173e-15,75.24364590770881,-0.9627983175272901,0.042868267095813865,0.20291842583032005
450,2.871410207903566e-15,75.24364590770881,-0.9631975773444216,0.04281961004966911,0.2077400393056789
451,2.875366422239083e-15,75.24364590770881,-0.9636226762757684,0.042766708648789266,0.21128388017331018
452,2.878203458880586e-15,75.24364590770881,-0.9640285550945167,0.04271095501578526,0.2135829064459481
453,2.879428448648045e-15,75.24364590770881,-0.96437436808593,0.04265325693196673,0.21476531089961665
454,2.87882489975438e-15,75.24364590770881,-0.9646280125751546,0.0425941679806505,0.21503303525150164
455,2.876534515772699e-15,75.24364590770881,-0.964766027608487,0.04253437875678959,0.21463782847199334
456,2.873053239735481e-15,75.24364590770881,-0.964770172674067,0.042475461000856904,0.21385809429276317
457,2.8691228012874997e-15,75.24364590770881,-0.9646282048264553,0.04242041156902611,0.21297272379991244
458,2.865560576934651e-15,75.24364590770881,-0.9643412492019252,0.04237365721663686,0.21222774262133137
459,2.8630570765546935e-15,75.24364590770881,-0.9639312847002034,0.042340523140091686,0.21180100503322927
460,2.8620022178546722e-15,75.24364590770881,-0.9634410439694201,0.04232637550635682,0.21178184642127681
461,2.8624219800468762e-15,75.24364590770881,-0.9629240822120869,0.042335646620974825,0.21218092059490173
462,2.8640536315638905e-15,75.24364590770881,-0.9624299890806376,0.04237079790428295,0.21296578243248093
463,2.8665181807890875e-15,75.24364590770881,-0.9619937735553474,0.042431184642685665,0.2140995508559172
464,2.869485155768053e-15,75.24364590770881,-0.9616333847760701,0.04251206506439976,0.21556059608129335
465,2.872730631096317e-15,75.24364590770881,-0.9613509435431166,0.04260450916407824,0.21733544322366202
466,2.8760739896137385e-15,75.24364590770881,-0.9611338121811152,0.04269685196478109,0.2193935901530299
467,2.8792740645430022e-15,75.24364590770881,-0.9609571797114844,0.04277727646281278,0.22166426060040575
468,2.8819958412230983e-15,75.24364590770881,-0.9607895009353278,0.04283632049594013,0.22403252765391432
469,2.883861269433176e-15,75.24364590770881,-0.9605986531761486,0.04286848299861565,0.22635541596498834
470,2.8845114880598137e-15,75.24364590770881,-0.9603578045672541,0.042872809293053926,0.22848478054990112
471,2.8836662302204867e-15,75.24364590770881,-0.9600530906904597,0.042852558752145935,0.23028720945307485
472,2.881235126257966e-15,75.24364590770881,-0.9596929109310268,0.042814107770628634,0.2316629447890346
473,2.8774737155510705e-15,75.24364590770881,-0.9593133500024563,0.042765353010409145,0.23256977900086775
474,2.8730445327374363e-15,75.24364590770881,-0.958974514232006,0.042714010273639524,0.2330526544881057
475,2.8688556692687167e-15,75.24364590770881,-0.9587489503994779,0.04266631386320381,0.23327241262349213
476,2.8657531861164846e-15,75.24364590770881,-0.9587088718832306,0.042626400146493125,0.23352020404409596
477,2.8642656493544573e-15,75.24364590770881,-0.9589190232674191,0.04259617535056547,0.23419994631271246
478,2.864497454074757e-15,75.24364590770881,-0.9594366847534989,0.042575376533649886,0.23576939315480466
479,2.866147562296633e-15,75.24364590770881,-0.9603138111120889,0.04256188215054194,0.23865197239062375
480,2.8686327085599606e-15,75.24364590770881,-0.9615950055792096,0.04255244492381682,0.24314759399298091
481,2.871291731885306e-15,75.24364590770881,-0.9633093162168164,0.0425437267498041,0.24936592533899682
482,2.873579991513074e-15,75.24364590770881,-0.9654582354249701,0.04253330823586735,0.2571889031750705
483,2.8751587030641056e-15,75.24364590770881,-0.9680042561167902,0.042520399836276576,0.26625839029322246
484,2.8758658653132285e-15,75.24364590770881,-0.9708634061772351,0.04250607070578453,0.2759873121548728
485,2.8756474947855365e-15,75.24364590770881,-0.9739016115637179,0.042492955155559176,0.2855997766886128
486,2.8745544965240774e-15,75.24364590770881,-0.9769333091682498,0.04248460487676079,0.29420334268733633
487,2.8728063741060385e-15,75.24364590770881,-0.9797237728361483,0.04248482009425912,0.3008842931604611
488,2.8708190086849075e-15,75.24364590770881,-0.9819986000123462,0.042497309039197254,0.30480878296187164
489,2.8691214240819037e-15,75.24364590770881,-0.9834622639511209,0.04252553707610591,0.30531601510920975
490,2.868180613407783e-15,75.24364590770881,-0.9838268855967179,0.04257195108207449,0.30199452804297383
491,2.868245295551933e-15,75.24364590770881,-0.9828519915824824,0.042636128341797495,0.2947326201078411
492,2.8693273798345704e-15,75.24364590770881,-0.9803914720096004,0.042712764225629245,0.28373454740944454
493,2.8713068825461376e-15,75.24364590770881,-0.9764365779811551,0.0427911396895219,0.2694971811368047
494,2.874017672156508e-15,75.24364590770881,-0.9711395128835657,0.04285701052688124,0.2527446573459594
495,2.8772470579902255e-15,75.24364590770881,-0.964806384408046,0.04289641286436051,0.2343262386516537
496,2.8807215248140916e-15,75.24364590770881,-0.9578596612944962,0.04289969933725673,0.215097013461701
497,2.8841005670867997e-15,75.24364590770881,-0.9507799589294517,0.04286414730939885,0.19581084368621146
498,2.8869540567515853e-15,75.24364590770881,-0.9440422994973869,0.042794548653618654,0.17705182138270467
499,2.8887837821558773e-15,75.24364590770881,-0.9380651976136999,0.04270188050370639,0.15921826247257465
500,2.889118049309052e-15,75.24364590770881,-0.933185818117295,0.04260033451056281,0.14255624865635508
501,2.8876155202633133e-15,75.24364590770881,-0.9296583448183743,0.04250369118293789,0.1272217297412833
502,2.884159206170537e-15,75.24364590770881,-0.9276584239987576,0.04242255232115512,0.11334232820981634
503,2.878974011262504e-15,75.24364590770881,-0.9272783062958183,0.042363165089297716,0.10105926137838821
504,2.872717712166921e-15,75.24364590770881,-0.9285131255611535,0.04232752085656053,0.09054591522012266
505,2.8663997564578136e-15,75.24364590770881,-0.931249865094966,0.04231420203061898,0.08200796626286706
506,2.8610827029167022e-15,75.24364590770881,-0.9352666773695147,0.042319577604072636,0.07566799383689106
507,2.8575391716341838e-15,75.24364590770881,-0.9402438338735516,0.04233896923619996,0.07173316433737591
508,2.8560929773931086e-15,75.24364590770881,-0.9457877701633528,0.04236758956879496,0.07034902933052452
509,2.856696875541878e-15,75.24364590770881,-0.9514693458137071,0.04240127708346628,0.0715551864089229
510,2.85910118559149e-15,75.24364590770881,-0.9568717351010272,0.042436933366395535,0.0752612593784629
511,2.862965478949621e-15,75.24364590770881,-0.9616372107999547,0.04247241087549217,0.08124783385243725
512,2.8678906082967468e-15,75.24364590770881,-0.9655025868520162,0.0425059224556534,0.08918415005805694
513,2.8734082237753114e-15,75.24364590770881,-0.9683193073112787,0.04253548872613928,0.09865374589040832
514,2.8789565369613172e-15,75.24364590770881,-0.9700575796959404,0.04255881426331057,0.10918463241890311
515,2.883875253886469e-15,75.24364590770881,-0.9707937086074437,0.04257353688454866,0.12028372505970682
516,2.887470709868867e-15,75.24364590770881,-0.9706827587770891,0.042577672179817984,0.13147333931207264
517,2.8891644302246465e-15,75.24364590770881,-0.969924978938163,0.042570168670931836,0.14232452924602593
518,2.8886510639247817e-15,75.24364590770881,-0.9687364774991284,0.04255138721787659,0.1524823719899965
519,2.885987455942507e-15,75.24364590770881,-0.9673275252117073,0.042523157744735925,0.16167973436291136
520,2.881612933195737e-15,75.24364590770881,-0.9658835227123185,0.04248835450412967,0.1697380502082614
521,2.8763179299647956e-15,75.24364590770881,-0.9645466046867155,0.042450516020249726,0.17656004546607276
522,2.8711318117778608e-15,75.24364590770881,-0.9634049575950638,0.04241399425470709,0.1821255541485142
523,2.8671081909867184e-15,75.24364590770881,-0.9624960698813979,0.042384355533012716,0.1864966084822115
524,2.8650514871564874e-15,75.24364590770881,-0.9618192949686039,0.042368244209648076,0.1898228658229147
525,2.8652803005872527e-15,75.24364590770881,-0.961348035993282,0.04237222248933704,0.1923309361422711
526,2.8675569937039352e-15,75.24364590770881,-0.9610383816087434,0.04240089615064327,0.19429340307712298
527,2.8712602186820895e-15,75.24364590770881,-0.9608381972391141,0.04245513000771384,0.19599007632780596
528,2.8756812188885486e-15,75.24364590770881,-0.9606990578546005,0.04253104802631506,0.19767602143888408
529,2.880203757605177e-15,75.24364590770881,-0.960586358892732,0.042620255390139666,0.19956302904312104
530,2.8842876831430674e-15,75.24364590770881,-0.9604814913104409,0.0427113527009049,0.20181197194759032
531,2.8874181402280323e-15,75.24364590770881,-0.9603769201557308,0.04279225348377305,0.2045259585866389
532,2.8891558329639166e-15,75.24364590770881,-0.9602703908969162,0.0428525500304956,0.20773931199951945
533,2.889213647198999e-15,75.24364590770881,-0.9601626809672164,0.042885347961768294,0.21141186254685154
534,2.8874841522460765e-15,75.24364590770881,-0.960058223112037,0.04288825679254774,0.21543997068436596
535,2.88408477295527e-15,75.24364590770881,-0.9599646833065245,0.0428633142801671,0.21968271026280264
536,2.879431533905367e-15,75.24364590770881,-0.959889248792031,0.04281584119515668,0.22399054854802528
537,2.8742162599406093e-15,75.24364590770881,-0.9598336470905979,0.04275290844060726,0.22822449968618122
538,2.869225909215217e-15,75.24364590770881,-0.9597919938920126,0.04268225755350275,0.23226400741775755
539,2.8651337639347654e-15,75.24364590770881,-0.9597537064826088,0.042611655999007084,0.23601007367377577
540,2.8624299633199663e-15,75.24364590770881,-0.9597095629238283,0.042548216978500454,0.23938764498645934
541,2.861465157122341e-15,75.24364590770881,-0.9596572590571715,0.042497618920895625,0.24234536411185337
542,2.862442558463387e-15,75.24364590770881,-0.9596047431674365,0.04246349408032265,0.24485235110897743
543,2.865314096776548e-15,75.24364590770881,-0.9595714076728264,0.04244723519528748,0.24689812914209328
544,2.869714682573971e-15,75.24364590770881,-0.9595885364581701,0.04244819728462723,0.2485034180969062
545,2.8750335623182025e-15,75.24364590770881,-0.9597011619708775,0.04246399528281546,0.24974361205679826
546,2.8805469839855746e-15,75.24364590770881,-0.9599702888763464,0.04249068035586702,0.2507775480087581
547,2.8855047989207464e-15,75.24364590770881,-0.9604705989632366,0.04252296623579872,0.2518652724849723
548,2.8891831045463213e-15,75.24364590770881,-0.9612812004164256,0.04255492015729171,0.25335495014939613
549,2.8909844127324677e-15,75.24364590770881,-0.9624722679646301,0.042581154086635445,0.2556290963195457
550,2.890609669715833e-15,75.24364590770881,-0.9640911897069058,0.04259793787274071,0.2590218828605382
551,2.8882195731271814e-15,75.24364590770881,-0.9661496428134834,0.04260373342880412,0.2637338642750765
552,2.8844684805113735e-15,75.24364590770881,-0.9686124724036363,0.04259922018052614,0.26976644275760203
553,2.8803350202465982e-15,75.24364590770881,-0.9713897260140819,0.04258707601613151,0.27688672468832687
554,2.8767801980852706e-15,75.24364590770881,-0.9743329160404288,0.042571597655600334,0.28462654774713936
555,2.8744156662240387e-15,75.24364590770881,-0.9772361735743275,0.04255814178502337,0.29231448549257383
556,2.8733640542917728e-15,75.24364590770881,-0.979842618677515,0.04255238420817547,0.2991342548754614
557,2.8733396130119218e-15,75.24364590770881,-0.9818566366855999,0.04255942199093296,0.3042035597576968
558,2.8738682753864273e-15,75.24364590770881,-0.9829650535617837,0.04258271155864558,0.30667059428085575
559,2.8745205059688525e-15,75.24364590770881,-0.9828713868800528,0.042622831793539755,0.30581936436169677
560,2.8750555989426963e-15,75.24364590770881,-0.9813434019278772,0.042676421153480165,0.3011640651911098
561,2.8754550627687926e-15,75.24364590770881,-0.9782658230399341,0.04273607969198925,0.2925115444709945
562,2.8758353554965184e-15,75.24364590770881,-0.9736810927208348,0.04279170043431636,0.27998080210031856
563,2.8762542803492825e-15,75.24364590770881,-0.9678000853724184,0.042832740556115224,0.26398123562653486
564,2.876571091433171e-15,75.24364590770881,-0.9609772940294058,0.04285049898187149,0.24516029196086414
565,2.8765190491739047e-15,75.24364590770881,-0.9536614069749402,0.04283985066375083,0.22433306274871684
566,2.8758849744054308e-15,75.24364590770881,-0.946339607536132,0.04280030723297529,0.2024034732472661
567,2.8746221999696168e-15,75.24364590770881,-0.9394895403845687,0.04273636158339536,0.18028525845440704
568,2.872921151568825e-15,75.24364590770881,-0.9335429684574631,0.042656850131068784,0.15883227381145418
569,2.871265056007402e-15,75.24364590770881,-0.9288604802918234,0.04257290866113203,0.1387863054410284
570,2.8703578292456983e-15,75.24364590770881,-0.9257167103212655,0.04249501175045501,0.12074444494608344
571,2.870858191569878e-15,75.24364590770881,-0.9242923275901319,0.04243064645200993,0.10514350772572574
572,2.873044472745165e-15,75.24364590770881,-0.9246642083831261,0.042383540773326865,0.09226013390106792
573,2.8766454378523115e-15,75.24364590770881,-0.9267873152197138,0.042354133926430365,0.08222739880692057
574,2.880960305207738e-15,75.24364590770881,-0.9304754215139869,0.042340697155214053,0.07506482045080573
575,2.8851391963223537e-15,75.24364590770881,-0.9354002819851465,0.042340644385696444,0.07071050494719183
576,2.8883902174486356e-15,75.24364590770881,-0.941122550456721,0.0423515506619872,0.069042863997617
577,2.8900656524565042e-15,75.24364590770881,-0.9471492123035762,0.04237148656538122,0.06988906352711077
578,2.8897708785188875e-15,75.24364590770881,-0.9530001473374866,0.04239863968166427,0.07302678795472485
579,2.887513331298276e-15,75.24364590770881,-0.9582664950063765,0.042430636576472745,0.07818567528405018
580,2.8837176993784867e-15,75.24364590770881,-0.9626502553675207,0.04246421149174033,0.08505198935195898
581,2.8790253963202725e-15,75.24364590770881,-0.9659816104648534,0.04249559278684965,0.09328017135855259
582,2.874042110739523e-15,75.24364590770881,-0.9682161280838011,0.04252128150295856,0.10251126416608125
583,2.8692823214769905e-15,75.24364590770881,-0.9694175904726664,0.042538608113025775,0.11239158677248508
584,2.8652837615385312e-15,75.24364590770881,-0.969731749978593,0.04254592396686423,0.12258515615118454
585,2.86259512847334e-15,75.24364590770881,-0.9693545617133736,0.04254267796632129,0.13277989751491684
586,2.861599792009715e-15,75.24364590770881,-0.9684994677303527,0.04252945227415132,0.14269123143062995
587,2.8624431639576574e-15,75.24364590770881,-0.9673698344032138,0.04250784732088731,0.15206555515141257
588,2.865097364888025e-15,75.24364590770881,-0.9661400113412911,0.04248028746310101,0.1606865598940925
589,2.8693559262417957e-15,75.24364590770881,-0.9649434243342292,0.04244995851011943,0.16838731133074603
590,2.8747869985018033e-15,75.24364590770881,-0.963865730453416,0.04242094646386126,0.1750649750604478
591,2.8808560346015167e-15,75.24364590770881,-0.9629451700289576,0.04239842795717931,0.18068941523596857
592,2.8871515792366663e-15,75.24364590770881,-0.9621830764860163,0.042388502251809776,0.18530002109204272
593,2.8934415484288546e-15,75.24364590770881,-0.9615623627631952,0.042397180801039,0.1889931031654534
594,2.8995089546437724e-15,75.24364590770881,-0.9610644031384642,0.04242860085013655,0.19190631676564932
595,2.904970928146523e-15,75.24364590770881,-0.9606741300694308,0.042483279660610586,0.19420360021263539
596,2.909268170103437e-15,75.24364590770881,-0.9603745134977635,0.0425572829590064,0.19605891946316747
597,2.9117942859226923e-15,75.24364590770881,-0.9601417909033616,0.04264255728582807,0.19763719812339522
598,2.912013634879301e-15,75.24364590770881,-0.9599485789228837,0.042728227025098674,0.19907579870569134
599,2.9095810411637703e-15,75.24364590770881,-0.9597713760574458,0.042802654597286036,0.2004727548753426
600,2.9045728488493107e-15,75.24364590770881,-0.9595957965839931,0.04285583403363678,0.20188524830664187
601,2.897693849347201e-15,75.24364590770881,-0.9594167417476953,0.04288130907249818,0.20333680718348124
602,2.890125928241236e-15,75.24364590770881,-0.9592343581377543,0.042877134552482,0.20482907459971267
603,2.882955551988632e-15,75.24364590770881,-0.959048708353092,0.04284605486578483,0.20635418492281304
604,2.876634959019381e-15,75.24364590770881,-0.9588564630505746,0.042794928014805236,0.20790421787435456
605,2.8709751648840805e-15,75.24364590770881,-0.9586507605377046,0.042732986249846706,0.20947417981140032
606,2.8655636923199233e-15,75.24364590770881,-0.9584236766235994,0.04266926250275032,0.2110574650562158
607,2.8601438220587653e-15,75.24364590770881,-0.9581707542545762,0.04261062749583458,0.2126393932711072
608,2.854835779536785e-15,75.24364590770881,-0.9578963245029845,0.04256135599509371,0.21419812236106034
609,2.850267292388694e-15,75.24364590770881,-0.9576169914343655,0.042523714197717555,0.21571742245421832
610,2.8474455571440823e-15,75.24364590770881,-0.9573616247913921,0.04249871443009124,0.21720853269213028
611,2.8473214596449542e-15,75.24364590770881,-0.9571694907500641,0.04248664545859831,0.21873367274146577
612,2.85035604413361e-15,75.24364590770881,-0.9570886070306639,0.04248717436439521,0.22042239702479385
613,2.8563492183516145e-15,75.24364590770881,-0.9571732142598305,0.04249895514716177,0.2224750476475391
614,2.8645523014864604e-15,75.24364590770881,-0.9574788165835943,0.042519159952174514,0.22515117190210596
615,2.8739418977357656e-15,75.24364590770881,-0.9580563309921342,0.04254355912714123,0.22874226188473445
616,2.8834203857321384e-15,75.24364590770881,-0.9589476281847499,0.042567263388689824,0.23353098591061736
617,2.891877705598999e-15,75.24364590770881,-0.9601821413776155,0.04258567846619728,0.23974191597313327
618,2.898341642160512e-15,75.24364590770881,-0.9617723166235942,0.04259521583608089,0.24748887327157862
619,2.9022375789499252e-15,75.24364590770881,-0.9637070995320249,0.04259358445504857,0.2567248137567767
620,2.90346945145957e-15,75.24364590770881,-0.9659455707407939,0.04257984806804415,0.2672031666456202
621,2.902271409682001e-15,75.24364590770881,-0.9684131884228968,0.0425547005406193,0.27846080344474555
622,2.8990510567832787e-15,75.24364590770881,-0.9710007980683746,0.04252103814676922,0.2898297691808837
623,2.8943247484625424e-15,75.24364590770881,-0.9735643652520982,0.04248423235884765,0.30047971473374935
624,2.8887030563831217e-15,75.24364590770881,-0.9759231170024506,0.04245160780089518,0.30948867068531005
625,2.8828668974522297e-15,75.24364590770881,-0.9778574541115566,0.042431297858094685,0.31593542123317236
626,2.8774759739139175e-15,75.24364590770881,-0.9791134606965665,0.04243085967773768,0.31900080543617915
627,2.8730587692044614e-15,75.24364590770881,-0.9794218202131337,0.04245579815436555,0.3180624140765729
628,2.8700083412964954e-15,75.24364590770881,-0.9785344314569611,0.04250802950866716,0.3127711609793202
629,2.868604875031862e-15,75.24364590770881,-0.9762755170601929,0.04258441946847663,0.30310203486454385
630,2.8689145189717532e-15,75.24364590770881,-0.9725962168026089,0.04267591947769793,0.2893686647686619
631,2.8707190286754765e-15,75.24364590770881,-0.9676133673951963,0.042768271849750725,0.2721910422443771
632,2.873648554878087e-15,75.24364590770881,-0.9616129415018999,0.04284488074578275,0.2524178729377048
633,2.8773066151217816e-15,75.24364590770881,-0.9550136717270986,0.04289104942866907,0.2310214933803355
634,2.8811855160367626e-15,75.24364590770881,-0.9483055320610255,0.042897733568373675,0.2089891755046749
635,2.884589417106003e-15,75.24364590770881,-0.9419845186025138,0.04286342677029986,0.1872296296794634
636,2.8868065563467093e-15,75.24364590770881,-0.9364995179944974,0.04279405774828362,0.1665070105044169
637,2.8873937887605014e-15,75.24364590770881,-0.932215953541905,0.04270150785385656,0.14740955263352792
638,2.8863164747669837e-15,75.24364590770881,-0.9293920126841417,0.04260119168845053,0.13035317104818392
639,2.8838745719323144e-15,75.24364590770881,-0.9281648483641901,0.04250876806407865,0.11561178008741685
640,2.8805469700636958e-15,75.24364590770881,-0.9285491282231488,0.042436508721913256,0.10335895861368923
641,2.8769230425002726e-15,75.24364590770881,-0.9304460173414856,0.0423906951662117,0.09370391910864663
642,2.8736588071793447e-15,75.24364590770881,-0.933653933998065,0.04237117954649863,0.08671046037090852
643,2.8713143940052047e-15,75.24364590770881,-0.9378779777446032,0.04237304988725507,0.08239705395142985
644,2.8702287898826107e-15,75.24364590770881,-0.9427482205197671,0.042389252505517776,0.08072398906902199
645,2.8706027900980614e-15,75.24364590770881,-0.9478566961830505,0.04241276283278644,0.08157720135152444
646,2.872576228754643e-15,75.24364590770881,-0.9528066284133251,0.04243765921396348,0.08475668315423336
647,2.8760943627618113e-15,75.24364590770881,-0.9572585853530019,0.04245938092209226,0.0899725344863511
648,2.88077777701106e-15,75.24364590770881,-0.9609639334040858,0.042474665266689096,0.09684948145922784
649,2.886036200405013e-15,75.24364590770881,-0.9637812293520982,0.042481427420884434,0.1049411703010471
650,2.8912912409575997e-15,75.24364590770881,-0.96567342069225,0.042478700325671914,0.11375524808644857
651,2.8960589062700374e-15,75.24364590770881,-0.9666903633075873,0.04246673506443207,0.12278855366984638
652,2.899840268958713e-15,75.24364590770881,-0.9669468456482219,0.042447276032641625,0.13156889036599356
653,2.902000104483427e-15,75.24364590770881,-0.9666017875749244,0.042423808450366786,0.13969649121611666
654,2.901890894626779e-15,75.24364590770881,-0.9658363525178666,0.04240145815753604,0.1468762828531219
655,2.8991723929054778e-15,75.24364590770881,-0.9648294365587405,0.0423864130049955,0.15293383339793512
656,2.8940167027168443e-15,75.24364590770881,-0.9637346793977835,0.04238497064134399,0.1578144755681164
657,2.8871556156103466e-15,75.24364590770881,-0.9626647335684481,0.042402261277948515,0.16157124188669145
658,2.8798646140613788e-15,75.24364590770881,-0.9616867644428494,0.04244072518311093,0.16434713270619436
659,2.87372628435557e-15,75.24364590770881,-0.9608294737842118,0.042498823917221304,0.16635347697202485
660,2.8701258418264078e-15,75.24364590770881,-0.9600962424565094,0.04257063442158987,0.16784385396164928
661,2.869786746245128e-15,75.24364590770881,-0.9594765607126539,0.04264670598107031,0.16908567269634164
662,2.872602406471086e-15,75.24364590770881,-0.9589526944427943,0.04271610243071286,0.17033682443723253
663,2.8777806949136397e-15,75.24364590770881,-0.9585049996227599,0.04276896505594239,0.17183151199136643
664,2.8841732368640258e-15,75.24364590770881,-0.9581192299474979,0.04279874133958173,0.17376883304204727
665,2.8905482736706494e-15,75.24364590770881,-0.9577934464495611,0.042803532302096096,0.17629791268837167
666,2.895732022841885e-15,75.24364590770881,-0.957538653348437,0.042786119985501386,0.17950353028386887
667,2.8988294986574644e-15,75.24364590770881,-0.957371224732417,0.04275248787642574,0.18339918140212855
668,2.8995040423556617e-15,75.24364590770881,-0.9573026332075999,0.042709541492052486,0.1879303517753945
669,2.897951400698426e-15,75.24364590770881,-0.9573329753017679,0.04266324606098108,0.19298868731271057
670,2.8945392767292202e-15,75.24364590770881,-0.9574492759079881,0.04261784953327813,0.1984355521086213
671,2.889559381262281e-15,75.24364590770881,-0.95762663716103,0.04257606678683742,0.20412695751263338
672,2.8833221803307584e-15,75.24364590770881,-0.9578311782501795,0.04253963869369915,0.20992739833152996
673,2.876308617175511e-15,75.24364590770881,-0.9580244361670381,0.04250965032533638,0.21570630856300005
674,2.869103749566959e-15,75.24364590770881,-0.9581687648085695,0.0424866094961093,0.22132501625213716
675,2.8622571315370196e-15,75.24364590770881,-0.9582330637700769,0.042470737701016184,0.2266317336153393
676,2.8563446021665585e-15,75.24364590770881,-0.958198475453841,0.04246237109497242,0.2314759072197197
677,2.8521816269276103e-15,75.24364590770881,-0.9580642981588113,0.042461943956631026,0.23573533009764153
678,2.8508021800139625e-15,75.24364590770881,-0.9578538812778328,0.04246956314927193,0.23934023035215066
679,2.8530453543151608e-15,75.24364590770881,-0.9576174792003606,0.042484654201019816,0.24228662628484973
680,2.859182090121908e-15,75.24364590770881,-0.9574276025883967,0.04250600927550701,0.24464088284593816
681,2.868898382718357e-15,75.24364590770881,-0.9573665561840261,0.042532176207816845,0.24653725537139146
682,2.881311532711406e-15,75.24364590770881,-0.9575110639151609,0.04256175140189096,0.24816733475436362
683,2.894865964672308e-15,75.24364590770881,-0.9579198061905433,0.04259322315595132,0.24976173855885359
684,2.9075462586258453e-15,75.24364590770881,-0.9586268494973641,0.04262460089229694,0.2515673930000908
685,2.917531062902191e-15,75.24364590770881,-0.9596395526506842,0.042653220160307294,0.2538235618474349
686,2.923721472485072e-15,75.24364590770881,-0.960938277195568,0.04267575513107738,0.25673581483562735
687,2.9257212021667796e-15,75.24364590770881,-0.9624785609564925,0.04268852575674006,0.2604434585150589
688,2.923492271171215e-15,75.24364590770881,-0.9641972874954909,0.04268833177407032,0.2649783384195969
689,2.9171788976343537e-15,75.24364590770881,-0.9660199949699491,0.04267355378641879,0.270222076726344
690,2.907290857352671e-15,75.24364590770881,-0.967864033493037,0.0426448920064494,0.2758766452687769
691,2.8949014604751647e-15,75.24364590770881,-0.9696354933343128,0.04260556347326769,0.2814614917787483
692,2.881538092161562e-15,75.24364590770881,-0.9712220476260425,0.04256117086482463,0.286341788855362
693,2.8689647128077847e-15,75.24364590770881,-0.9724861368999785,0.04251912204299261,0.2897852294359105
694,2.8590247945001726e-15,75.24364590770881,-0.9732639440244096,0.042487393527169515,0.2910421506324463
695,2.8533697044627002e-15,75.24364590770881,-0.9733745136842871,0.04247300630880095,0.2894422366007663
696,2.8530170804897557e-15,75.24364590770881,-0.9726401286373324,0.04248068385379873,0.2844960496854288
697,2.857937028587197e-15,75.24364590770881,-0.9709163742785525,0.0425117401459037,0.2759814689386109
698,2.8669472283244806e-15,75.24364590770881,-0.968128451067013,0.04256327697188553,0.263992328759026
699,2.878082829595424e-15,75.24364590770881,-0.9643065952295111,0.042628052469458354,0.2489357960756712
700,2.889221576244398e-15,75.24364590770881,-0.9596096420008795,0.04269534064779855,0.23148021346708814
701,2.8985250152871642e-15,75.24364590770881,-0.9543272006496508,0.04275281566720653,0.21246682271978226
702,2.9046057094972286e-15,75.24364590770881,-0.9488566040601392,0.04278914339735457,0.19280556480223546
703,2.9067059157655014e-15,75.24364590770881,-0.9436557850657369,0.042796602455446274,0.17337743097312436
704,2.9048840393460087e-15,75.24364590770881,-0.9391793075578568,0.04277274798835916,0.15496100214463338
705,2.899824587445824e-15,75.24364590770881,-0.9358128535059604,0.042720349517997414,0.13819080684363202
706,2.8923456561773313e-15,75.24364590770881,-0.9338229795325427,0.04264588853849384,0.12354566523617605
707,2.883255377787172e-15,75.24364590770881,-0.933329855915621,0.042557809194676686,0.11135799350330285
708,2.8736999842434013e-15,75.24364590770881,-0.9343008115325108,0.042465469753321224,0.10183222133068842
709,2.8653347646005807e-15,75.24364590770881,-0.936561267645731,0.04237868575300481,0.09506416063618592
710,2.85989369508822e-15,75.24364590770881,-0.9398227643258791,0.04230703812464595,0.09105716763602464
711,2.858535771903221e-15,75.24364590770881,-0.9437259715588211,0.042258625973270056,0.08973120121374344
712,2.861562239749033e-15,75.24364590770881,-0.9478901057883405,0.04223883832930414,0.09092328095054482
713,2.8685691742836576e-15,75.24364590770881,-0.9519574807522702,0.042249642780892535,0.09438380959524571
714,2.8785788563208594e-15,75.24364590770881,-0.9556268376354055,0.04228940317874418,0.09977692196847601
715,2.89001359075365e-15,75.24364590770881,-0.9586749499510288,0.04235312975199569,0.10669123420714631
716,2.9009566696433527e-15,75.24364590770881,-0.9609675534621716,0.04243302407537168,0.11466135988673977
717,2.9097928028709703e-15,75.24364590770881,-0.9624609918692947,0.04251924024592961,0.12319637384963746
718,2.915598389494437e-15,75.24364590770881,-0.9631955856613297,0.042601072754671905,0.1318129173297165
719,2.9179136681608156e-15,75.24364590770881,-0.9632803557641659,0.04266883621768909,0.14007177977113974
720,2.9163944630817254e-15,75.24364590770881,-0.9628701985173957,0.042716092128953005,0.14761345623010252
721,2.91090534840454e-15,75.24364590770881,-0.9621392223518942,0.042741030066086635,0.1541858247155374
722,2.901864315482416e-15,75.24364590770881,-0.9612548472359563,0.04274599274717583,0.1596587195939372
723,2.8903240606076785e-15,75.24364590770881,-0.9603579688936554,0.042735587130266844,0.164023372955134
724,2.8777772091414958e-15,75.24364590770881,-0.9595526626178058,0.0427147785541341,0.16737793017693392
725,2.8660237670358927e-15,75.24364590770881,-0.9589036742155382,0.04268775869401598,0.1699024529525334
726,2.857089078764668e-15,75.24364590770881,-0.9584377287754633,0.04265748834138169,0.17182799215696717
727,2.852903085374742e-15,75.24364590770881,-0.958147960873999,0.04262571184908866,0.1734046330622924
728,2.8546880549484552e-15,75.24364590770881,-0.958003104449985,0.042593393882167936,0.17487141340594828
729,2.8623731924860496e-15,75.24364590770881,-0.9579600897021604,0.04256136027550533,0.17642900363155842
730,2.8745098116039474e-15,75.24364590770881,-0.9579756914182285,0.04253073001948485,0.17821752173821936
731,2.888736827219487e-15,75.24364590770881,-0.9580143325441246,0.042502980874497866,0.18030368149755893
732,2.9023353595867625e-15,75.24364590770881,-0.9580514840451139,0.042479842678045526,0.1826809220028514
733,2.912715018315679e-15,75.24364590770881,-0.9580733326463616,0.04246311768687066,0.18528506052546487
734,2.9180048228961174e-15,75.24364590770881,-0.9580744169774559,0.0424543546365797,0.18802403525579997
735,2.917545610118575e-15,75.24364590770881,-0.9580544769028292,0.04245440894546686,0.1908116011094789
736,2.911965422095062e-15,75.24364590770881,-0.9580147798519618,0.042463067578880076,0.19359018511993126
737,2.9028392767783435e-15,75.24364590770881,-0.9579547857704597,0.04247898357467701,0.19633556699068264
738,2.8920678809389362e-15,75.24364590770881,-0.9578705610411286,0.042500010404762686,0.19904859061544322
739,2.8813345077069444e-15,75.24364590770881,-0.9577557108067449,0.04252362853892332,0.20174406773054415
740,2.872015423082569e-15,75.24364590770881,-0.957604604798558,0.04254713831668942,0.20444263644709243
741,2.865283207233413e-15,75.24364590770881,-0.9574163885659888,0.04256780894030726,0.20716504727686938
742,2.8620112106768473e-15,75.24364590770881,-0.9571975513317068,0.04258330096640488,0.20992638091230625
743,2.8626907321839e-15,75.24364590770881,-0.9569617425482876,0.04259216665956269,0.2127302823407072
744,2.8675075456029666e-15,75.24364590770881,-0.9567270883138879,0.04259403743063865,0.2155655532200272
745,2.8762235899437603e-15,75.24364590770881,-0.9565121751728896,0.04258952012079022,0.21840626887192846
746,2.8877828231703602e-15,75.24364590770881,-0.9563322190748053,0.04258006739811991,0.22121434170727125
747,2.9001421189618447e-15,75.24364590770881,-0.956196917907381,0.04256782973671277,0.2239436637391021
748,2.9107443402940416e-15,75.24364590770881,-0.9561101518590278,0.042555225545674466,0.22654811415822126
749,2.9173935829980836e-15,75.24364590770881,-0.9560700494113464,0.04254420751741605,0.22899673773345108
750,2.9188411232444722e-15,75.24364590770881,-0.9560693390536045,0.04253580719904374,0.23129354286605025
751,2.9148174329344336e-15,75.24364590770881,-0.9560981780756218,0.04253051659644859,0.23349226348663674
752,2.9059527496971466e-15,75.24364590770881,-0.9561494419334571,0.04252906526513097,0.23569763669583718
753,2.893800948761659e-15,75.24364590770881,-0.9562226477870607,0.0425326197007778,0.2380540294173717
754,2.880559180974749e-15,75.24364590770881,-0.9563239123232611,0.04254223562723457,0.24072969465691438
755,2.86839373430896e-15,75.24364590770881,-0.9564640822823232,0.042558152292351575,0.24390312349916513
756,2.858972070006768e-15,75.24364590770881,-0.9566590302714649,0.04257937548918384,0.24775066193958603
757,2.8535015008405933e-15,75.24364590770881,-0.9569334829491296,0.042603712792070536,0.25243041386006704
758,2.852822991207106e-15,75.24364590770881,-0.9573249924196783,0.042628228248046886,0.2580599613488754
759,2.857243585690289e-15,75.24364590770881,-0.9578819027968462,0.042649839465498426,0.2646913366687587
760,2.8663289061778324e-15,75.24364590770881,-0.9586530919077554,0.04266578688543028,0.27228949147110626
761,2.8788833895398205e-15,75.24364590770881,-0.9596744366983812,0.04267385170301724,0.28071791040164523
762,2.8931639587407993e-15,75.24364590770881,-0.9609587973201067,0.042672291137087204,0.2897308764350088
763,2.9071991252741936e-15,75.24364590770881,-0.9624921036376819,0.042659759347366565,0.29897043906731124
764,2.919001031146104e-15,75.24364590770881,-0.9642329177545914,0.04263569946043059,0.30796852165835165
765,2.9267877082040986e-15,75.24364590770881,-0.9661109649189876,0.042601163335861975,0.31615762530105906
766,2.929401155686803e-15,75.24364590770881,-0.9680228690990802,0.042559361021989754,0.3228932488568187
767,2.9265938640614624e-15,75.24364590770881,-0.9698274834487972,0.04251549078192692,0.3274892668421095
768,2.9188940651585043e-15,75.24364590770881,-0.9713451395800565,0.042476068013934484,0.32926710625514444
769,2.90734440101878e-15,75.24364590770881,-0.9723644918224059,0.042448135441764075,0.32761830560065175
770,2.893371104626419e-15,75.24364590770881,-0.972659438768697,0.04243838166191141,0.3220763338497752
771,2.878694949132603e-15,75.24364590770881,-0.9720178349095827,0.042451834027850764,0.3123898280220556
772,2.8651972402589505e-15,75.24364590770881,-0.9702808412846905,0.04249006792542705,0.2985860957438508
773,2.8546774726673976e-15,75.24364590770881,-0.9673855933780047,0.042549760946001984,0.2810101650938691
774,2.848555004029844e-15,75.24364590770881,-0.963398667893414,0.042622765973891356,0.2603243652963177
775,2.8477408975937307e-15,75.24364590770881,-0.9585288636065487,0.04269793684708459,0.23746047476420026
776,2.8526386900103636e-15,75.24364590770881,-0.9531141087820256,0.04276375001681896,0.21352858895777865
777,2.8629460062270132e-15,75.24364590770881,-0.9475826716171644,0.04281069166886212,0.18969734709758082
778,2.8772959474191863e-15,75.24364590770881,-0.9423938141953743,0.042832901729695436,0.16706618743063217
779,2.8932729283836856e-15,75.24364590770881,-0.9379723371565316,0.04282859399663908,0.1465531042647508
780,2.9080265982161136e-15,75.24364590770881,-0.9346564328839623,0.04279904759615112,0.12881917322913772
781,2.9190183719364087e-15,75.24364590770881,-0.9326682783986637,0.04274704536336119,0.11424066404957114
782,2.9244836715630268e-15,75.24364590770881,-0.9321015991356356,0.0426760813428387,0.10292563982984886
783,2.9237091497015425e-15,75.24364590770881,-0.932917800701371,0.042590750828553,0.09476371113268574
784,2.917266001932938e-15,75.24364590770881,-0.9349526963509293,0.042497483315433474,0.08949380489825749
785,2.906976776225277e-15,75.24364590770881,-0.9379409218005986,0.04240434133303193,0.086770033003678
786,2.8953317554396225e-15,75.24364590770881,-0.9415561585370215,0.042319590383438514,0.08620765819626187
787,2.8845831440005687e-15,75.24364590770881,-0.9454564401179598,0.04225012852402055,0.08740621475025587
788,2.876215493963206e-15,75.24364590770881,-0.9493243228612803,0.04220089232645173,0.0899614768034659
789,2.871084067695221e-15,75.24364590770881,-0.9528956189227373,0.042175205517750836,0.09347910602713884
790,2.8696818641350087e-15,75.24364590770881,-0.9559740687959986,0.04217521699705799,0.09759632504535194
791,2.8720936057165222e-15,75.24364590770881,-0.9584337660490178,0.04220183335172421,0.1020112232662921
792,2.8779274148081497e-15,75.24364590770881,-0.9602146109785111,0.04225426961862226,0.10651168936256832
793,2.8864468946142e-15,75.24364590770881,-0.961315615447504,0.04232952505918099,0.11099117857247238
794,2.8966363814595346e-15,75.24364590770881,-0.9617874988417431,0.04242192363457915,0.11544330455298746
795,2.907098050361864e-15,75.24364590770881,-0.9617232694906299,0.04252302875877608,0.11993769299008598
796,2.9160451566173642e-15,75.24364590770881,-0.9612456043369003,0.042622389114857155,0.12458473775348398
797,2.9216390598337626e-15,75.24364590770881,-0.9604923104209171,0.04270914283031822,0.12949629377763583
798,2.9225945362223195e-15,75.24364590770881,-0.9596020122625427,0.04277405566785983,0.13475081303650013
799,2.918589338865788e-15,75.24364590770881,-0.9586999708130817,0.0428116003308357,0.1403739375393768
800,2.910204746896526e-15,75.24364590770881,-0.9578840540439694,0.04282152974896678,0.1463409000274395
801,2.8986987649954863e-15,75.24364590770881,-0.9572147991516924,0.04280889665905257,0.15259542767575715
802,2.8858360865224296e-15,75.24364590770881,-0.9567143931817054,0.04278188108124614,0.15907128424846476
803,2.8736188253039916e-15,75.24364590770881,-0.9563751725805933,0.04274842597439027,0.16570424432492745
804,2.8638642377074976e-15,75.24364590770881,-0.9561731673355364,0.04271373942301062,0.17243023572311494
805,2.857811484429595e-15,75.24364590770881,-0.9560798013856564,0.04267988227108957,0.17917330438362447
806,2.855986963884862e-15,75.24364590770881,-0.9560679118231388,0.042646992932350775,0.18583362726959632
807,2.858395062816492e-15,75.24364590770881,-0.9561140736161999,0.04261485196392306,0.19228726320592343
808,2.8647807500363805e-15,75.24364590770881,-0.9561999660517816,0.04258376416234442,0.19840062569447858
809,2.8746411845139287e-15,75.24364590770881,-0.9563118124760585,0.04255449824648548,0.20404997630303645
810,2.886992724785822e-15,75.24364590770881,-0.9564370266795941,0.04252768863549739,0.20913311819139746
811,2.900243391769168e-15,75.24364590770881,-0.9565610960372232,0.0425033707833707,0.2135698034829634
812,2.912439487080444e-15,75.24364590770881,-0.9566677949096689,0.04248112064587577,0.2172990002497676
813,2.92169066467396e-15,75.24364590770881,-0.9567413689611702,0.04246074159577901,0.22028485055266248
814,2.9264483235736937e-15,75.24364590770881,-0.9567675151544485,0.04244292815897958,0.22253419889889614
815,2.9257332751929066e-15,75.24364590770881,-0.9567332137347728,0.04242939937036968,0.2241133771148367
816,2.9194610897277575e-15,75.24364590770881,-0.9566279001020297,0.04242254606309836,0.22514914890536078
817,2.9085651012239452e-15,75.24364590770881,-0.9564470231165144,0.04242483457107688,0.2258137747829889
818,2.8947111168539255e-15,75.24364590770881,-0.9561969681089284,0.042438082251383444,0.22630766125592383
819,2.8799002679031703e-15,75.24364590770881,-0.9558990441358339,0.042462736425402325,0.2268511380624709
820,2.8662155879180784e-15,75.24364590770881,-0.9555896763178464,0.042497351031308805,0.22768689835114667
821,2.8556067011434536e-15,75.24364590770881,-0.955315774432558,0.04253857788207794,0.2290870059235161
822,2.8496127944054944e-15,75.24364590770881,-0.9551278766940767,0.04258185810958131,0.23135546860946649
823,2.8491641883870508e-15,75.24364590770881,-0.9550756310854057,0.04262237954410072,0.2348173181401745
824,2.85452854119159e-15,75.24364590770881,-0.9552080352136305,0.04265577363506014,0.23978796874645517
825,2.8652255586194392e-15,75.24364590770881,-0.9555763049283681,0.042678597325300445,0.24652384953925574
826,2.8798805001851335e-15,75.24364590770881,-0.9562350395677311,0.042688627533532114,0.2551633734210629
827,2.8962764403776467e-15,75.24364590770881,-0.9572388243988318,0.0426847274588543,0.2656710081686977
828,2.9117722661005623e-15,75.24364590770881,-0.958633530275803,0.04266648460750056,0.27779704603294497
829,2.9239136496055723e-15,75.24364590770881,-0.9604435138455074,0.04263419857236619,0.29106377940636147
830,2.93091422888038e-15,75.24364590770881,-0.9626583089503779,0.042589423984699164,0.3047842724582939
831,2.9318932595718278e-15,75.24364590770881,-0.9652224991124705,0.04253568814370234,0.31811132246035395
832,2.9270023487658366e-15,75.24364590770881,-0.9680295666205192,0.042478771887424764,0.3301047274408119
833,2.9174600790839777e-15,75.24364590770881,-0.9709188123083428,0.04242621807207987,0.33980291402646506
834,2.9052976264429238e-15,75.24364590770881,-0.9736753960555257,0.042386249289810066,0.3462928243779851
835,2.8928165689754355e-15,75.24364590770881,-0.9760357021432974,0.04236648986652479,0.3487801587108312
836,2.8820811846530813e-15,75.24364590770881,-0.9777025558536143,0.042372652454445985,0.34666170045856504
837,2.8746575036920017e-15,75.24364590770881,-0.9783743225487703,0.04240720532447744,0.3395946638754282
838,2.871507776809693e-15,75.24364590770881,-0.9777873702334288,0.04246830870234755,0.3275507241357531
839,2.872882708854667e-15,75.24364590770881,-0.975765642505868,0.042549489373234536,0.3108380925425864
840,2.878254298009633e-15,75.24364590770881,-0.9722649885660308,0.042640343107311844,0.29007833444042896
841,2.8864837898935918e-15,75.24364590770881,-0.9673961338722792,0.04272834298133291,0.26613785409586405
842,2.896159338114734e-15,75.24364590770881,-0.9614163555313067,0.04280142044714636,0.24003022701994858
843,2.9058049465357784e-15,75.24364590770881,-0.9546941306079185,0.042850350613502876,0.21281517810190287
844,2.913972996842067e-15,75.24364590770881,-0.9476616921810406,0.042869988348749416,0.1855174631449834
845,2.9194241628898236e-15,75.24364590770881,-0.9407718215778238,0.04285928410905888,0.159074425217667
846,2.9213033316698073e-15,75.24364590770881,-0.9344669137815378,0.04282076947759421,0.13430515097671503
847,2.9191921855618417e-15,75.24364590770881,-0.9291547315503098,0.04276003513344475,0.11189051954779915
848,2.9131684367572017e-15,75.24364590770881,-0.9251801664751818,0.042684971321276695,0.09235959591920848
849,2.903896993025342e-15,75.24364590770881,-0.9227923990345197,0.04260438336128476,0.07608124779937711
850,2.8926601692378143e-15,75.24364590770881,-0.9221177031862146,0.04252633842906091,0.06326121810743282
851,2.881338893676637e-15,75.24364590770881,-0.9231461065824046,0.04245704999559576,0.05395002050991261
852,2.8721883465712142e-15,75.24364590770881,-0.9257311036093736,0.042400650283532584,0.04806737103213208
853,2.8671998347563624e-15,75.24364590770881,-0.9295991318557131,0.04235959700450235,0.04543789519365467
854,2.867393017586447e-15,75.24364590770881,-0.9343723935324039,0.04233525687890731,0.04582328539132282
855,2.8726088139018474e-15,75.24364590770881,-0.9396110579997795,0.04232826108549321,0.04893986020318636
856,2.8817512772090134e-15,75.24364590770881,-0.944869931556633,0.042338385747243176,0.05446205470785315
857,2.8930334582563876e-15,75.24364590770881,-0.9497546754318394,0.042364089559191354,0.06202156498448562
858,2.904199374336219e-15,75.24364590770881,-0.9539650411167366,0.04240222578620498,0.07121304593535019
859,2.912995516501157e-15,75.24364590770881,-0.9573187515346802,0.04244830363301713,0.08160827860091292
860,2.917797651221052e-15,75.24364590770881,-0.9597536865201022,0.04249721255227424,0.0927708839433922
861,2.9179416082670417e-15,75.24364590770881,-0.9613114350322687,0.04254404424764653,0.1042665811273522
862,2.913544851622465e-15,75.24364590770881,-0.9621103875660907,0.04258463258678869,0.11567417319157555
863,2.9051594911101073e-15,75.24364590770881,-0.9623158680399551,0.04261567802314043,0.1266044491969808
864,2.893709770178508e-15,75.24364590770881,-0.9621100596144101,0.042634634268002264,0.1367278967140934
865,2.8806033803046144e-15,75.24364590770881,-0.9616629348100749,0.04263966134066752,0.14580540671538544
866,2.8676146496638135e-15,75.24364590770881,-0.9611086134750928,0.042629831089870236,0.15371183827215842
867,2.8566105082819714e-15,75.24364590770881,-0.9605340640029557,0.042605498104179025,0.16044363305063797
868,2.849361504106946e-15,75.24364590770881,-0.9599836688421551,0.042568570314384886,0.16610915985813082
869,2.847296617417711e-15,75.24364590770881,-0.9594742050743889,0.042522490239681875,0.17090608772767601
870,2.8511475656576775e-15,75.24364590770881,-0.9590095254802199,0.04247200458509241,0.17508971955319116
871,2.8607593395775883e-15,75.24364590770881,-0.9585893240772381,0.04242291581464306,0.1789354607221077
872,2.8751572693754187e-15,75.24364590770881,-0.9582131687141782,0.04238173148745925,0.18270012894821802
873,2.8927377945636248e-15,75.24364590770881,-0.957881019387175,0.04235489740420143,0.18658812574676667
874,2.911490694867555e-15,75.24364590770881,-0.9575899250712354,0.0423476315063548,0.19072887799699298
875,2.9291503992037504e-15,75.24364590770881,-0.9573292766947061,0.042362896306949616,0.19516997973062802
876,2.943341963749171e-15,75.24364590770881,-0.957079390255631,0.04240098166599203,0.19988496262179284
877,2.9519599683896027e-15,75.24364590770881,-0.9568157288034146,0.042459531736343904,0.20479085451481632
878,2.9536232368764783e-15,75.24364590770881,-0.9565171295560094,0.042533531422906105,0.20977196629373482
879,2.947861004058728e-15,75.24364590770881,-0.9561738261806171,0.04261530382169941,0.21470627450225924
880,2.9351896507947067e-15,75.24364590770881,-0.9557902506799792,0.042695189077295505,0.21948677110081335
881,2.917260584414804e-15,75.24364590770881,-0.9553812040821422,0.04276322652551799,0.22403013812855366
882,2.8967759271160323e-15,75.24364590770881,-0.9549662876644284,0.04281126625592066,0.2282730031728721
883,2.8770046500184467e-15,75.24364590770881,-0.9545677190181826,0.04283464329371935,0.23216527749978552
884,2.861118647157672e-15,75.24364590770881,-0.9542093407607711,0.0428328641481514,0.23567074176389896
885,2.8515315460382574e-15,75.24364590770881,-0.9539115190968382,0.04280918131471873,0.23877488747400574
886,2.8494243801199456e-15,75.24364590770881,-0.9536833663429013,0.04276942856852432,0.2414907946044957
887,2.8546816774316327e-15,75.24364590770881,-0.9535198774891425,0.04272066858175139,0.2438568580613662
888,2.866078827379585e-15,75.24364590770881,-0.953408023529748,0.042669855408642,0.24592941125052836
889,2.881431402749515e-15,75.24364590770881,-0.953336979811879,0.04262261672748495,0.2477765499227775
890,2.8979219025509474e-15,75.24364590770881,-0.9533043771664204,0.042582560393735355,0.24947666356863835
891,2.9128221372828497e-15,75.24364590770881,-0.9533164668975493,0.04255133067323838,0.2511225461937362
892,2.92419434402063e-15,75.24364590770881,-0.953387176563107,0.0425290283644574,0.25283041828795766
893,2.9310870130733976e-15,75.24364590770881,-0.9535407666431317,0.0425145535482471,0.25475084927944947
894,2.933277517931708e-15,75.24364590770881,-0.9538164092847049,0.04250590227861174,0.2570754509269479
895,2.9309498980142305e-15,75.24364590770881,-0.9542686489805652,0.04250060031421088,0.26003170522752234
896,2.9246010141927816e-15,75.24364590770881,-0.9549611381211027,0.04249622623177918,0.26386116647544494
897,2.9151007589022703e-15,75.24364590770881,-0.9559567212620631,0.042490843629624235,0.26878244920402633
898,2.903641225349995e-15,75.24364590770881,-0.9573068005061062,0.04248322022891941,0.2749451289034193
899,2.891619955817856e-15,75.24364590770881,-0.959040316359325,0.04247271983393873,0.28238166920770263
900,2.8806306424446215e-15,75.24364590770881,-0.9611531922037553,0.04245893271617439,0.29096398591445505
901,2.8723189575510313e-15,75.24364590770881,-0.9636002034931143,0.04244164711753929,0.300371309271898
902,2.867936368383359e-15,75.24364590770881,-0.9662905400439084,0.04242162544598516,0.31007539013752605
903,2.867978005331956e-15,75.24364590770881,-0.9690871832911473,0.04240156565562172,0.3193476359535752
904,2.8721632599650053e-15,75.24364590770881,-0.9718087057121562,0.04238622992828241,0.3272938211857755
905,2.879569241660102e-15,75.24364590770881,-0.9742316565980093,0.042381548494393725,0.3329235666470889
906,2.88878113780741e-15,75.24364590770881,-0.9760955425018134,0.04239327701791406,0.33525573861186403
907,2.898139654164823e-15,75.24364590770881,-0.9771174593314174,0.04242573029831251,0.3334480058423944
908,2.9061132244455795e-15,75.24364590770881,-0.9770228612481454,0.042480580421776125,0.32692767590374633
909,2.911636780545807e-15,75.24364590770881,-0.9755919085625622,0.04255550469607588,0.31549418530350765
910,2.9142347304722847e-15,75.24364590770881,-0.9727111221619974,0.04264320551103351,0.29936249567044504
911,2.913880168184734e-15,75.24364590770881,-0.9684119142868922,0.04273207407857783,0.2791300742472318
912,2.9107110507321865e-15,75.24364590770881,-0.9628782622228517,0.04280887356080934,0.25567959752752717
913,2.9048888071577097e-15,75.24364590770881,-0.9564211787427425,0.04286210909474062,0.2300552339538035
914,2.896775378457966e-15,75.24364590770881,-0.949437642010007,0.042884504834787084,0.20335113739054264
915,2.887241827924248e-15,75.24364590770881,-0.9423756553919321,0.042874042634532636,0.1766299889743379
916,2.877808998284806e-15,75.24364590770881,-0.9357106975734008,0.04283372745260327,0.15086775207825348
917,2.8704630592084214e-15,75.24364590770881,-0.9299196878639843,0.042770408534325004,0.1269118749725149
918,2.867142767370725e-15,75.24364590770881,-0.9254365923849831,0.04269308271454512,0.1054445442857859
919,2.869125064015683e-15,75.24364590770881,-0.9225927657302835,0.04261109885328949,0.08695438642068672
920,2.8765894157622433e-15,75.24364590770881,-0.9215654700040234,0.042532585547480815,0.07172829964074186
921,2.8884329976493895e-15,75.24364590770881,-0.9223557596933474,0.04246345119630655,0.05987074128713006
922,2.9024433532375854e-15,75.24364590770881,-0.9247965640674316,0.04240721181886963,0.05134460594689247
923,2.9159506271811616e-15,75.24364590770881,-0.9285794732190996,0.04236548394641437,0.04601748708320233
924,2.926607796832672e-15,75.24364590770881,-0.9332946715341592,0.042338692329234325,0.043696851422165714
925,2.932796474418161e-15,75.24364590770881,-0.9384851794461252,0.04232663709422456,0.04414772732950396
926,2.9337010577899996e-15,75.24364590770881,-0.943708118592577,0.04232866686122732,0.047099619191797726
927,2.929317789734486e-15,75.24364590770881,-0.948585534837716,0.042343405051525104,0.05225383600224071
928,2.9203853447198867e-15,75.24364590770881,-0.9528340237321732,0.04236852164994546,0.05929538433524733
929,2.908215812814447e-15,75.24364590770881,-0.9562759159584896,0.04240105370641166,0.0679047259816527
930,2.8945557347304705e-15,75.24364590770881,-0.9588374920230562,0.042437975194262886,0.07776342550899717
931,2.881483853117346e-15,75.24364590770881,-0.9605357027367328,0.042476466935485555,0.0885536579074112
932,2.8711754094468557e-15,75.24364590770881,-0.9614557563202796,0.042513956297842256,0.09995784593529301
933,2.8654351050780704e-15,75.24364590770881,-0.961726005846484,0.04254829023064291,0.11166458241388275
934,2.8652077574660595e-15,75.24364590770881,-0.9614956596166211,0.04257802990204071,0.12337958316208247
935,2.870386612742551e-15,75.24364590770881,-0.9609162081071051,0.042602533508013095,0.13483440400930435
936,2.8799179513831114e-15,75.24364590770881,-0.960125945693715,0.04262166647959486,0.14578919026146814
937,2.892001064135988e-15,75.24364590770881,-0.9592385174133329,0.0426353628762353,0.15603340717663794
938,2.904394153186126e-15,75.24364590770881,-0.958337651705727,0.042643355044486554,0.16539059139609216
939,2.914942753669881e-15,75.24364590770881,-0.9574791824091347,0.042645102854568434,0.17372911019820028
940,2.9221740252919377e-15,75.24364590770881,-0.9566975603509298,0.04263979183448526,0.18097510634661504
941,2.9255543539575996e-15,75.24364590770881,-0.9560121407282987,0.04262648084773042,0.18712025526895523
942,2.925252167279493e-15,75.24364590770881,-0.955432253587904,0.042604495486208406,0.19221899614998414
943,2.921774734601946e-15,75.24364590770881,-0.9549632861940974,0.04257388215395781,0.19637603255595434
944,2.9158382381934994e-15,75.24364590770881,-0.9546131176141135,0.042535748140920294,0.19972949478900218
945,2.908304295124488e-15,75.24364590770881,-0.9543943504584553,0.04249247058638594,0.2024350856733604
946,2.900014586375034e-15,75.24364590770881,-0.9543196182177908,0.04244766145273469,0.20465327814308407
947,2.891744373589333e-15,75.24364590770881,-0.9543927651722804,0.04240575049549467,0.20653892708557342
948,2.8843531408232058e-15,75.24364590770881,-0.9546016765736017,0.042371363281962775,0.20823321397396993
949,2.8788921781309047e-15,75.24364590770881,-0.9549164971858242,0.04234884006078061,0.2098608415157749
950,2.876481305805677e-15,75.24364590770881,-0.9552925115980524,0.04234192881928357,0.21153511063167213
951,2.8779727646797375e-15,75.24364590770881,-0.9556748372932268,0.04235345416444948,0.21336588337626064
952,2.883587929116631e-15,75.24364590770881,-0.956003796008204,0.04238488564193377,0.21545801841335346
953,2.8927081357496206e-15,75.24364590770881,-0.9562215301566825,0.042435770101197146,0.21789198507243374
954,2.9038657423354266e-15,75.24364590770881,-0.9562789471217548,0.042503030023611575,0.2206938799548729
955,2.914977154607039e-15,75.24364590770881,-0.9561404712061449,0.04258054424525678,0.22381527046880817
956,2.923848987486358e-15,75.24364590770881,-0.9557863856493238,0.04265971838982945,0.2271386016734579
957,2.9287581873293554e-15,75.24364590770881,-0.95521594660981,0.04273112585719018,0.23050531972224134
958,2.9288422272396046e-15,75.24364590770881,-0.9544531280958288,0.04278644950210701,0.23375368620478357
959,2.9242510626833162e-15,75.24364590770881,-0.9535519653739046,0.04282010965076737,0.2367585874456038
960,2.9160058980913283e-15,75.24364590770881,-0.9525967701624022,0.042830372903257086,0.23947064545746544
961,2.9055340475053538e-15,75.24364590770881,-0.9516949333050894,0.04281942481086782,0.24194721819321502
962,2.8942464062807747e-15,75.24364590770881,-0.9509634564378217,0.04279204096878835,0.24436171984630972
963,2.883496237268062e-15,75.24364590770881,-0.950514507100239,0.04275364472958575,0.24698147193024703
964,2.874680504883267e-15,75.24364590770881,-0.9504461309248823,0.042708970727879506,0.2501191024759892
965,2.8691607440870143e-15,75.24364590770881,-0.9508384563295544,0.04266163275090249,0.2540761331702605
966,2.868085082955817e-15,75.24364590770881,-0.951751381930815,0.04261414308506251,0.25909754435404764
967,2.872178097260849e-15,75.24364590770881,-0.9532219877006681,0.04256803194183882,0.26534532614767997
968,2.88137982970648e-15,75.24364590770881,-0.9552619104405434,0.04252400802600475,0.2728868657400358
969,2.8945195834553366e-15,75.24364590770881,-0.9578534618383755,0.042482277449336775,0.2816852904507018
970,2.9093837381679917e-15,75.24364590770881,-0.9609428447791186,0.042443092016941186,0.2915790907868771
971,2.9231928830038257e-15,75.24364590770881,-0.9644310341582716,0.0424073445181538,0.3022498711408502
972,2.93327501923053e-15,75.24364590770881,-0.9681655590267254,0.04237703132185367,0.31318877331157674
973,2.9376723874573824e-15,75.24364590770881,-0.9719371137121403,0.04235562397594518,0.3236765177040916
974,2.935478348813355e-15,75.24364590770881,-0.9754826767797877,0.04234824564134895,0.33279515942835436
975,2.9270197722454808e-15,75.24364590770881,-0.9784952983847399,0.042361148101482955,0.3394880399931423
976,2.9139376381542168e-15,75.24364590770881,-0.9806426118107402,0.04240017032908195,0.34266839113416736
977,2.8988136093775852e-15,75.24364590770881,-0.9815973306831471,0.042468652732392795,0.34135765508918325
978,2.884359524680161e-15,75.24364590770881,-0.9810798178370037,0.042565639241827435,0.3348266480474703
979,2.872772495256322e-15,75.24364590770881,-0.9789056947865495,0.04268494469699227,0.3227120118020141
980,2.865493416109598e-15,75.24364590770881,-0.9750247001483416,0.042815503787512414,0.3050851773017216
981,2.8631567076199676e-15,75.24364590770881,-0.9695383173983535,0.04294311837987257,0.28246677080590277
982,2.8656739089676863e-15,75.24364590770881,-0.9626934006905788,0.04305304397337168,0.25579470263475107
983,2.8724263900669963e-15,75.24364590770881,-0.9548593042918214,0.04313259389865176,0.22635322726395896
984,2.8824078629384637e-15,75.24364590770881,-0.946500983965001,0.04317299909231353,0.19566141635042852
985,2.8942642627977455e-15,75.24364590770881,-0.9381547234188,0.04316972260071754,0.16532255067644094
986,2.9063307699804456e-15,75.24364590770881,-0.9303981788660224,0.04312141142727864,0.1368518660029658
987,2.9168192949417616e-15,75.24364590770881,-0.9237989149299008,0.04302926831986645,0.11151317125389247
988,2.92423051941367e-15,75.24364590770881,-0.9188393897700468,0.04289808571465896,0.09019638448625646
989,2.927777246766594e-15,75.24364590770881,-0.9158422812213738,0.04273775399300708,0.07335997780461129
990,2.9274993607892223e-15,75.24364590770881,-0.9149297648868955,0.04256309003755224,0.06104665214791449
991,2.9240804802247168e-15,75.24364590770881,-0.9160296716101445,0.04239114259142696,0.05296147245625015
992,2.9185883477970017e-15,75.24364590770881,-0.9189113057310949,0.042237003967529024,0.04858786084071429
993,2.912183647085608e-15,75.24364590770881,-0.9232240565469092,0.04211046587470469,0.04731207640369205
994,2.905796483750216e-15,75.24364590770881,-0.9285294461471577,0.04201538021048772,0.04852805476930288
995,2.8999803842777897e-15,75.24364590770881,-0.9343382227905493,0.041951224382671654,0.05170155132367676
996,2.8950932268631412e-15,75.24364590770881,-0.9401621565249089,0.04191499996571348,0.05638986311951086
997,2.8916062599812937e-15,75.24364590770881,-0.9455718617217194,0.04190260295186453,0.062234003263337806
998,2.890241689416129e-15,75.24364590770881,-0.9502418794315625,0.041909923903860204,0.06894392424799446
999,2.891793664245645e-15,75.24364590770881,-0.9539704733807209,0.0419338125392451,0.07628366690020717
1000,2.8966560558843812e-15,75.24364590770881,-0.9566749307673091,0.04197267123375501,0.08405550875480497
1001,2.9043592290693755e-15,75.24364590770881,-0.9583730884359846,0.04202642079732727,0.0920868382808199
1002,2.9135176418872697e-15,75.24364590770881,-0.9591635878717714,0.04209568219327728,0.10022612375539185
1003,2.922167605541007e-15,75.24364590770881,-0.9592100167734334,0.04218031788222204,0.10834893126510543
1004,2.9281973200414146e-15,75.24364590770881,-0.9587237253178474,0.04227796449812632,0.11636755179659349
1005,2.9298228404748057e-15,75.24364590770881,-0.9579390628994751,0.042383408280872815,0.12423615494809712
1006,2.9261056441677306e-15,75.24364590770881,-0.957083474173939,0.04248930516232317,0.13194856018053214
1007,2.9173026697318845e-15,75.24364590770881,-0.9563512901976471,0.04258788978014804,0.13953020110822098
1008,2.9048814851188077e-15,75.24364590770881,-0.9558888370156826,0.04267264177478351,0.14702521767978996
1009,2.891123963499696e-15,75.24364590770881,-0.9557917222629121,0.04273925145656553,0.15447860732245072
1010,2.8784641239837798e-15,75.24364590770881,-0.9561070017025718,0.042785980330768095,0.16191693130812532
1011,2.8689777928102077e-15,75.24364590770881,-0.9568314638814326,0.04281350363748828,0.16933493077404152
1012,2.8641463810776555e-15,75.24364590770881,-0.9579058979508689,0.0428241969821544,0.1766922818737763
1013,2.864684518014763e-15,75.24364590770881,-0.9592132372220802,0.04282120378078919,0.18391792768829662
1014,2.8704929750089328e-15,75.24364590770881,-0.9605855498705484,0.042807749961874614,0.19091667330565326
1015,2.8808973184983327e-15,75.24364590770881,-0.961819181955001,0.042786833073829654,0.19757405538955652
1016,2.8948795285518666e-15,75.24364590770881,-0.9626985132495557,0.04276108134314412,0.20375830860798924
1017,2.91094665589792e-15,75.24364590770881,-0.963029196537285,0.04273256878696059,0.20932058704604461
1018,2.9269123688745334e-15,75.24364590770881,-0.9626750232062247,0.04270268079015201,0.21409431013249391
1019,2.9401316244308045e-15,75.24364590770881,-0.9615858893287385,0.042672214549007256,0.2178943485945269
1020,2.948198120928523e-15,75.24364590770881,-0.9598067857527786,0.04264168261184086,0.22052097775547763
1021,2.949619834534405e-15,75.24364590770881,-0.9574683590313368,0.042611742296424546,0.22177727653549456
1022,2.944096919415611e-15,75.24364590770881,-0.9547670908177794,0.04258364600340009,0.2215034595468242
1023,2.9324674184534427e-15,75.24364590770881,-0.9519412102117583,0.04255941401364804,0.21962113936256053
1024,2.9165532957538775e-15,75.24364590770881,-0.949243523281847,0.0425414296811879,0.2161752379018958
1025,2.8988995112729e-15,75.24364590770881,-0.9469115095682014,0.04253158714460183,0.21136197771546456
1026,2.8822760209089917e-15,75.24364590770881,-0.9451379113975952,0.04253058377815,0.2055331620028246
1027,2.8690533452149604e-15,75.24364590770881,-0.9440473973163432,0.04253772014422554,0.19917005266390642
1028,2.8607514602903398e-15,75.24364590770881,-0.9436845829947788,0.04255104011566208,0.19282709052624655
1029,2.8579180636477343e-15,75.24364590770881,-0.9440159881877829,0.042567740889239404,0.18705521362074237
1030,2.8602750419959176e-15,75.24364590770881,-0.9449436294110103,0.042584895528311385,0.18232209628306253
1031,2.866948589737715e-15,75.24364590770881,-0.946324019884195,0.04260002114796866,0.17894840999350428
1032,2.8766299400077888e-15,75.24364590770881,-0.9479878835044983,0.04261101872016291,0.17707431195482912
1033,2.8877988962043657e-15,75.24364590770881,-0.9497603100871176,0.04261584964344228,0.17665988869198332
1034,2.8991550789355975e-15,75.24364590770881,-0.951480939451264,0.04261256402996143,0.17751187110849603
1035,2.9099140336447015e-15,75.24364590770881,-0.9530195793578502,0.04259974140812385,0.17932461490931983
1036,2.9195847192897814e-15,75.24364590770881,-0.9542835774216955,0.04257712679318204,0.18172713727622125
1037,2.9275102660306673e-15,75.24364590770881,-0.9552200295759307,0.0425461724130033,0.18433288945551746
1038,2.9327573326288064e-15,75.24364590770881,-0.9558168519807563,0.04250997979429322,0.18679059003413256
1039,2.9344473120085833e-15,75.24364590770881,-0.9560999442648648,0.0424724427400072,0.18883174076953413
1040,2.9321511902955246e-15,75.24364590770881,-0.956122490923054,0.042437183668840237,0.1903060226952462
1041,2.9260867634095195e-15,75.24364590770881,-0.9559500971050585,0.042407026778876734,0.19119657432912235
1042,2.9171487129321636e-15,75.24364590770881,-0.9556492970084508,0.04238413151173086,0.191613127713052
1043,2.906833272547575e-15,75.24364590770881,-0.9552815081756513,0.04237042428688662,0.19176539085092129
1044,2.897014621648991e-15,75.24364590770881,-0.9548984318330742,0.0423678590247071,0.1919213112718653
1045,2.889566350473979e-15,75.24364590770881,-0.954536268055646,0.042378165874070985,0.19235787115924993
1046,2.8859784664683114e-15,75.24364590770881,-0.9542116493815994,0.042402265843036434,0.19331340587370213
1047,2.8871148900223528e-15,75.24364590770881,-0.9539234784654601,0.04243988824235959,0.19494760488181004
1048,2.8930726826140916e-15,75.24364590770881,-0.9536608035167273,0.042489471948610705,0.19731284762317686
1049,2.903036049638904e-15,75.24364590770881,-0.9534123401014782,0.042548023738356235,0.2003424565928155
1050,2.9152254150289996e-15,75.24364590770881,-0.9531717586714157,0.04261100759970503,0.20386240054483573
1051,2.9272270210807455e-15,75.24364590770881,-0.9529366275131819,0.042672683617515715,0.2076258948910553
1052,2.9366312149208097e-15,75.24364590770881,-0.9527054555225054,0.042726887861341135,0.21136022252153858
1053,2.94148734477816e-15,75.24364590770881,-0.9524781766272427,0.04276777177957038,0.2148124653557205
1054,2.940496574937692e-15,75.24364590770881,-0.9522591698830519,0.04279039927950072,0.21778474090608374
1055,2.9333069493709482e-15,75.24364590770881,-0.9520580196226286,0.04279163137210741,0.22015273141313532
1056,2.920838206244425e-15,75.24364590770881,-0.9518863881021463,0.04277128810270577,0.22186548394656694
1057,2.9052473864296223e-15,75.24364590770881,-0.9517537956675167,0.042732874060114924,0.2229319824004122
1058,2.8894877844602743e-15,75.24364590770881,-0.9516653311250345,0.042683183605216723,0.22340348298246002
1059,2.8766344668929013e-15,75.24364590770881,-0.9516212454726389,0.042630619341187906,0.2233569097229564
1060,2.869165873106503e-15,75.24364590770881,-0.9516164872193625,0.04258284012554064,0.2228809462490984
1061,2.868444749907932e-15,75.24364590770881,-0.9516396821335541,0.042544929950654405,0.22206580392905223
1062,2.8745130061777028e-15,75.24364590770881,-0.9516737637898991,0.04251883552203264,0.22099610142551981
1063,2.886134355050395e-15,75.24364590770881,-0.9517007937473322,0.04250392118255639,0.21974446250320778
1064,2.9010488852402534e-15,75.24364590770881,-0.9517092492449958,0.04249810803356014,0.2183658709034146
1065,2.9164387638412276e-15,75.24364590770881,-0.9516979774822399,0.0424990007930504,0.21689717294898198
1066,2.929514517513334e-15,75.24364590770881,-0.9516743316170326,0.0425045011547133,0.21536459166562555
1067,2.9380527408883796e-15,75.24364590770881,-0.9516499771117064,0.04251288079637195,0.21379518542246378
1068,2.9407055771561888e-15,75.24364590770881,-0.9516375729821359,0.04252267915925561,0.2122250454463434
1069,2.9370750397511417e-15,75.24364590770881,-0.9516481671247038,0.04253262919866106,0.21070067459538364
1070,2.9277350331744795e-15,75.24364590770881,-0.9516887259029673,0.04254162242704815,0.20927451241471864
1071,2.914185341730741e-15,75.24364590770881,-0.9517605378648448,0.0425488434592438,0.20799777762367497
1072,2.8985485709090277e-15,75.24364590770881,-0.951859737150892,0.04255402536586101,0.20691477006317535
1073,2.883149079914713e-15,75.24364590770881,-0.9519795432107172,0.04255741365256119,0.20606125376349005
1074,2.8702586236458982e-15,75.24364590770881,-0.9521114920726264,0.042559323474036,0.20546552030475637
1075,2.8618644761754634e-15,75.24364590770881,-0.9522444956491505,0.042559704878124674,0.20514858903193806
1076,2.859246284610081e-15,75.24364590770881,-0.9523645553569284,0.042558013463740725,0.20512174471408254
1077,2.862683006865605e-15,75.24364590770881,-0.9524577940773012,0.042553382196419326,0.20538288300455754
1078,2.8715792802830955e-15,75.24364590770881,-0.9525154371351287,0.04254513981482723,0.20591451894108806
1079,2.8847233882630196e-15,75.24364590770881,-0.9525371660827565,0.04253357393204562,0.20668460060422048
1080,2.9004496192991445e-15,75.24364590770881,-0.952530610287446,0.042520384861340625,0.20765000291076557
1081,2.9168387407692184e-15,75.24364590770881,-0.9525073547527166,0.042508325323205906,0.20876373229754636
1082,2.9319782498098217e-15,75.24364590770881,-0.9524776700406845,0.042500210840646695,0.20998595502069795
1083,2.944202572056456e-15,75.24364590770881,-0.9524463280152912,0.04249800904205443,0.21129453634765574
1084,2.9522822885790867e-15,75.24364590770881,-0.9524109397827029,0.04250247977250674,0.21268928624211397
1085,2.9554240095988996e-15,75.24364590770881,-0.9523634218234815,0.04251316815725345,0.2141885722512345
1086,2.9531379616359154e-15,75.24364590770881,-0.9522939852803473,0.042528379954748396,0.21582107118752134
1087,2.9453500458805893e-15,75.24364590770881,-0.9521953506852306,0.04254524450336837,0.217614671894303
1088,2.932701610016168e-15,75.24364590770881,-0.952064884718322,0.042560141529499995,0.2195831453836425
1089,2.9165784413981953e-15,75.24364590770881,-0.9519046427576705,0.042569496973695775,0.22171204311130358
1090,2.898914747529931e-15,75.24364590770881,-0.9517210032340929,0.04257085093204311,0.2239462750828464
1091,2.8820568985557565e-15,75.24364590770881,-0.9515243488192757,0.04256382895386986,0.22618451993081026
1092,2.868529711446595e-15,75.24364590770881,-0.9513271474069064,0.04255027235210894,0.2282898451096133
1093,2.860558073079855e-15,75.24364590770881,-0.9511394871985939,0.04253331715123507,0.23012237463069896
1094,2.8595661652493423e-15,75.24364590770881,-0.9509640889417081,0.042516230712340744,0.23158554508209173
1095,2.865824072884928e-15,75.24364590770881,-0.9507944475955992,0.042501846955786404,0.23266582763450394
1096,2.878290592183774e-15,75.24364590770881,-0.9506185044524295,0.04249258268306126,0.23344915083739143
1097,2.894801461997256e-15,75.24364590770881,-0.9504270279275168,0.04249054079540277,0.23411170081159752
1098,2.9126086104619842e-15,75.24364590770881,-0.9502230557941569,0.04249733133907355,0.23489577756469132
1099,2.9290113651279513e-15,75.24364590770881,-0.950028977566512,0.042513521856379376,0.23608491853076025
1100,2.941840192147656e-15,75.24364590770881,-0.9498899176090729,0.04253809317123764,0.23798622269767877
1101,2.949642133542652e-15,75.24364590770881,-0.9498730664246056,0.04256840574038527,0.24091691693814932
1102,2.9515953421162607e-15,75.24364590770881,-0.9500633710171849,0.04260051335881395,0.24518474778844107
1103,2.947501050761298e-15,75.24364590770881,-0.9505571070641684,0.04262938387445613,0.2510539061982351
1104,2.938020657002083e-15,75.24364590770881,-0.9514539212115846,0.04264921340532181,0.25869848133381473
1105,2.924799040642489e-15,75.24364590770881,-0.9528456260069463,0.04265417328828664,0.2681554547894782
1106,2.910226061846183e-15,75.24364590770881,-0.9548004475819087,0.04263948537665228,0.27929016616154867
1107,2.8969531604607193e-15,75.24364590770881,-0.9573454130322568,0.04260270902216598,0.2917778089116438
1108,2.8872566268761614e-15,75.24364590770881,-0.96045224586757,0.04254502808881513,0.3050955796484011
1109,2.8824858552592323e-15,75.24364590770881,-0.9640292129439137,0.042471840055060814,0.31852268644962156
1110,2.8828961476829107e-15,75.24364590770881,-0.9679164312516058,0.04239223664429887,0.3311552839280757
1111,2.8877082536247216e-15,75.24364590770881,-0.9718820068539439,0.04231784441198791,0.3419474104197356
1112,2.8952619134767744e-15,75.24364590770881,-0.9756208679470694,0.042261536937290796,0.3497831616387804
1113,2.9035057456617298e-15,75.24364590770881,-0.9787620500206159,0.04223587021446061,0.3535770493141985
1114,2.9106858824989314e-15,75.24364590770881,-0.9808911768395276,0.04225093526717321,0.35239342747655855
1115,2.9157180853139784e-15,75.24364590770881,-0.981593150866361,0.04231186772449931,0.34556923132493605
1116,2.9181628902480778e-15,75.24364590770881,-0.9805146366302125,0.04241687660886163,0.33281720277227866
1117,2.9180906033322356e-15,75.24364590770881,-0.9774356201359675,0.04255685665297576,0.31428481627842814
1118,2.9159472845072614e-15,75.24364590770881,-0.9723283796485898,0.042717010485918236,0.2905522606643778
1119,2.9123385670722447e-15,75.24364590770881,-0.965382030384345,0.04287969383474289,0.2625712273778259
1120,2.907749006747895e-15,75.24364590770881,-0.956986494095222,0.04302721526994059,0.23156595690154075
1121,2.9024553183193357e-15,75.24364590770881,-0.9476881611912908,0.04314403496092106,0.19892499860373083
1122,2.8968242218063444e-15,75.24364590770881,-0.9381346278681173,0.04321845468263966,0.16610107519383258
1123,2.8917058779605277e-15,75.24364590770881,-0.9290183576201115,0.04324361787590754,0.13451786976088587
1124,2.8884238955972424e-15,75.24364590770881,-0.9210197067171957,0.04321739226028678,0.10547513187228623
1125,2.8883333812588886e-15,75.24364590770881,-0.9147455449234234,0.04314139406634792,0.08005440791223668
1126,2.8923552284086356e-15,75.24364590770881,-0.9106626659833584,0.04302012521910578,0.05904190289886405
1127,2.9006350593265797e-15,75.24364590770881,-0.9090334238890939,0.04286084531091168,0.04288576606426528
1128,2.9122287091598468e-15,75.24364590770881,-0.909870664012939,0.04267391904083519,0.03169613515244683
1129,2.9251130315421313e-15,75.24364590770881,-0.9129332261125415,0.04247288694058878,0.02528657204480875
1130,2.9368166760766008e-15,75.24364590770881,-0.9177716110518327,0.042273522441514604,0.023244246869674006
1131,2.945204988851567e-15,75.24364590770881,-0.9238099604360689,0.04209171461996468,0.025007790048381155
1132,2.9488843192369766e-15,75.24364590770881,-0.9304368281401214,0.041941059683628545,0.029936184386587912
1133,2.947324580212657e-15,75.24364590770881,-0.9370822554984413,0.04183142407343895,0.03736433635209172
1134,2.9408475724766743e-15,75.24364590770881,-0.9432713919715326,0.041768777689841705,0.046647571044192225
1135,2.930394670495703e-15,75.24364590770881,-0.9486533326415089,0.04175560822701891,0.05719667594108238
1136,2.917159466862312e-15,75.24364590770881,-0.9530078291438734,0.04179126943779511,0.06850229176478655
1137,2.902382576295395e-15,75.24364590770881,-0.9562373852391653,0.041871927206969674,0.08014572711485583
1138,2.8875038899169414e-15,75.24364590770881,-0.9583530765216661,0.04199001287583937,0.09179697689986462
1139,2.874430734956387e-15,75.24364590770881,-0.9594558467530497,0.042133854402674205,0.1032073622654511
1140,2.865371488909071e-15,75.24364590770881,-0.9597113216218309,0.04228868853040532,0.11420372844369978
1141,2.8621517841644853e-15,75.24364590770881,-0.9593195920580536,0.04243927760170372,0.12468450416878647
1142,2.8656050051448587e-15,75.24364590770881,-0.9584853221551707,0.04257287082573733,0.13461529626690727
1143,2.8754579902515432e-15,75.24364590770881,-0.957395112451738,0.042681099365477516,0.1440228852632098
1144,2.890504354260613e-15,75.24364590770881,-0.9562066069566912,0.04276026246017157,0.15298542716123284
1145,2.90874608092276e-15,75.24364590770881,-0.955045977252069,0.04281034514624144,0.161614377504911
1146,2.9275180858563797e-15,75.24364590770881,-0.9540062626680905,0.042833770901035594,0.17002510525798023
1147,2.9438291341325884e-15,75.24364590770881,-0.953145450919288,0.042834665331966434,0.17830106734322843
1148,2.9549706636067035e-15,75.24364590770881,-0.9524894353506624,0.04281833099989572,0.18646476181144822
