,time,sample_rate,Red,Green,Blue
0,0.9009095512493535,71.1960896928673,10.465724861448384,0.07680191585319622,4.100591606867361
1,0.9009078110575915,71.1960896928673,10.50584751945832,0.07671848290471715,4.079367704455877
2,0.9009060941961443,71.1960896928673,10.54219809869907,0.0766406692017504,4.056996202597799
3,0.9009044024806824,71.1960896928673,10.572107268672315,0.07657522559967031,4.032489225223591
4,0.9009027353851763,71.1960896928673,10.593671389355508,0.07652783199898991,4.005059554899199
5,0.9009010905375351,71.1960896928673,10.605958783884923,0.07650269148462828,3.9742238286002562
6,0.900899464335538,71.1960896928673,10.608959453663834,0.07650102917563367,3.9398698782215673
7,0.9008978525637571,71.1960896928673,10.603340089090414,0.07651898428080933,3.9022874116859247
8,0.9008962509304165,71.1960896928673,10.590251690696334,0.07654688788528129,3.862183537330894
9,0.9008946554803312,71.1960896928673,10.571349950905887,0.07657187188128853,3.8206842858550143
10,0.9008930628691184,71.1960896928673,10.54890866902364,0.07658322292358566,3.7792819827793926
11,0.9008914705052046,71.1960896928673,10.52575146208971,0.07657698278201595,3.739683514567315
12,0.9008898765797865,71.1960896928673,10.50486611824139,0.07655669535980555,3.7035652412623383
13,0.9008882800119083,71.1960896928673,10.488813492048164,0.07653052351301842,3.6722995926975828
14,0.9008866803375604,71.1960896928673,10.479156403884023,0.07650714329762658,3.646734478306083
15,0.9008850775696392,71.1960896928673,10.476100909703598,0.07649231362272624,3.627082310771533
16,0.9008834720511637,71.1960896928673,10.478452718573584,0.07648697556814824,3.6129407057937386
17,0.9008818643185249,71.1960896928673,10.483884519654172,0.07648722819343279,3.60343621904604
18,0.9008802549857445,71.1960896928673,10.489400009470558,0.07648566167004843,3.597457129490165
19,0.9008786446554076,71.1960896928673,10.491839837681008,0.07647308817187587,3.5939272672299376
20,0.9008770338575525,71.1960896928673,10.488354582044904,0.07644061057714753,3.5920772683069626
21,0.9008754230145534,71.1960896928673,10.476858103486697,0.07638236673277318,3.5916802135111587
22,0.9008738124279176,71.1960896928673,10.456448723672676,0.07629822538852822,3.593216819209222
23,0.9008722022818556,71.1960896928673,10.427710580104037,0.07619506289711411,3.5979291996860385
24,0.9008705926582486,71.1960896928673,10.392816466087233,0.07608614488330388,3.6077351888061324
25,0.9008689835580492,71.1960896928673,10.35544843865772,0.07598941958487995,3.625007862006705
26,0.9008673749249385,71.1960896928673,10.32058807099939,0.0759256158298122,3.652249529070786
27,0.9008657666680747,71.1960896928673,10.29412588817013,0.0759160710922695,3.69169099065212
28,0.9008641586817924,71.1960896928673,10.282143399648016,0.0759796102288433,3.744846622771948
29,0.9008625508610743,71.1960896928673,10.289814167071263,0.07612831568372198,3.8120759834810585
30,0.9008609431124076,71.1960896928673,10.320127045461366,0.07636306895877659,3.8922327008900486
31,0.9008593353602399,71.1960896928673,10.372827458311088,0.07666991448993771,3.982494235953262
32,0.9008577275496505,71.1960896928673,10.4439675216711,0.0770185629714497,4.078449665414107
33,0.9008561196460696,71.1960896928673,10.526330280998131,0.07736572909731618,4.174479192469167
34,0.9008545116329428,71.1960896928673,10.6107469553212,0.07766461802892874,4.264388506048021
35,0.9008529035081935,71.1960896928673,10.687937695977837,0.0778769026204156,4.342177946222006
36,0.9008512952802057,71.1960896928673,10.750229921319972,0.0779812074481276,4.4027742654763165
37,0.9008496869638934,71.1960896928673,10.792621974624327,0.07797507132769767,4.442572725981501
38,0.9008480785772418,71.1960896928673,10.813079260455737,0.07787182065140227,4.4597206310322
39,0.9008464701385455,71.1960896928673,10.812281509439785,0.07769559808797034,4.454154243190924
40,0.9008448616644293,71.1960896928673,10.793032215182858,0.07747607083893927,4.427431500416167
41,0.9008432531686286,71.1960896928673,10.759429022128137,0.07724260860520589,4.382411140298897
42,0.9008416446614322,71.1960896928673,10.715971710351349,0.0770187312461938,4.322851128871778
43,0.9008400361496531,71.1960896928673,10.666907863702164,0.07681897793414039,4.253014628044475
44,0.9008384276369716,71.1960896928673,10.616007565121825,0.07664950609863716,4.1773432971630955
45,0.9008368191245093,71.1960896928673,10.566649713460514,0.07651157785808689,4.100193702791075
46,0.9008352106115007,71.1960896928673,10.521909209210317,0.07640543191612345,4.025591311239026
47,0.9008336020959664,71.1960896928673,10.484451269361834,0.07633209471541437,3.956980704853898
48,0.9008319935753156,71.1960896928673,10.456275219795266,0.07629263216918772,3.8970039433781465
49,0.900830385046835,71.1960896928673,10.43845722983648,0.07628641542193479,3.8473565139128443
50,0.9008287765080459,71.1960896928673,10.431017176088956,0.07631011203141527,3.8087478703202584
51,0.9008271679569329,71.1960896928673,10.432970313796076,0.07635784121521359,3.7809685364585164
52,0.9008255593920543,71.1960896928673,10.442551838219414,0.07642202835635666,3.763047831197665
53,0.9008239508125628,71.1960896928673,10.45753366493859,0.0764943670818559,3.7534667882895794
54,0.9008223422181543,71.1960896928673,10.475538240694291,0.07656662461841128,3.750382555795396
55,0.9008207336089761,71.1960896928673,10.49430747525843,0.07663135397468787,3.7518345832290785
56,0.900819124985515,71.1960896928673,10.511924665480425,0.07668250912801859,3.7559211821240566
57,0.9008175163484818,71.1960896928673,10.526966155772229,0.07671579674289516,3.7609400585788224
58,0.9008159076987079,71.1960896928673,10.538531564377319,0.07672867235250799,3.7654860046213328
59,0.9008142990370581,71.1960896928673,10.54613507807863,0.07672014212813269,3.768505992733169
60,0.900812690364366,71.1960896928673,10.549532066142746,0.07669072042989965,3.7693227652531003
61,0.9008110816813921,71.1960896928673,10.548598514904645,0.07664267588749257,3.767640214568307
62,0.900809472988802,71.1960896928673,10.543298214177115,0.07658029291252094,3.7635353934745672
63,0.9008078642871601,71.1960896928673,10.533655942174555,0.07650972224142034,3.7574341573896293
64,0.9008062555769365,71.1960896928673,10.519660798749037,0.07643800224664132,3.7500716264564162
65,0.9008046468585219,71.1960896928673,10.501168564072222,0.07637125764475679,3.7424524490178035
66,0.9008030381322459,71.1960896928673,10.477961459851633,0.07631318733693888,3.735830750673693
67,0.9008014293983972,71.1960896928673,10.450009046205626,0.0762653947035734,3.7317125635910338
68,0.9007998206572413,71.1960896928673,10.417797938370025,0.07622940860420159,3.7318580396479577
69,0.9007982119090359,71.1960896928673,10.382583173741311,0.07620806355595776,3.738251520610102
70,0.9007966031540426,71.1960896928673,10.346553380827602,0.07620470322173083,3.7530180837991467
71,0.9007949943925345,71.1960896928673,10.312966821539593,0.07622179027895735,3.778276396365885
72,0.9007933856247997,71.1960896928673,10.286182966822402,0.07626143482112953,3.8159185914992917
73,0.900791776851144,71.1960896928673,10.271370361318496,0.07632782787766319,3.867311044015606
74,0.9007901680718886,71.1960896928673,10.27373900046413,0.07642911560944496,3.9329337486042726
75,0.900788559287369,71.1960896928673,10.297390434762725,0.07657629979913769,4.012018632122257
76,0.9007869504979319,71.1960896928673,10.344073760209428,0.0767778454835305,4.1022808534133794
77,0.9007853417039314,71.1960896928673,10.412185181979567,0.07703093259382207,4.199840441955057
78,0.9007837329057268,71.1960896928673,10.496378552125785,0.07731493566363572,4.299408550927389
79,0.900782124103678,71.1960896928673,10.588129819837501,0.07759377025101302,4.39476391127791
80,0.9007805152981445,71.1960896928673,10.677289886965275,0.07782659318337332,4.479464112814628
81,0.9007789064894847,71.1960896928673,10.75413515521675,0.07797948762434934,4.547648398351392
82,0.900777297678054,71.1960896928673,10.811153481411818,0.07803234427290494,4.594752205689782
83,0.9007756888642049,71.1960896928673,10.844083651905013,0.07798081070093642,4.617997239328675
84,0.9007740800482873,71.1960896928673,10.852188081507316,0.07783556431191514,4.616597992334961
85,0.9007724712306487,71.1960896928673,10.837872142116877,0.07761976630735505,4.591678809369594
86,0.900770862411635,71.1960896928673,10.805737313242654,0.07736439288133336,4.545938676999176
87,0.9007692535915901,71.1960896928673,10.761335780740325,0.07710194934824022,4.483162882084448
88,0.9007676447708578,71.1960896928673,10.710090735981899,0.07686026302228116,4.4077213372931245
89,0.9007660359497811,71.1960896928673,10.656715669899977,0.07665822354394948,4.324160236227404
90,0.9007644271287029,71.1960896928673,10.605082345426908,0.07650446051463845,4.236908930895222
91,0.9007628183079659,71.1960896928673,10.558253908109382,0.07639881510925983,4.150060554921372
92,0.9007612094879144,71.1960896928673,10.518513708677444,0.07633568484804636,4.067181769738781
93,0.9007596006688923,71.1960896928673,10.487407980936736,0.07630777736673573,3.991140058088309
94,0.9007579918512438,71.1960896928673,10.465818817490327,0.07630863069225559,3.9239656755282497
95,0.9007563830353142,71.1960896928673,10.453983567197978,0.07633292613695129,3.866771663680413
96,0.900754774221449,71.1960896928673,10.451390970555735,0.07637517704301014,3.819748348471534
97,0.9007531654099935,71.1960896928673,10.456636931343738,0.07642854820312417,3.7822457378449994
98,0.9007515566012936,71.1960896928673,10.467403132995342,0.07648474692896497,3.7529524215887764
99,0.9007499477956951,71.1960896928673,10.480632983123982,0.076534489162258,3.730159205711067
100,0.9007483389935438,71.1960896928673,10.492872151937243,0.07656832032315213,3.712073321427675
101,0.900746730195186,71.1960896928673,10.500710219209305,0.07657818381922268,3.6971403990398617
102,0.9007451214009677,71.1960896928673,10.501256904606436,0.07655931375743849,3.684327320359332
103,0.9007435126112346,71.1960896928673,10.49257246642804,0.0765113432237558,3.673318082676329
104,0.9007419038263322,71.1960896928673,10.473979692400468,0.07643819275618256,3.664594761305221
105,0.9007402950466058,71.1960896928673,10.446244325840029,0.07634730470196599,3.659410150229301
106,0.9007386862724006,71.1960896928673,10.41165495050022,0.07624906548270619,3.6596721297374684
107,0.9007370775040623,71.1960896928673,10.373991857399155,0.0761567209816265,3.667742638412251
108,0.9007354687419364,71.1960896928673,10.338300879199387,0.0760862406307902,3.686138747427546
109,0.9007338599863685,71.1960896928673,10.31038922750495,0.0760551789549477,3.7171382584333563
110,0.9007322512377037,71.1960896928673,10.296061307488428,0.07608012169808076,3.7623301078752913
111,0.9007306424962875,71.1960896928673,10.300203778416735,0.07617331227053836,3.822180543883133
112,0.9007290337624647,71.1960896928673,10.325823939998061,0.0763393815743053,3.8956913239816457
113,0.900727425036581,71.1960896928673,10.37315140240305,0.07657238248168086,3.9802163373108397
114,0.9007258163189819,71.1960896928673,10.439055294533189,0.0768534196916107,4.071496616012367
115,0.9007242076100128,71.1960896928673,10.517167174794967,0.07715115996828799,4.163963815619892
116,0.9007225989100192,71.1960896928673,10.59891183352421,0.07742744452530616,4.251314865593365
117,0.9007209902193464,71.1960896928673,10.675158756290902,0.0776462132597602,4.327272827324496
118,0.9007193815383397,71.1960896928673,10.737907713733234,0.07778160263811798,4.386378750816951
119,0.9007177728673447,71.1960896928673,10.781535121064884,0.07782277096642728,4.4246514497433
120,0.9007161642067063,71.1960896928673,10.803366925698754,0.07777463502838243,4.439993467886246
121,0.9007145555567706,71.1960896928673,10.803542465726878,0.0776543108649663,4.432289744793141
122,0.9007129469178832,71.1960896928673,10.784358823271425,0.07748458963323651,4.403230313284193
123,0.9007113382903894,71.1960896928673,10.749467846234491,0.07728745612683814,4.355959064958298
124,0.9007097296746348,71.1960896928673,10.70325857282189,0.07708048054495197,4.294660919678914
125,0.9007081210709652,71.1960896928673,10.650488096146795,0.07687676153195985,4.22414546994857
126,0.9007065124797261,71.1960896928673,10.595995596104865,0.07668684567098842,4.149427208015656
127,0.9007049039012631,71.1960896928673,10.54436752425074,0.07652037565276239,4.075299092990016
128,0.9007032953359216,71.1960896928673,10.49957313801182,0.07638611119572503,4.005934774298415
129,0.9007016867840466,71.1960896928673,10.464636693132247,0.07629067344002294,3.944578153788525
130,0.9007000782459832,71.1960896928673,10.441370101087967,0.07623736031243512,3.89336090456637
131,0.9006984697220766,71.1960896928673,10.430194826103723,0.07622564711221955,3.8532563360258685
132,0.9006968612126725,71.1960896928673,10.430142304254032,0.07625114599052811,3.824161058810215
133,0.900695252718117,71.1960896928673,10.439097934995766,0.07630599320176733,3.805086576111882
134,0.9006936442387555,71.1960896928673,10.454231613671897,0.07637983088067209,3.794424952497194
135,0.900692035774933,71.1960896928673,10.472490301668932,0.07646142200466227,3.7902373700339536
136,0.9006904273269948,71.1960896928673,10.49105255964623,0.07654061007277227,3.79052119733103
137,0.9006888188952865,71.1960896928673,10.507673644487026,0.07660985433763004,3.79342966619364
138,0.9006872104801537,71.1960896928673,10.52085962486908,0.0766647505866276,3.7974271881109254
139,0.9006856020819417,71.1960896928673,10.529847410573419,0.0767036292998263,3.8013709869045007
140,0.9006839937009963,71.1960896928673,10.534456871245863,0.07672671613616487,3.804529114318921
141,0.9006823853376626,71.1960896928673,10.53494429221533,0.07673545891380534,3.8065599721620633
142,0.9006807769922861,71.1960896928673,10.531921538571568,0.07673219275373384,3.807470958785423
143,0.9006791686652121,71.1960896928673,10.526276179179579,0.07671965706009175,3.8075551223338135
144,0.9006775603567864,71.1960896928673,10.519015893521939,0.07670008338483143,3.8073024473927815
145,0.9006759520673541,71.1960896928673,10.5110883020539,0.07667442827959284,3.8073011824967598
146,0.9006743437972609,71.1960896928673,10.503300289168568,0.07664277585548268,3.80815491909448
147,0.9006727355468523,71.1960896928673,10.496361319410314,0.07660603681736877,3.8104234420045535
148,0.9006711273164741,71.1960896928673,10.490930638987692,0.07656741879627162,3.814569438881567
149,0.9006695191064713,71.1960896928673,10.487551929778137,0.07653226287645094,3.8208937708246697
150,0.9006679109171895,71.1960896928673,10.486530542318416,0.07650666822885574,3.829474342356735
151,0.900666302748974,71.1960896928673,10.48791512949389,0.07649600872953781,3.840143834702329
152,0.9006646946021701,71.1960896928673,10.491615608155389,0.07650398696814568,3.852516131487156
153,0.9006630864771235,71.1960896928673,10.497505963298744,0.0765326306932089,3.866033132313277
154,0.9006614783741795,71.1960896928673,10.505376758906634,0.07658292790538133,3.8800013315525335
155,0.9006598702936841,71.1960896928673,10.514792221937531,0.07665497529522015,3.8936193750691026
156,0.9006582622359826,71.1960896928673,10.525016732146833,0.0767469220500444,3.906021795603042
157,0.90065665420142,71.1960896928673,10.535064184344737,0.07685314252173313,3.916352769787559
158,0.9006550461903423,71.1960896928673,10.543762280291624,0.07696276599167788,3.9238559538007
159,0.9006534382030947,71.1960896928673,10.549735456355108,0.0770597031713467,3.9279583760164503
160,0.9006518302400232,71.1960896928673,10.55137320366451,0.07712511206309858,3.9283466525757262
161,0.9006502223014728,71.1960896928673,10.546935336553702,0.07714221712387882,3.925053643590136
162,0.9006486143877886,71.1960896928673,10.534828338957754,0.07710128338588387,3.918562205525606
163,0.9006470064993156,71.1960896928673,10.513937978063437,0.07700185080551601,3.9099014955718023
164,0.9006453986363994,71.1960896928673,10.483917304073318,0.07685119645150205,3.900698861322028
165,0.9006437907993852,71.1960896928673,10.445452392596637,0.07666056265540593,3.8931674262332634
166,0.9006421829886189,71.1960896928673,10.40055674246461,0.07644252202832384,3.8900265188404908
167,0.9006405752044461,71.1960896928673,10.352817470523846,0.07621220928649793,3.8943449634492793
168,0.9006389674472122,71.1960896928673,10.307407335654,0.07599124004736699,3.909284274091532
169,0.9006373597172627,71.1960896928673,10.27072358286188,0.07580990261130681,3.9377318742848053
170,0.9006357520149433,71.1960896928673,10.249649374547422,0.07570446062159358,3.981853021070452
171,0.9006341443405993,71.1960896928673,10.250516122575648,0.07571002454026544,4.042624542952327
172,0.9006325366945762,71.1960896928673,10.27784905497954,0.07585137339306383,4.1194252893524235
173,0.9006309290772194,71.1960896928673,10.333033533515794,0.07613375676422564,4.209761831992536
174,0.9006293214888744,71.1960896928673,10.413240008862498,0.07653592607903266,4.309219866161259
175,0.9006277139298867,71.1960896928673,10.511163923899145,0.07700970479508192,4.411729663425244
176,0.9006261064006019,71.1960896928673,10.616039601058985,0.07748973574309957,4.510174642532146
177,0.9006244989013655,71.1960896928673,10.715783567643934,0.07791037815160877,4.597255120116317
178,0.9006228914325233,71.1960896928673,10.79945543003973,0.07822094374913065,4.666416997257276
179,0.9006212839944205,71.1960896928673,10.859185509240042,0.07839311215939358,4.712643869607896
180,0.9006196765874024,71.1960896928673,10.891196998132719,0.07842109919551402,4.7329744686663355
181,0.9006180692118144,71.1960896928673,10.895866762605632,0.0783179116387135,4.726676468810366
182,0.9006164618680019,71.1960896928673,10.876881415338955,0.07810992337047323,4.695073332572083
183,0.9006148545563099,71.1960896928673,10.839817522271888,0.07783090146939585,4.64110604361378
184,0.9006132472770838,71.1960896928673,10.790739030769547,0.07751649648217429,4.568781467981938
185,0.9006116400306691,71.1960896928673,10.73527094744885,0.07719990825059446,4.482653910777801
186,0.9006100328174111,71.1960896928673,10.67815044032233,0.07690825974377485,4.387411398913054
187,0.9006084256376554,71.1960896928673,10.622985541779356,0.07665916089093654,4.287569465735739
188,0.9006068184917476,71.1960896928673,10.572130619387563,0.07645890774528129,4.187264305956911
189,0.900605211380033,71.1960896928673,10.526834665530156,0.07630442314915445,4.090146399620411
190,0.9006036043028572,71.1960896928673,10.487725817584025,0.0761886730066707,3.9993514863398176
191,0.9006019972605659,71.1960896928673,10.4553771592989,0.07610632345705637,3.917487557934087
192,0.9006003902535047,71.1960896928673,10.430574409332156,0.07605604508592803,3.8465828663162114
193,0.9005987832820191,71.1960896928673,10.414154938760094,0.07603891897764777,3.7879945387497846
194,0.9005971763464548,71.1960896928673,10.406606510536177,0.0760554731288217,3.742323405023418
195,0.9005955694471566,71.1960896928673,10.40770714155878,0.07610373148589948,3.7093850210539356
196,0.90059396258447,71.1960896928673,10.416397414243034,0.07617872206168885,3.688265500743869
197,0.90059235575874,71.1960896928673,10.430928878503444,0.07627287998779089,3.677462248974419
198,0.9005907489703122,71.1960896928673,10.449202078927692,0.07637701018045868,3.6750818017255478
199,0.9005891422195326,71.1960896928673,10.469142734258842,0.07648173372304491,3.679049734829743
200,0.9005875355067465,71.1960896928673,10.488980926895469,0.07657899880000855,3.6872915992101785
201,0.9005859288322997,71.1960896928673,10.507381647998672,0.07666299698642198,3.6978663789413977
202,0.9005843221965375,71.1960896928673,10.523455952559555,0.07673026266335267,3.7090560950061064
203,0.9005827155998053,71.1960896928673,10.536695984570539,0.07677929346608385,3.7194231396848068
204,0.9005811090424485,71.1960896928673,10.54684842564302,0.07681003638344228,3.727843615197246
205,0.9005795025248126,71.1960896928673,10.553745093603023,0.07682328833700235,3.7335206005363304
206,0.9005778960472431,71.1960896928673,10.55716112876026,0.07682015172337266,3.7359836392949273
207,0.9005762896100858,71.1960896928673,10.556771771005584,0.07680181195555316,3.7350830148491334
208,0.9005746832136857,71.1960896928673,10.552183984819019,0.07676947505506362,3.7309792041494756
209,0.9005730768583884,71.1960896928673,10.542952031131716,0.07672399061672443,3.7241232606256225
210,0.9005714705445391,71.1960896928673,10.52854709679786,0.07666510225009027,3.7152388870485953
211,0.9005698642724832,71.1960896928673,10.508376403596523,0.07659102940643264,3.705331006744526
212,0.9005682580425663,71.1960896928673,10.481976575354084,0.07649937167613495,3.6957303776036516
213,0.9005666518551344,71.1960896928673,10.449376214900752,0.07638952889517638,3.6881486095645695
214,0.9005650457105325,71.1960896928673,10.411473397212937,0.07626548842460794,3.68469515577389
215,0.9005634396091056,71.1960896928673,10.370273724290618,0.07613739966995577,3.6878181208758307
216,0.900561833551199,71.1960896928673,10.328973176031393,0.07602125257458701,3.700162837728759
217,0.9005602275371585,71.1960896928673,10.291941119938938,0.07593697160941781,3.7243559939273725
218,0.9005586215673292,71.1960896928673,10.26453584764839,0.07590564241151915,3.7627070085415504
219,0.9005570156420565,71.1960896928673,10.25255353300589,0.07594649019872211,3.8168180800664304
220,0.9005554097616858,71.1960896928673,10.261208140184374,0.07607361119026002,3.887141727294768
221,0.9005538039265629,71.1960896928673,10.293824038953915,0.0762921235728292,3.972585823361188
222,0.9005521981370334,71.1960896928673,10.350639780818781,0.07659379508941237,4.07028782217919
223,0.9005505923934424,71.1960896928673,10.428141716280077,0.07695370052471298,4.175651743165076
224,0.9005489866961356,71.1960896928673,10.51925310068043,0.07733162111983585,4.282687667908406
225,0.9005473810454591,71.1960896928673,10.614480229145446,0.07768028426114147,4.384625547940347
226,0.9005457754417582,71.1960896928673,10.703718985264103,0.07795675516074896,4.474697417368412
227,0.9005441698853786,71.1960896928673,10.778097980586171,0.0781309772784752,4.5469257913711765
228,0.9005425643766655,71.1960896928673,10.83128342687988,0.07818902391637285,4.596761658837517
229,0.9005409589159641,71.1960896928673,10.860060803224851,0.07813252386602769,4.621482092331471
230,0.9005393535036199,71.1960896928673,10.864338827002504,0.0779766336067194,4.62033072557905
231,0.9005377481399782,71.1960896928673,10.846709622253268,0.07774730456902887,4.594420861227668
232,0.9005361428253846,71.1960896928673,10.811604522753568,0.07747677350265479,4.546442024207149
233,0.9005345375601846,71.1960896928673,10.764224334613205,0.0771970766330605,4.480245935031236
234,0.9005329323447233,71.1960896928673,10.709620777445675,0.07693389891487402,4.400412639168721
235,0.9005313271793464,71.1960896928673,10.652232899294027,0.07670348512237585,4.31187192384857
236,0.9005297220643991,71.1960896928673,10.59584389803548,0.07651329531352022,4.219588838351542
237,0.9005281170002271,71.1960896928673,10.543678240814017,0.07636504292886072,4.128276175707984
238,0.9005265119871761,71.1960896928673,10.498437626070483,0.07625800647905773,4.042111576193465
239,0.9005249070255917,71.1960896928673,10.462254860245961,0.07619105093169778,3.9644809904755705
240,0.9005233021158194,71.1960896928673,10.436589481364763,0.0761630254856694,3.897790503626128
241,0.9005216972582042,71.1960896928673,10.422072298831129,0.07617195685271932,3.843374046585805
242,0.9005200924530911,71.1960896928673,10.418355025531318,0.07621365860084213,3.8015022942339813
243,0.9005184877008257,71.1960896928673,10.424089503440676,0.07628076671597242,3.7714898515030644
244,0.9005168830017531,71.1960896928673,10.43711766221022,0.07636323318156245,3.751892325054489
245,0.9005152783562194,71.1960896928673,10.454822682869773,0.07645026197886957,3.740765123038934
246,0.9005136737645698,71.1960896928673,10.474525343787638,0.07653247836446334,3.735936555953903
247,0.9005120692271499,71.1960896928673,10.493836051253083,0.07660312413088208,3.7352517751618506
248,0.9005104647443051,71.1960896928673,10.510907215409997,0.07665816013420951,3.7367638355693074
249,0.9005088603163807,71.1960896928673,10.524540506673326,0.07669584430571103,3.73886316468831
250,0.9005072559437219,71.1960896928673,10.534132800091758,0.07671611532329987,3.740345764810923
251,0.9005056516266747,71.1960896928673,10.53951734376677,0.0767200293202828,3.7404309528061335
252,0.9005040473655848,71.1960896928673,10.540802779700314,0.07670953125713996,3.7387444781379293
253,0.9005024431607973,71.1960896928673,10.538256012347397,0.07668721298275213,3.735274114667929
254,0.900500839012658,71.1960896928673,10.532175949028854,0.07665542266940183,3.730296746258
255,0.9004992349215123,71.1960896928673,10.522708904588107,0.07661499947646735,3.724291255004608
256,0.9004976308877056,71.1960896928673,10.509686305308774,0.07656475131191547,3.7178788144269794
257,0.9004960269115835,71.1960896928673,10.492640032734807,0.07650243502125365,3.7118285985851363
258,0.9004944229934915,71.1960896928673,10.471036927479263,0.07642697517164158,3.7071216119460626
259,0.900492819133775,71.1960896928673,10.44460415996449,0.07634066573647622,3.705023866696112
260,0.9004912153327796,71.1960896928673,10.413604247209971,0.07624976571595647,3.7071222501034096
261,0.9004896115908505,71.1960896928673,10.37906996390713,0.07616341017826912,3.715306345700786
262,0.9004880079083329,71.1960896928673,10.343082346774533,0.07609281275071919,3.731694780452946
263,0.9004864042855723,71.1960896928673,10.309022288178754,0.07605177016226558,3.7584920070579564
264,0.9004848007229136,71.1960896928673,10.281554781736403,0.07605649123290681,3.797748531498766
265,0.9004831972207025,71.1960896928673,10.266156417968919,0.07612267272746184,3.8510170534336514
266,0.9004815937792848,71.1960896928673,10.2682258833262,0.0762606632126609,3.918947629459308
267,0.9004799903990058,71.1960896928673,10.2919751333757,0.07647127479335104,4.000907573362732
268,0.9004783870802112,71.1960896928673,10.339279053889019,0.07674391154611471,4.0947153835149255
269,0.9004767838232461,71.1960896928673,10.408675030947878,0.07705701392998227,4.196561604246213
270,0.9004751806284562,71.1960896928673,10.49488756277742,0.07738019479111337,4.301179414083901
271,0.9004735774961872,71.1960896928673,10.589334004518182,0.0776780777375231,4.402299173714357
272,0.9004719744267846,71.1960896928673,10.681700188774224,0.07791611740026017,4.493342102099434
273,0.9004703714205942,71.1960896928673,10.762048752354968,0.07806726887542023,4.568215874274805
274,0.9004687684779614,71.1960896928673,10.822679566988997,0.07811702630030971,4.622041094986937
275,0.9004671655992317,71.1960896928673,10.859252529970046,0.0780654149595446,4.6516708858266105
276,0.9004655627847501,71.1960896928673,10.87102043000149,0.07792617588997194,4.65592172569823
277,0.900463960034862,71.1960896928673,10.860228862504458,0.0777233507356991,4.635500665386563
278,0.9004623573499124,71.1960896928673,10.831000669459751,0.07748560679599883,4.592696788030861
279,0.9004607547302468,71.1960896928673,10.788211981953186,0.07724007027721332,4.530961612636455
280,0.9004591521762108,71.1960896928673,10.736739376592029,0.07700787604270956,4.454490205815323
281,0.9004575496881498,71.1960896928673,10.681090599074635,0.0768020920504938,4.367853014220716
282,0.9004559472664094,71.1960896928673,10.625204284659652,0.07662758778061,4.275679820513007
283,0.9004543449113348,71.1960896928673,10.572320155134253,0.07648299481930879,4.182391419838522
284,0.9004527426232714,71.1960896928673,10.524991905903375,0.07636471249337518,4.091983821853685
285,0.9004511404025647,71.1960896928673,10.485246419957306,0.07627112550749525,4.0078637685834515
286,0.9004495382495603,71.1960896928673,10.45470554365731,0.07620437924687268,3.9327206250139595
287,0.9004479361646037,71.1960896928673,10.43447629915538,0.07616873664216062,3.8684201726577534
288,0.9004463341480401,71.1960896928673,10.424849304688678,0.07616720009260583,3.815927333987912
289,0.9004447322002151,71.1960896928673,10.425048661006224,0.076198869992739,3.7752902098188037
290,0.9004431303214748,71.1960896928673,10.433231766324528,0.07625808636285246,3.7457215608690095
291,0.9004415285121645,71.1960896928673,10.446767702859423,0.07633523884277596,3.725788159764891
292,0.9004399267726299,71.1960896928673,10.462707134047191,0.07641887558919927,3.713677587866591
293,0.9004383251032164,71.1960896928673,10.478304382556079,0.07649819096963326,3.7074812989221595
294,0.9004367235042693,71.1960896928673,10.491430928775532,0.07656468321252677,3.7054331719645
295,0.9004351219761335,71.1960896928673,10.50076919330649,0.07661265748571795,3.7060723502860107
296,0.9004335205191545,71.1960896928673,10.505805994279157,0.07663929012259083,3.708330495658042
297,0.9004319191336777,71.1960896928673,10.506736143991077,0.07664494200042173,3.711554002174045
298,0.9004303178200487,71.1960896928673,10.504347601130766,0.07663351536144027,3.715468589369513
299,0.9004287165786131,71.1960896928673,10.499865968109482,0.07661191782833252,3.720094550977014
300,0.9004271154097164,71.1960896928673,10.49471782866981,0.07658813190197633,3.7256296095703267
301,0.9004255143137041,71.1960896928673,10.490263259464871,0.07656888437031623,3.7323265142966884
302,0.9004239132909219,71.1960896928673,10.487613848143058,0.07655845138730177,3.740390288868872
303,0.9004223123417151,71.1960896928673,10.487566176932104,0.07655880728191461,3.7499004518372905
304,0.9004207114664291,71.1960896928673,10.490547469917502,0.07657023228828075,3.7607503320493545
305,0.9004191106654091,71.1960896928673,10.496484161189478,0.07659170024549063,3.7726082158463345
306,0.9004175099390005,71.1960896928673,10.504666978676797,0.07662076616810976,3.784923010221987
307,0.9004159092875489,71.1960896928673,10.513767433118023,0.07665310862330627,3.796990529429616
308,0.9004143087113998,71.1960896928673,10.522024274323016,0.0766827154255014,3.808070283528861
309,0.9004127082108988,71.1960896928673,10.527458169657326,0.07670352194024195,3.81752387782682
310,0.9004111077863911,71.1960896928673,10.528011389507439,0.07671126918725044,3.8249492802682448
311,0.9004095074382219,71.1960896928673,10.521691138007185,0.0767034520124724,3.8303037403524374
312,0.9004079071667368,71.1960896928673,10.506868033805397,0.07667751294242987,3.834018806293248
313,0.9004063069722816,71.1960896928673,10.482728656511364,0.0766296467345519,3.837097784673866
314,0.9004047068552018,71.1960896928673,10.449699127973982,0.07655586512513464,3.8411643660513652
315,0.9004031068158427,71.1960896928673,10.409668083075074,0.07645520436946557,3.848426073513127
316,0.9004015068545498,71.1960896928673,10.366005578668592,0.07633424566294406,3.8615336377271654
317,0.9003999069716687,71.1960896928673,10.32346839852252,0.07621106182643769,3.883339653921819
318,0.9003983071675449,71.1960896928673,10.287976734144333,0.07611514269889562,3.916566389623727
319,0.9003967074425235,71.1960896928673,10.266104133768145,0.07608125146082728,3.963391834977401
320,0.9003951077969499,71.1960896928673,10.264151889363589,0.07613939593295371,4.024982436425072
321,0.9003935082311693,71.1960896928673,10.286874647369839,0.07630529116842943,4.101044388558108
322,0.9003919087455275,71.1960896928673,10.336117937238875,0.0765743848550093,4.189502961795532
323,0.9003903093403705,71.1960896928673,10.409744802159855,0.07692080254097287,4.286422313827804
324,0.900388710016043,71.1960896928673,10.501326008535672,0.07730198738436378,4.386244713377148
325,0.9003871107728909,71.1960896928673,10.601001565402946,0.07766848602934286,4.482361752075493
326,0.9003855116112598,71.1960896928673,10.697441572253748,0.07797521364655455,4.56793157586473
327,0.9003839125314949,71.1960896928673,10.780186008932592,0.07818905200999103,4.636760761931793
328,0.9003823135339416,71.1960896928673,10.841464886180972,0.07829098630282574,4.684045393901444
329,0.9003807146189453,71.1960896928673,10.877085436687489,0.07827550528109785,4.706836211623086
330,0.9003791157868516,71.1960896928673,10.886525689690657,0.07815011050089492,4.704193427965279
331,0.9003775170380057,71.1960896928673,10.87243500625612,0.07793451167211647,4.677060121901396
332,0.900375918372753,71.1960896928673,10.839615223404783,0.07765759610444085,4.627919255408694
333,0.9003743197914391,71.1960896928673,10.793720842322136,0.0773519813027381,4.56033641116265
334,0.9003727212944096,71.1960896928673,10.74014891023543,0.07704801975862054,4.478505432733633
335,0.9003711228820096,71.1960896928673,10.683464077023759,0.07676949808426467,4.386878880262199
336,0.9003695245545846,71.1960896928673,10.627293430134582,0.07653190899312202,4.289899401519919
337,0.9003679263124803,71.1960896928673,10.574390765435657,0.07634253309955703,4.191803809038109
338,0.9003663281560419,71.1960896928673,10.526728859517398,0.0762017354950624,4.096471602272656
339,0.9003647300856154,71.1960896928673,10.485689211516927,0.07610573472996932,4.007303699569455
340,0.900363132101546,71.1960896928673,10.45235541388925,0.07605014570516279,3.927119173524375
341,0.900361534204179,71.1960896928673,10.42771845125172,0.07603216647617167,3.8580570775149177
342,0.9003599363938599,71.1960896928673,10.412593739961187,0.07605013662254408,3.8014813232034643
343,0.9003583386709344,71.1960896928673,10.407291243880586,0.07610150302719546,3.757909015698624
344,0.9003567410357475,71.1960896928673,10.411288247562874,0.07618100978817746,3.7270002307528474
345,0.900355143488645,71.1960896928673,10.423128006935615,0.0762800903226073,3.707639390615471
346,0.9003535460299725,71.1960896928673,10.440607932185424,0.07638784400643725,3.698106452522919
347,0.9003519486600757,71.1960896928673,10.46117716116838,0.07649344273519731,3.6963040175395374
348,0.9003503513793,71.1960896928673,10.48238881558198,0.0765887254351334,3.6999942351044837
349,0.9003487541879908,71.1960896928673,10.502248158456844,0.07666933681625074,3.7070079642800695
350,0.9003471570864936,71.1960896928673,10.519362073401576,0.07673394850888987,3.7154069683774176
351,0.9003455600751537,71.1960896928673,10.532913848040762,0.07678260125099244,3.7235940348590377
352,0.9003439631543161,71.1960896928673,10.542567886743527,0.0768154173158501,3.730369728429454
353,0.9003423663243262,71.1960896928673,10.54837067080374,0.07683210041958909,3.7349371993584106
354,0.9003407695855298,71.1960896928673,10.550625011270258,0.07683199368831489,3.736865375210245
355,0.9003391729382719,71.1960896928673,10.549703382588598,0.07681446614209068,3.736031061438721
356,0.9003375763828978,71.1960896928673,10.545852053058356,0.07677953362614741,3.7325655544460474
357,0.9003359799197529,71.1960896928673,10.53909054028879,0.07672837854775347,3.7268236801732977
358,0.9003343835491829,71.1960896928673,10.529229560814123,0.07666326000368019,3.7193731458830643
359,0.9003327872715338,71.1960896928673,10.515913675285056,0.0765866847448864,3.7109881314051374
360,0.9003311910871513,71.1960896928673,10.498617229624543,0.07650036599104254,3.7026401174559913
361,0.9003295949963808,71.1960896928673,10.476683737746818,0.07640509270919976,3.6955020543440917
362,0.9003279989995675,71.1960896928673,10.449568360647095,0.07630224592567048,3.6909840715411755
363,0.9003264030970568,71.1960896928673,10.417281951164812,0.07619588570066584,3.6907856183592105
364,0.9003248072891943,71.1960896928673,10.380833816679495,0.0760935110433724,3.6969147627579995
365,0.9003232115763254,71.1960896928673,10.3424682150843,0.07600550331619502,3.7116243017871877
366,0.9003216159587957,71.1960896928673,10.305667443259416,0.07594496268383652,3.7372428346374362
367,0.9003200204369504,71.1960896928673,10.275008839356877,0.07592812515323163,3.775911812793965
368,0.9003184250111351,71.1960896928673,10.255867051393281,0.07597305508234822,3.8292552491760294
369,0.9003168296816956,71.1960896928673,10.253806207959617,0.07609497637951303,3.8980122206787193
370,0.9003152344489768,71.1960896928673,10.273544029557657,0.07630000335300806,3.9816760524620665
371,0.9003136393133236,71.1960896928673,10.317622818428662,0.07658086331647312,4.078210514238404
372,0.9003120442750816,71.1960896928673,10.385194675974862,0.07691655482335112,4.183929710201317
373,0.9003104493345963,71.1960896928673,10.471433670495628,0.0772753554364733,4.293620061153591
374,0.9003088544922132,71.1960896928673,10.567989467390916,0.07761994566373887,4.40094796396758
375,0.9003072597482783,71.1960896928673,10.664528967828607,0.0779137832112128,4.499124479544976
376,0.9003056651031373,71.1960896928673,10.750849065748094,0.07812725836281936,4.581701138495785
377,0.9003040705571355,71.1960896928673,10.818737932832613,0.07824154635083855,4.643315910765
378,0.9003024761106184,71.1960896928673,10.863031853479105,0.07824947308772491,4.680244910506288
379,0.9003008817639316,71.1960896928673,10.881873337797964,0.07815506193708173,4.690702178245842
380,0.9002992875174203,71.1960896928673,10.876461900924786,0.07797333894858606,4.674889819953798
381,0.9002976933714298,71.1960896928673,10.850439761228111,0.07772913866594183,4.634816272381026
382,0.9002960993263056,71.1960896928673,10.808914130148935,0.07745266901147059,4.57391655489194
383,0.900294505382393,71.1960896928673,10.757310147644915,0.0771726228131685,4.496554805535242
384,0.900292911540037,71.1960896928673,10.70047325363171,0.07691045728952979,4.407532029940969
385,0.9002913177995832,71.1960896928673,10.642324819751162,0.07667858452794504,4.31170426546378
386,0.9002897241613772,71.1960896928673,10.585990662410957,0.0764821997568572,4.213734984270716
387,0.9002881306257647,71.1960896928673,10.534068289207733,0.07632262810025803,4.117928031635998
388,0.9002865371930914,71.1960896928673,10.488798815358564,0.07620033187175398,4.028076143092678
389,0.9002849438637027,71.1960896928673,10.452115224745446,0.07611653910386787,3.9473003406655987
390,0.9002833506379437,71.1960896928673,10.425584921209003,0.07607313596613398,3.8778940298380116
391,0.9002817575161601,71.1960896928673,10.410224314780717,0.07607128848227614,3.821201050990374
392,0.9002801644986973,71.1960896928673,10.406214070632426,0.07610962631499944,3.777559546589715
393,0.9002785715859011,71.1960896928673,10.412678299008835,0.07618276752312547,3.746339827810609
394,0.9002769787781169,71.1960896928673,10.427707943410507,0.07628109142024013,3.7260867908632753
395,0.9002753860756902,71.1960896928673,10.448651299079673,0.0763923115389095,3.7147470471305697
396,0.9002737934789664,71.1960896928673,10.472555281529969,0.07650422340889651,3.709940044793968
397,0.9002722009882909,71.1960896928673,10.496614308369214,0.07660710243009611,3.7092318486669056
398,0.900270608604009,71.1960896928673,10.518498477967192,0.07669450492855356,3.710373983637374
399,0.9002690163264664,71.1960896928673,10.536471665151444,0.0767624479468877,3.7114743535860852
400,0.9002674241560085,71.1960896928673,10.549302898790474,0.07680798185188671,3.7110897225523476
401,0.9002658320929804,71.1960896928673,10.556082314849544,0.07682815950103568,3.708262839164734
402,0.9002642401377277,71.1960896928673,10.556083939216418,0.07681982014722982,3.702539350316614
403,0.9002626482905957,71.1960896928673,10.54873735484166,0.07678025176475337,3.69398105967091
404,0.9002610565519296,71.1960896928673,10.53366134663474,0.0767084152016986,3.683170762686942
405,0.9002594649220746,71.1960896928673,10.510702982565768,0.0766059964558585,3.6712032720914354
406,0.9002578734013763,71.1960896928673,10.480032838404657,0.07647798737451876,3.659668094481644
407,0.9002562819901802,71.1960896928673,10.442392593230007,0.0763331239697631,3.6506276407307845
408,0.9002546906888321,71.1960896928673,10.399452310054565,0.07618401314880414,3.6465733832657206
409,0.900253099497678,71.1960896928673,10.354075110094163,0.07604624171158458,3.6503209150400293
410,0.9002515084170635,71.1960896928673,10.310314652360285,0.0759366381354729,3.664811072745909
411,0.9002499174473341,71.1960896928673,10.273154583455002,0.07587188623716769,3.692817728889917
412,0.9002483265888351,71.1960896928673,10.248103377267086,0.07586795063865381,3.736590151842234
413,0.900246735841912,71.1960896928673,10.240652039950646,0.07593916063113491,3.7974602573454233
414,0.9002451452069099,71.1960896928673,10.255462600204044,0.07609564614085713,3.875447087912823
415,0.900243554684174,71.1960896928673,10.295228576973388,0.07633919621477522,3.968918108111491
416,0.9002419642740498,71.1960896928673,10.359456763950726,0.07665879106334836,4.0744048532174855
417,0.9002403739768825,71.1960896928673,10.44371461898042,0.07702768302386173,4.1866810785809845
418,0.9002387837930177,71.1960896928673,10.539877051656669,0.07740477901247832,4.299170027049769
419,0.900237193722801,71.1960896928673,10.637524340379208,0.07774242343492177,4.404655449035409
420,0.9002356037665782,71.1960896928673,10.726068768561104,0.07799830942667738,4.496159603017567
421,0.9002340139246945,71.1960896928673,10.796799445539154,0.07814535861067698,4.567783301898867
422,0.9002324241974955,71.1960896928673,10.844156207002435,0.07817527124018878,4.615328088138629
423,0.9002308345853265,71.1960896928673,10.86604424957905,0.07809633831068499,4.636616100780699
424,0.9002292450885331,71.1960896928673,10.863452018587891,0.07792875820906942,4.63151925813652
425,0.9002276557074609,71.1960896928673,10.83974532709686,0.07770003751412184,4.601758698913543
426,0.9002260664424552,71.1960896928673,10.799820610836633,0.07744063761203229,4.5505408268920515
427,0.9002244772938613,71.1960896928673,10.749161494382996,0.07717885302819466,4.482097626423688
428,0.9002228882620249,71.1960896928673,10.69296114631058,0.07693570232208381,4.401216721021597
429,0.9002212993472916,71.1960896928673,10.635592485228594,0.0767225796158669,4.31284528204841
430,0.9002197105500067,71.1960896928673,10.580561703970947,0.07654320031261812,4.221799523763857
431,0.9002181218705155,71.1960896928673,10.530762983589339,0.07639811724814308,4.132543296745953
432,0.9002165333091632,71.1960896928673,10.488687536410229,0.07628843523626917,4.048979612289658
433,0.9002149448662954,71.1960896928673,10.456385152899024,0.07621662321761712,3.974239342201378
434,0.9002133565422578,71.1960896928673,10.435214211558431,0.07618471608994083,3.910500456547611
435,0.9002117683373954,71.1960896928673,10.425531881862504,0.07619177240277498,3.8588847016221965
436,0.9002101802520538,71.1960896928673,10.42649456808015,0.07623255782638927,3.8194609901963337
437,0.9002085922865786,71.1960896928673,10.436105976631342,0.0762981777869573,3.7913611846092357
438,0.9002070044413154,71.1960896928673,10.451551401761169,0.07637792610818787,3.7729946269570607
439,0.90020541671661,71.1960896928673,10.469712873041887,0.0764612801765902,3.7623297385981584
440,0.9002038291128079,71.1960896928673,10.487680729125767,0.07653938835418318,3.757197658085247
441,0.9002022416302544,71.1960896928673,10.503136670396907,0.07660576304089986,3.7555707424456033
442,0.9002006542692946,71.1960896928673,10.51458262044127,0.07665637088802629,3.7557760713104815
443,0.9001990670302737,71.1960896928673,10.521413168900521,0.07668949502383957,3.7566172680681693
444,0.9001974799135373,71.1960896928673,10.523813081502487,0.07670533903047712,3.7573978213213373
445,0.9001958929194308,71.1960896928673,10.522499010497162,0.07670532814585497,3.757863482783874
446,0.9001943060483001,71.1960896928673,10.518416042741656,0.07669161728566248,3.7580987150195173
447,0.9001927193004908,71.1960896928673,10.512530650697297,0.07666734504245049,3.7584122327987046
448,0.9001911326763481,71.1960896928673,10.505761577268583,0.07663720556345761,3.759232661268088
449,0.9001895461762172,71.1960896928673,10.498961174123416,0.07660706080039849,3.761018123100915
450,0.9001879598004435,71.1960896928673,10.49285675033123,0.07658219637554645,3.764176860531415
451,0.9001863735493726,71.1960896928673,10.487985907107078,0.07656561464960007,3.7690078341117017
452,0.90018478742335,71.1960896928673,10.484723237897235,0.07655775011701484,3.775677998989479
453,0.9001832014227212,71.1960896928673,10.48338637869495,0.07655731379718031,3.7842300549395063
454,0.9001816155478319,71.1960896928673,10.484284681180055,0.07656223898939997,3.7945880888517483
455,0.9001800297990276,71.1960896928673,10.487625616619347,0.07657037237247395,3.8065415061189816
456,0.9001784441766536,71.1960896928673,10.49337251617363,0.07658017433846562,3.8197234760731664
457,0.9001768586810558,71.1960896928673,10.501209490299,0.07659145259765585,3.833611308165119
458,0.9001752733125795,71.1960896928673,10.510622578432912,0.07660551299269805,3.8475557205136472
459,0.9001736880715699,71.1960896928673,10.520953600015817,0.0766243495478595,3.8608236695792435
460,0.9001721029583725,71.1960896928673,10.531318683282468,0.07664965442465654,3.8726391179550594
461,0.9001705179733325,71.1960896928673,10.540469450190676,0.07668263026341145,3.882229734186024
462,0.9001689331167955,71.1960896928673,10.546786299574036,0.07672400813509664,3.888907224753262
463,0.9001673483891073,71.1960896928673,10.548471229589229,0.07677274869242379,3.8921912914362777
464,0.9001657637906131,71.1960896928673,10.543814634646003,0.0768234673227413,3.8919498518596614
465,0.900164179321658,71.1960896928673,10.531402040866682,0.07686447012251728,3.8885212111082086
466,0.9001625949825873,71.1960896928673,10.510283481562626,0.0768786734562784,3.8828095281864736
467,0.9001610107737467,71.1960896928673,10.480214717099855,0.07684871462649152,3.876355945652908
468,0.9001594266954815,71.1960896928673,10.44198470395839,0.07676465782591028,3.871363492873951
469,0.9001578427481378,71.1960896928673,10.39770870686357,0.07662990815284858,3.8706291794702135
470,0.9001562589320612,71.1960896928673,10.35095220744268,0.07646192171805984,3.8773494091761034
471,0.900154675247597,71.1960896928673,10.306646661354117,0.07628792919435703,3.894806514080412
472,0.9001530916950905,71.1960896928673,10.27081339459568,0.07613866531678434,3.9259742709329353
473,0.9001515082748873,71.1960896928673,10.250044988003904,0.07604375431606941,3.9730798362291457
474,0.9001499249873326,71.1960896928673,10.2506317080819,0.0760301024349393,4.037153124395687
475,0.9001483418327717,71.1960896928673,10.277304173138678,0.07612020136460693,4.117611289346789
476,0.9001467588115504,71.1960896928673,10.331781335607804,0.07632613606371173,4.211962061382966
477,0.9001451759240137,71.1960896928673,10.411566920981592,0.07664048565038808,4.315736478307368
478,0.9001435931705073,71.1960896928673,10.50959336886391,0.07703123931118641,4.422749635856686
479,0.9001420105513772,71.1960896928673,10.615180063820741,0.0774467906242791,4.525720175926091
480,0.9001404280669686,71.1960896928673,10.716211049797902,0.07782959018234992,4.617162633092319
481,0.9001388457176267,71.1960896928673,10.801718074331497,0.0781304111400115,4.690353613515983
482,0.9001372635036972,71.1960896928673,10.863829733233503,0.07831615781800208,4.740138819419013
483,0.900135681425525,71.1960896928673,10.898563209898462,0.07837115757447462,4.763422553650438
484,0.9001340994834559,71.1960896928673,10.905673414794851,0.07829609221560742,4.759310468075795
485,0.9001325176778356,71.1960896928673,10.8880530172661,0.07810683773006703,4.728964800303309
486,0.9001309360090096,71.1960896928673,10.850887174758352,0.07783238858206502,4.675241720928415
487,0.9001293544773235,71.1960896928673,10.80050633654622,0.0775102594357513,4.602176364472161
488,0.9001277730831222,71.1960896928673,10.743091256520646,0.07717922221376611,4.514418219241995
489,0.9001261918267511,71.1960896928673,10.683693056111553,0.07687164531507629,4.416749676471149
490,0.900124610708556,71.1960896928673,10.62592105023879,0.07660859276625145,4.313776745367895
491,0.9001230297288825,71.1960896928673,10.57219166478333,0.07639908426281317,4.209783311525914
492,0.9001214488880758,71.1960896928673,10.524139489392622,0.07624279889952328,4.108669051699811
493,0.9001198681864815,71.1960896928673,10.482938842184616,0.07613470580362337,4.013892825526564
494,0.9001182876244449,71.1960896928673,10.449534396240793,0.07606946308136112,3.928389045561764
495,0.9001167072023115,71.1960896928673,10.424788021735583,0.07604327666615798,3.854460625964323
496,0.9001151269204268,71.1960896928673,10.409439036951962,0.07605289117355485,3.793663147374333
497,0.9001135467791362,71.1960896928673,10.403823817724664,0.07609385832317626,3.746701059191015
498,0.9001119667787856,71.1960896928673,10.407514856563676,0.07615997981633088,3.713371304335717
499,0.9001103869197202,71.1960896928673,10.419138027350611,0.07624361234100625,3.692596321010545
500,0.9001088072022854,71.1960896928673,10.436488418902133,0.07633600395407228,3.6825684891059196
501,0.9001072276268265,71.1960896928673,10.456886634516803,0.07642805886874601,3.68099234160977
502,0.9001056481936892,71.1960896928673,10.477641076920046,0.07651196492985592,3.685381180056431
503,0.9001040689032189,71.1960896928673,10.496472273266535,0.0765828060221287,3.6933495484997945
504,0.9001024897557611,71.1960896928673,10.511778487497748,0.07663884540142028,3.7028456302321926
505,0.9001009107516609,71.1960896928673,10.522693336896511,0.0766803090014584,3.7122906874450887
506,0.9000993318912633,71.1960896928673,10.528994612124714,0.0767078238329768,3.7206262835176926
507,0.9000977531749145,71.1960896928673,10.530979322290495,0.07672181250250153,3.727294717989655
508,0.9000961746029601,71.1960896928673,10.529363678217189,0.07672310821020131,3.7321803441059447
509,0.9000945961757458,71.1960896928673,10.525174945078092,0.07671379164871411,3.7355225986947986
510,0.9000930178936172,71.1960896928673,10.519589474126434,0.07669717135716032,3.7377998622159265
511,0.9000914397569192,71.1960896928673,10.513750654889359,0.0766771821836193,3.7395967743646317
512,0.9000898617659975,71.1960896928673,10.508650969397424,0.07665812784136243,3.741484204738259
513,0.9000882839211976,71.1960896928673,10.505088800420179,0.076644527793002,3.7439281416384955
514,0.9000867062228649,71.1960896928673,10.503606359062871,0.07663995029702246,3.747219746981215
515,0.9000851286713453,71.1960896928673,10.504339301777264,0.07664482475448692,3.751422411394149
516,0.900083551266984,71.1960896928673,10.506858942648323,0.0766550238292785,3.7563563081478657
517,0.9000819740101266,71.1960896928673,10.51015910404268,0.0766629548613306,3.7616467465496966
518,0.9000803969011182,71.1960896928673,10.512810317646409,0.07666072998348052,3.7668334553922085
519,0.9000788199403041,71.1960896928673,10.513151102091829,0.0766431674579704,3.7715051453165147
520,0.9000772431280297,71.1960896928673,10.509418091839885,0.07660860686665509,3.775427647137667
521,0.9000756664646407,71.1960896928673,10.49988553851636,0.07655743878876944,3.77866546130037
522,0.9000740899504821,71.1960896928673,10.483149367689506,0.07649050401084032,3.781706347099445
523,0.9000725135858991,71.1960896928673,10.458547767273863,0.07640974226376654,3.7855711648778487
524,0.9000709373712373,71.1960896928673,10.426551516534232,0.07632071342133165,3.7918638163668805
525,0.9000693613068422,71.1960896928673,10.38897860208195,0.07623412370236807,3.8027212333133162
526,0.9000677853930598,71.1960896928673,10.349038163525766,0.07616446575641038,3.8206537970921204
527,0.9000662096302358,71.1960896928673,10.311274226057806,0.07612673923246453,3.8482916899207535
528,0.9000646340187155,71.1960896928673,10.28136233484872,0.07613368178792655,3.88805395921762
529,0.9000630585588444,71.1960896928673,10.265581881408005,0.07619488092739975,3.9417504185213543
530,0.9000614832509681,71.1960896928673,10.269841229250508,0.07631699724765445,4.010141954262384
531,0.9000599080954323,71.1960896928673,10.298352737760704,0.07650345748658892,4.092526752036055
532,0.9000583330925829,71.1960896928673,10.352268836124269,0.07675223432221846,4.186458387804717
533,0.9000567582427648,71.1960896928673,10.428715860938091,0.07705148547007423,4.287706410861438
534,0.9000551835463235,71.1960896928673,10.520714730083284,0.07737630065550485,4.390534927261729
535,0.9000536090036038,71.1960896928673,10.618291871960485,0.07769145626082903,4.4882993478579065
536,0.9000520346149508,71.1960896928673,10.710527390737465,0.07795985218745358,4.574256087928481
537,0.9000504603807101,71.1960896928673,10.787741863417546,0.0781506275639705,4.642400036588682
538,0.9000488863012275,71.1960896928673,10.84304263659259,0.07824295685382703,4.688152014244122
539,0.9000473123768488,71.1960896928673,10.873000290001443,0.07822719237233094,4.708798006540308
540,0.9000457386079195,71.1960896928673,10.877664123656077,0.0781062414848146,4.703653929528563
541,0.9000441649947849,71.1960896928673,10.860066303491454,0.07789657456152796,4.673957049711916
542,0.9000425915377903,71.1960896928673,10.825221853247056,0.07762600001426784,4.622513760401857
543,0.9000410182372809,71.1960896928673,10.77883406334541,0.07732755703047162,4.553195582746974
544,0.9000394450936021,71.1960896928673,10.726184999587762,0.07703243857298266,4.470423123783683
545,0.9000378721070996,71.1960896928673,10.6715918035145,0.07676525312822813,4.378752425280866
546,0.9000362992781189,71.1960896928673,10.61838077148829,0.07654202978256316,4.282594143502361
547,0.9000347266070059,71.1960896928673,10.569043845705862,0.07636970304238894,4.186029670263204
548,0.900033154094106,71.1960896928673,10.525381536599511,0.07624727812691395,4.092683897510232
549,0.9000315817397648,71.1960896928673,10.488681645857506,0.0761692917306986,4.005634227531442
550,0.9000300095443274,71.1960896928673,10.459960543203401,0.07612997749295303,3.9273355314597027
551,0.9000284375081397,71.1960896928673,10.44009990735646,0.07612544469036193,3.859537070802191
552,0.9000268656315471,71.1960896928673,10.429685040992878,0.07615286113551735,3.8031913221566422
553,0.9000252939148953,71.1960896928673,10.428596036659203,0.07620801311913288,3.758392611501625
554,0.9000237223585295,71.1960896928673,10.43563036115878,0.07628337466307869,3.7243960330751023
555,0.9000221509627948,71.1960896928673,10.448401354088352,0.07636782125529838,3.699746082748827
556,0.900020579728037,71.1960896928673,10.463575049244026,0.07644797318875782,3.6825150305626972
557,0.9000190086546014,71.1960896928673,10.477360993714601,0.07651059740540948,3.67062777500867
558,0.9000174377428333,71.1960896928673,10.486107105951625,0.07654514279399531,3.6622272685264985
559,0.900015866993078,71.1960896928673,10.486853956955425,0.07654546603862158,3.6560167198095757
560,0.9000142964056813,71.1960896928673,10.47777357433432,0.07651054097880185,3.651518524595848
561,0.9000127259809887,71.1960896928673,10.45850730529724,0.0764446815082137,3.6492127189483337
562,0.9000111557193452,71.1960896928673,10.430426180068192,0.07635754523055899,3.650533548461002
563,0.9000095856210961,71.1960896928673,10.396744783008529,0.07626370619659571,3.6577045178776357
564,0.9000080156865868,71.1960896928673,10.362346057232056,0.07618159795702374,3.673405992117301
565,0.9000064459161632,71.1960896928673,10.33322595431916,0.07613152374792587,3.7003072564832302
566,0.9000048763101706,71.1960896928673,10.315615707469245,0.0761326360560539,3.7405323535743507
567,0.900003306868955,71.1960896928673,10.314947242534675,0.07619959274153987,3.79514253276802
568,0.9000017375928623,71.1960896928673,10.334813861657196,0.0763396302813588,3.863715386155933
569,0.9000001684822375,71.1960896928673,10.376047810098786,0.0765498160445704,3.9440980520438
570,0.8999985995374261,71.1960896928673,10.436118700912616,0.07681436127117064,4.032405398794573
571,0.8999970307587737,71.1960896928673,10.509179466392512,0.07710405284793788,4.123309897728003
572,0.8999954621466255,71.1960896928673,10.58698121659916,0.07738053683901727,4.210616660739221
573,0.8999938937013271,71.1960896928673,10.660474658641183,0.07760490858729137,4.288035946711615
574,0.8999923254232237,71.1960896928673,10.721573422516338,0.0777470474036645,4.34999314542882
575,0.8999907573126611,71.1960896928673,10.764542071567922,0.0777923960811724,4.392300102871183
576,0.899989189369985,71.1960896928673,10.786658693418405,0.07774408326539442,4.412558962874279
577,0.8999876215955402,71.1960896928673,10.788067031622298,0.07761961446767103,4.410256730118223
578,0.8999860539896719,71.1960896928673,10.771043791283146,0.07744374140845112,4.3866032658901855
579,0.8999844865527257,71.1960896928673,10.739111400714744,0.07724112706743477,4.344226052972295
580,0.8999829192850471,71.1960896928673,10.696368610011554,0.07703196271996864,4.286828731720863
581,0.8999813521869822,71.1960896928673,10.647128317181533,0.07683105647134342,4.218856917579756
582,0.8999797852588766,71.1960896928673,10.59571254953955,0.0766489355504983,4.145153758550399
583,0.8999782185010754,71.1960896928673,10.546259518568958,0.07649360247652721,4.070582232140135
584,0.8999766519139241,71.1960896928673,10.5025082620007,0.07637185793891288,3.9996289105553955
585,0.8999750854977682,71.1960896928673,10.467553268932138,0.07628915173472489,3.936035560422667
586,0.899973519252953,71.1960896928673,10.443550676211332,0.07624817375355707,3.8825089927033267
587,0.8999719531798239,71.1960896928673,10.431428489090257,0.07624768468673536,3.840549501074169
588,0.8999703872787264,71.1960896928673,10.430756027998383,0.07628266354864392,3.8104253937266
589,0.8999688215500059,71.1960896928673,10.43989184194812,0.07634553405883321,3.7912976743512523
590,0.8999672559940082,71.1960896928673,10.456361527701722,0.0764275848154555,3.7814629540863605
591,0.8999656906110787,71.1960896928673,10.477312719541926,0.07651998451137196,3.7786565377345966
592,0.8999641254015626,71.1960896928673,10.4999207594881,0.07661434000454898,3.7803596925399385
593,0.8999625603658055,71.1960896928673,10.521671315766243,0.07670304882740986,3.7840734439041146
594,0.8999609955041525,71.1960896928673,10.540473670616425,0.07677954900032151,3.787537334081392
595,0.8999594308169494,71.1960896928673,10.554610375871373,0.07683828655185736,3.788887980031142
596,0.8999578663045419,71.1960896928673,10.562619579638298,0.07687441461471409,3.786772809175287
597,0.8999563019672755,71.1960896928673,10.5632425670965,0.07688348250110136,3.780441797983412
598,0.8999547378054957,71.1960896928673,10.55548733430944,0.0768613462041483,3.7698227933831814
599,0.8999531738195479,71.1960896928673,10.538749165113655,0.07680467127748837,3.7555648290178
600,0.8999516100097774,71.1960896928673,10.512921596751251,0.07671216699788114,3.7390352625760035
601,0.8999500463765296,71.1960896928673,10.478524603577254,0.07658602454334272,3.722274914424839
602,0.89994848292015,71.1960896928673,10.436921346403079,0.076433070277791,3.707920481000077
603,0.8999469196409839,71.1960896928673,10.390595400143834,0.07626554254212572,3.6990837090156066
604,0.899945356539377,71.1960896928673,10.343327757004356,0.07610115745979969,3.699156932991333
605,0.8999437936156746,71.1960896928673,10.300107784083343,0.07596189024724709,3.7115209200235704
606,0.8999422308702221,71.1960896928673,10.266742879903635,0.07587154855178767,3.739160098538932
607,0.8999406683033648,71.1960896928673,10.249231934370174,0.07585291401013976,3.7842202865341323
608,0.8999391059154487,71.1960896928673,10.252922870255818,0.07592476614224872,3.8475604339702887
609,0.899937543706819,71.1960896928673,10.281422654139098,0.0760980418846122,3.928360419130021
610,0.8999359816778211,71.1960896928673,10.335375941888081,0.07637055792397159,4.023868335024413
611,0.8999344198288006,71.1960896928673,10.41154540617076,0.07672226789079714,4.129391512511523
612,0.8999328581601034,71.1960896928673,10.502772462304282,0.07711532278346898,4.238614887617181
613,0.8999312966720748,71.1960896928673,10.599083859970312,0.07750084853465361,4.344250454704605
614,0.8999297353650603,71.1960896928673,10.689646327110552,0.0778294784563963,4.438915036162249
615,0.8999281742394053,71.1960896928673,10.7649015310117,0.07806133297186799,4.516052769710792
616,0.8999266132954556,71.1960896928673,10.818199429995852,0.07817299832451721,4.570700664840225
617,0.8999250525335569,71.1960896928673,10.846505597912865,0.07816032231347983,4.599947726389273
618,0.8999234919540539,71.1960896928673,10.850161575352136,0.07803661373518868,4.603039577774563
619,0.8999219315572919,71.1960896928673,10.832055934319246,0.07782748794345225,4.5811877945978425
620,0.8999203713436165,71.1960896928673,10.796673111154705,0.0775647427096197,4.5372004151950796
621,0.8999188113133728,71.1960896928673,10.749248212105933,0.07728065142295634,4.47503747487431
622,0.8999172514669066,71.1960896928673,10.695016378737689,0.07700281337418713,4.399359175086202
623,0.8999156918045633,71.1960896928673,10.638610550039749,0.0767504528251681,4.3151167424666
624,0.8999141323266887,71.1960896928673,10.583792373323622,0.0765340810992083,4.227220427314078
625,0.8999125730336283,71.1960896928673,10.53357500500667,0.07635897212046786,4.14028312101294
626,0.8999110139257279,71.1960896928673,10.490508033311123,0.07622966063156876,4.058401951792169
627,0.8999094550033329,71.1960896928673,10.456782700169388,0.07615149119397403,3.9849406444976925
628,0.8999078962667882,71.1960896928673,10.43402010605449,0.07612809387941476,3.9223170838003023
629,0.8999063377164395,71.1960896928673,10.422893340055186,0.07615746918351773,3.8718467105111634
630,0.8999047793526324,71.1960896928673,10.422853676994484,0.07623019198764815,3.8337044362091586
631,0.8999032211757123,71.1960896928673,10.432159415010707,0.0763309445916164,3.8070364894123534
632,0.8999016631860247,71.1960896928673,10.448227211099397,0.07644213961920346,3.7902005685837485
633,0.899900105383915,71.1960896928673,10.468161285480193,0.07654791423349774,3.781073452790851
634,0.8998985477697284,71.1960896928673,10.489261932518158,0.0766372385500095,3.777358662721809
635,0.8998969903438107,71.1960896928673,10.509366373192455,0.07670515187698589,3.7768436040491187
636,0.8998954331065068,71.1960896928673,10.526978695439103,0.07675195235909682,3.7775785683556706
637,0.8998938760581622,71.1960896928673,10.541235092640658,0.0767812646470208,3.7779712388257285
638,0.8998923191991225,71.1960896928673,10.551768088640593,0.07679794719056383,3.7768087098889365
639,0.8998907625297332,71.1960896928673,10.558495507775177,0.07680612788521513,3.7732327336554112
640,0.8998892060503401,71.1960896928673,10.561357444145997,0.07680749864361783,3.766701736105949
641,0.8998876497612885,71.1960896928673,10.560091266826532,0.07680033808294323,3.7569715260999343
642,0.8998860936629243,71.1960896928673,10.554154925422038,0.07677985717540557,3.744110684064755
643,0.899884537755593,71.1960896928673,10.542808869216959,0.07673992512476097,3.7285443119088337
644,0.89988298203964,71.1960896928673,10.525264500948678,0.07667522604255027,3.7111072453898197
645,0.8998814265154107,71.1960896928673,10.500830533567438,0.07658272258733592,3.6930904469663925
646,0.8998798711832507,71.1960896928673,10.469108990584292,0.07646255628846468,3.6762742905986174
647,0.8998783160435057,71.1960896928673,10.43033818494059,0.07631920474632838,3.6629430767707003
648,0.8998767610965211,71.1960896928673,10.385845691114334,0.07616263079185005,3.6558579524009502
649,0.8998752063426423,71.1960896928673,10.338400516946802,0.0760082466038882,3.658147774225029
650,0.8998736517822145,71.1960896928673,10.292257704458093,0.07587520052580692,3.6730842514973596
651,0.8998720974155832,71.1960896928673,10.25288310060686,0.07578380957899884,3.703741370287745
652,0.8998705432430935,71.1960896928673,10.226477295227932,0.075753476109571,3.752572372496265
653,0.899868989265091,71.1960896928673,10.219305486823467,0.07580152931059911,3.820945895757843
654,0.8998674354819212,71.1960896928673,10.236686309001932,0.075941825678634,3.908683766018994
655,0.8998658818939297,71.1960896928673,10.281601849139607,0.07618135869354198,4.013670108907065
656,0.8998643285014618,71.1960896928673,10.353272101687985,0.0765147900349925,4.131648512916688
657,0.8998627753048632,71.1960896928673,10.446365046130653,0.07691975983957931,4.256342509365764
658,0.8998612223044794,71.1960896928673,10.551437025339617,0.07735707698033631,4.3799811303567
659,0.8998596695006559,71.1960896928673,10.656684542568065,0.07777729458572553,4.494188083513094
660,0.8998581168937381,71.1960896928673,10.750428173575047,0.07813078133402203,4.591055120983998
661,0.8998565644840713,71.1960896928673,10.82338690542313,0.07837688827154639,4.664146154252163
662,0.8998550122720008,71.1960896928673,10.87001142954444,0.0784900317401065,4.709212161384315
663,0.8998534602578724,71.1960896928673,10.888711975102437,0.07846258199556229,4.724510072577031
664,0.8998519084420314,71.1960896928673,10.881302847242615,0.07830484487164223,4.710740783727361
665,0.8998503568248234,71.1960896928673,10.852116649882642,0.07804281552439056,4.670691739302585
666,0.8998488054065938,71.1960896928673,10.80701171500656,0.07771403065305871,4.608682316542114
667,0.8998472541876882,71.1960896928673,10.75228772959271,0.07736076975320658,4.529913988160761
668,0.8998457031684518,71.1960896928673,10.693655841198535,0.0770213314515619,4.439847419700586
669,0.8998441523492302,71.1960896928673,10.635598623496364,0.07672306460293588,4.34372504791453
670,0.8998426017303693,71.1960896928673,10.581313837187425,0.07648038778477757,4.246293424807777
671,0.8998410513122146,71.1960896928673,10.533058365230875,0.07629735526540887,4.151684033198522
672,0.8998395010951113,71.1960896928673,10.492504591636468,0.07617195704212151,4.063356499957963
673,0.8998379510794056,71.1960896928673,10.46088028518911,0.07609975252735882,3.9840349518011355
674,0.8998364012654425,71.1960896928673,10.438921850558252,0.07607560712368794,3.9156377993927953
675,0.8998348516535676,71.1960896928673,10.426759524008748,0.07609345999206152,3.8592414683763763
676,0.8998333022441263,71.1960896928673,10.423817614245749,0.07614525330087808,3.8151085127415914
677,0.8998317530374638,71.1960896928673,10.428791278641578,0.07622051322579623,3.782784468239833
678,0.8998302040339252,71.1960896928673,10.439765665065451,0.07630736621959436,3.7612509096137168
679,0.899828655233856,71.1960896928673,10.45448932560743,0.07639464174023008,3.74910878404975
680,0.8998271066376017,71.1960896928673,10.470714785265287,0.07647393444316679,3.7447559740260417
681,0.8998255582455079,71.1960896928673,10.486494082181004,0.07654060616107453,3.746528503497315
682,0.8998240100579201,71.1960896928673,10.500374538606975,0.07659345788835026,3.7527949057719057
683,0.8998224620751839,71.1960896928673,10.511485232775524,0.07663361531708736,3.762014039312073
684,0.8998209142976447,71.1960896928673,10.519510310686272,0.0766634948804294,3.7727769867421466
685,0.8998193667256482,71.1960896928673,10.524561324755938,0.07668624727784916,3.7838484351878865
686,0.8998178193595399,71.1960896928673,10.527010490249992,0.07670534780462797,3.7942077901761615
687,0.8998162721996649,71.1960896928673,10.527369193895293,0.0767239458213897,3.8030820392298716
688,0.899814725246369,71.1960896928673,10.526232606581747,0.07674413491500004,3.8099640075592776
689,0.8998131784999976,71.1960896928673,10.524224311799138,0.07676643948240579,3.814608784556125
690,0.8998116319608966,71.1960896928673,10.521889588972943,0.07678950256872069,3.8170049376057125
691,0.899810085629411,71.1960896928673,10.519596897027842,0.07681010182645204,3.8173348466683024
692,0.8998085395058861,71.1960896928673,10.517539175159948,0.07682388287959822,3.815942864579486
693,0.8998069935906674,71.1960896928673,10.515811428349576,0.07682667880235548,3.813305863942983
694,0.8998054478841004,71.1960896928673,10.514445163429924,0.07681556086757724,3.8099845288605207
695,0.8998039023865307,71.1960896928673,10.51334364445495,0.0767890772305917,3.806552158736887
696,0.8998023570983039,71.1960896928673,10.512217352498677,0.07674721133402591,3.8035261023709546
697,0.8998008120197656,71.1960896928673,10.510662115066491,0.07669188635270213,3.8013294523777508
698,0.8997992671512612,71.1960896928673,10.508369442288283,0.07662786800694152,3.800285852988909
699,0.8997977224931364,71.1960896928673,10.505294938634268,0.07656287881007684,3.8006279561472085
700,0.899796178045736,71.1960896928673,10.501641781303928,0.07650599924388532,3.802502698499631
701,0.8997946338094055,71.1960896928673,10.497712918469515,0.07646501395518751,3.8059763948378107
702,0.8997930897844906,71.1960896928673,10.493811943689652,0.07644443488595509,3.8110531838172785
703,0.8997915459713368,71.1960896928673,10.490272038489904,0.07644502992486157,3.817707852854843
704,0.8997900023702899,71.1960896928673,10.48750912065232,0.07646415380826145,3.8259149636771537
705,0.8997884589816951,71.1960896928673,10.485971195729414,0.07649613540095801,3.8356546106953617
706,0.8997869158058981,71.1960896928673,10.486014723645509,0.07653320652214617,3.846894166208906
707,0.8997853728432444,71.1960896928673,10.487847729081656,0.07656778777422407,3.8595644010539427
708,0.8997838300940797,71.1960896928673,10.491581050174723,0.07659533459062672,3.8735451227148507
709,0.8997822875587493,71.1960896928673,10.497282105253431,0.07661569091650368,3.8886546227459373
710,0.8997807452375983,71.1960896928673,10.504931049571638,0.07663232043980531,3.9046275430721993
711,0.899779203130972,71.1960896928673,10.51431777042429,0.07665100058985186,3.9210829757121504
712,0.8997776612392159,71.1960896928673,10.52500217939544,0.07667930050559368,3.9375067709089095
713,0.8997761195626757,71.1960896928673,10.53637157659834,0.07672588829335737,3.9532664625380094
714,0.8997745781016975,71.1960896928673,10.547694802525811,0.07679788432478665,3.9676497382219824
715,0.8997730368566265,71.1960896928673,10.558076210380966,0.07689641105455317,3.979906419446088
716,0.8997714958278081,71.1960896928673,10.566349803293136,0.07701288122857289,3.9892921817821287
717,0.8997699550155881,71.1960896928673,10.571050377978663,0.07712901154968488,3.9951315998502492
718,0.8997684144203115,71.1960896928673,10.570529727795764,0.07722139571385758,3.9969167744608027
719,0.8997668740423239,71.1960896928673,10.563155068705246,0.07726814060899556,3.994441870166541
720,0.8997653338819703,71.1960896928673,10.547505483393635,0.07725370631326571,3.98795569426096
721,0.8997637939395962,71.1960896928673,10.522579635918701,0.07716995361715227,3.978303525396275
722,0.8997622542155469,71.1960896928673,10.488090655822878,0.07701476499235939,3.9670296167486385
723,0.8997607147101686,71.1960896928673,10.444844186673743,0.07679185798517986,3.956413878356092
724,0.8997591754238067,71.1960896928673,10.395075672344888,0.0765137860400092,3.949413686065081
725,0.8997576363568066,71.1960896928673,10.342613732833756,0.07620561338558184,3.949485824749236
726,0.8997560975095136,71.1960896928673,10.292821075030721,0.07590515829106516,3.9602817281793166
727,0.8997545588822733,71.1960896928673,10.252305485677129,0.07565869547564408,3.9852298089649496
728,0.8997530204754314,71.1960896928673,10.228336924645163,0.07551379418701802,4.027033662410934
729,0.8997514822893332,71.1960896928673,10.227862209107258,0.07551087315082751,4.087132118533416
730,0.8997499443243242,71.1960896928673,10.256097141194612,0.07567413551938561,4.165194424193959
731,0.89974840658075,71.1960896928673,10.314902862942018,0.07600296814065123,4.258757444736825
732,0.899746869058956,71.1960896928673,10.401434572159054,0.07646679918938334,4.363133400800449
733,0.8997453317592877,71.1960896928673,10.507745241885793,0.07700791207430797,4.471699424595471
734,0.8997437946820906,71.1960896928673,10.621895757106332,0.07755410809313687,4.576601207509656
735,0.8997422578277102,71.1960896928673,10.730462327654893,0.0780363780569335,4.669764418318688
736,0.899740721196492,71.1960896928673,10.821469129171222,0.07840296763076399,4.743973016530653
737,0.8997391847887813,71.1960896928673,10.88652923431383,0.07862487076455246,4.793744408367877
738,0.8997376486049237,71.1960896928673,10.92163199105129,0.07869411201087059,4.81583661976705
739,0.8997361126452644,71.1960896928673,10.92688243845819,0.078619320654211,4.80937522631121
740,0.8997345769101491,71.1960896928673,10.905775719065081,0.07842180517463831,4.775676577007385
741,0.8997330413999234,71.1960896928673,10.864229124012704,0.0781318769128212,4.717845730147199
742,0.8997315061149326,71.1960896928673,10.80930694819681,0.07778402434223013,4.6402176069105865
743,0.899729971055522,71.1960896928673,10.747816162221634,0.07741165379324152,4.5477444368161555
744,0.8997284362220368,71.1960896928673,10.68527111152333,0.07704359971784105,4.445464581489654
745,0.8997269016148226,71.1960896928673,10.625570653523814,0.07670343396431671,4.3381483972848764
746,0.8997253672342251,71.1960896928673,10.571226074514511,0.07640988435683908,4.230121342161377
747,0.8997238330805903,71.1960896928673,10.523703580773567,0.07617584327698812,4.125194953204115
748,0.8997222991542637,71.1960896928673,10.483673842337721,0.07600663639392648,4.026638631405716
749,0.8997207654555908,71.1960896928673,10.451275822000422,0.07590055732285354,3.9371610476212187
750,0.8997192319849167,71.1960896928673,10.426475443767584,0.0758520867739559,3.8588879055373027
751,0.8997176987425872,71.1960896928673,10.409362267354902,0.07585492492252345,3.7933242374608276
752,0.8997161657289476,71.1960896928673,10.400162415270009,0.07590259635423334,3.7413002364786117
753,0.8997146329443432,71.1960896928673,10.398969362565143,0.07598732799228243,3.7029216166742587
754,0.8997131003891191,71.1960896928673,10.405421185879048,0.07609921156973204,3.6775586188238
755,0.8997115680636211,71.1960896928673,10.41854371875353,0.07622671745178593,3.66390137536343
756,0.8997100359681945,71.1960896928673,10.436825113500863,0.07635830747482622,3.6600887805431004
757,0.8997085041031853,71.1960896928673,10.45845716827538,0.07648421885770765,3.663893930757733
758,0.8997069724689387,71.1960896928673,10.481623968092766,0.07659754544554337,3.672931987537547
759,0.8997054410658004,71.1960896928673,10.504715678715858,0.07669429501941132,3.6848509240820437
760,0.8997039098941161,71.1960896928673,10.52639016093596,0.07677276685850111,3.6974746294787404
761,0.8997023789542313,71.1960896928673,10.5455023388117,0.07683285015846317,3.708891163604306
762,0.8997008482464914,71.1960896928673,10.560994427594112,0.07687536449931588,3.717502619997581
763,0.8996993177712418,71.1960896928673,10.57181629143217,0.0769011561334813,3.7220601324793168
764,0.8996977875288279,71.1960896928673,10.576879098376665,0.07690998956580279,3.7217018911652473
765,0.899696257519595,71.1960896928673,10.575034156212597,0.07689969851565485,3.7160087115867353
766,0.8996947277438887,71.1960896928673,10.565124103197387,0.07686615295029117,3.705089074295446
767,0.8996931982020543,71.1960896928673,10.546181439691136,0.07680441822833114,3.6896886443753085
768,0.8996916688944372,71.1960896928673,10.517772938470971,0.07671082209055112,3.671290320624699
769,0.8996901398213832,71.1960896928673,10.480371114418677,0.07658493377739334,3.652153985673768
770,0.8996886109832378,71.1960896928673,10.435609296748943,0.07643083177277851,3.6352561928062914
771,0.8996870823803461,71.1960896928673,10.386380750428556,0.0762580471081113,3.6241193412257386
772,0.8996855540130532,71.1960896928673,10.336829124064003,0.07608246525833341,3.6225428086138436
773,0.8996840258817048,71.1960896928673,10.292215957529416,0.07592649680084415,3.634250145846186
774,0.8996824979866467,71.1960896928673,10.258540563182368,0.075817416238372,3.6624620366688623
775,0.8996809703282245,71.1960896928673,10.24180777894272,0.07578312984034537,3.709422037595319
776,0.8996794429067839,71.1960896928673,10.247009793820993,0.07584595315153429,3.775939033838934
777,0.8996779157226705,71.1960896928673,10.277039316512704,0.0760165242010836,3.861032031429448
778,0.8996763887762298,71.1960896928673,10.331766949168653,0.07628967803864578,3.9617531931962437
779,0.899674862067807,71.1960896928673,10.407513100427582,0.07664289928584932,4.0732479032326125
780,0.8996733355977474,71.1960896928673,10.497193767342774,0.077038166076189,4.18909768044857
781,0.8996718093663968,71.1960896928673,10.591336651192217,0.07742797266947067,4.301951778561755
782,0.8996702833741004,71.1960896928673,10.67980534197764,0.07776433576570968,4.40436649806474
783,0.899668757621204,71.1960896928673,10.75367467485447,0.07800785227028863,4.489685099086602
784,0.8996672321080529,71.1960896928673,10.806674277980923,0.07813434376836226,4.5527759243826
785,0.8996657068349925,71.1960896928673,10.835912172941155,0.07813818642459047,4.590502194124713
786,0.8996641818023682,71.1960896928673,10.841822936580922,0.07803206815095909,4.601869221833822
787,0.8996626570105257,71.1960896928673,10.827421623472615,0.07784280371544605,4.5878620504801155
788,0.8996611324598105,71.1960896928673,10.797156048550972,0.07760388654085341,4.551056575227848
789,0.8996596081505681,71.1960896928673,10.755814062724458,0.07734737809387361,4.495136551796549
790,0.899658084083144,71.1960896928673,10.707840424510096,0.07709806610698038,4.424437789681828
791,0.8996565602578838,71.1960896928673,10.657090758000502,0.07687112252708572,4.3435763020546325
792,0.8996550366751331,71.1960896928673,10.606808385443243,0.07667304382201887,4.2571564942358116
793,0.8996535133352374,71.1960896928673,10.559661055391167,0.07650517188559844,4.169537581935752
794,0.8996519902385418,71.1960896928673,10.51782388958224,0.07636808821543209,4.084644061295344
795,0.899650467385392,71.1960896928673,10.483090781659381,0.07626433888822627,4.005810492703555
796,0.8996489447761334,71.1960896928673,10.456894116320363,0.07619806529921,3.935650351782678
797,0.8996474224111115,71.1960896928673,10.440133697475744,0.07617243203065745,3.875946575896943
798,0.8996459002906717,71.1960896928673,10.432907161940618,0.07618713679309631,3.827583087545855
799,0.8996443784151594,71.1960896928673,10.434357858859757,0.07623759021420634,3.790552998745956
800,0.89964285678492,71.1960896928673,10.442766508631037,0.07631568828222357,3.76406559901993
801,0.8996413354002989,71.1960896928673,10.455864405754252,0.07641142738354659,3.7467389649936993
802,0.8996398142616416,71.1960896928673,10.471266173706864,0.07651477928657521,3.736837182319953
803,0.8996382933692938,71.1960896928673,10.486882073746056,0.0766171737254213,3.732501912277203
804,0.8996367727236013,71.1960896928673,10.501170749804528,0.07671189841167796,3.7319366612234286
805,0.8996352523249097,71.1960896928673,10.513174202248187,0.0767933915225495,3.733529464597989
806,0.8996337321735645,71.1960896928673,10.52241245935453,0.07685641194565135,3.7359284424459327
807,0.8996322122699106,71.1960896928673,10.528780777234022,0.07689615887670558,3.7380871088639327
808,0.8996306926142937,71.1960896928673,10.532502827094781,0.07690924749061875,3.7392776374537435
809,0.8996291732070592,71.1960896928673,10.534050857643827,0.07689451362434688,3.739062206009023
810,0.8996276540485525,71.1960896928673,10.533939761337447,0.07685297327020263,3.737228342642988
811,0.8996261351391194,71.1960896928673,10.532464796332324,0.07678731620027233,3.7337183366072684
812,0.8996246164791053,71.1960896928673,10.529556439696762,0.07670182535089635,3.728587534769391
813,0.8996230980688554,71.1960896928673,10.524803212750015,0.0766029100289601,3.722000994752118
814,0.8996215799087155,71.1960896928673,10.51751393882876,0.07649924519521113,3.714250807660486
815,0.8996200619990311,71.1960896928673,10.506714838830623,0.07640029222008775,3.7057816972756052
816,0.899618544340148,71.1960896928673,10.491178554100994,0.07631345860512291,3.6972395558638786
817,0.8996170269324117,71.1960896928673,10.469665689678925,0.0762418476511372,3.6895620687716484
818,0.899615509776168,71.1960896928673,10.441386293562335,0.0761841880871893,3.6840957022721574
819,0.8996139928717617,71.1960896928673,10.406483160016014,0.07613654877680626,3.6826831973618903
820,0.8996124762195382,71.1960896928673,10.366345992471201,0.0760943778570203,3.6876627459293254
821,0.8996109598198428,71.1960896928673,10.323751799671093,0.0760545668271937,3.7017563603497
822,0.8996094436730211,71.1960896928673,10.282920999920282,0.07601848984253451,3.727856658336259
823,0.8996079277794186,71.1960896928673,10.24943235095171,0.07599548040672055,3.7687151149811307
824,0.8996064121393805,71.1960896928673,10.229775629943187,0.07600389411940581,3.826524138113558
825,0.8996048967532527,71.1960896928673,10.230392217076648,0.07606754681936923,3.902419417079272
826,0.8996033816213808,71.1960896928673,10.256314676569456,0.076208411376954,3.9959901736479617
827,0.8996018667441102,71.1960896928673,10.30972835272158,0.07643855887254943,4.104916330690242
828,0.8996003521217864,71.1960896928673,10.388836878233272,0.07675391445342966,4.224840690352296
829,0.8995988377547549,71.1960896928673,10.487446305207541,0.07713165988246554,4.34955711111889
830,0.8995973236433612,71.1960896928673,10.595646386212486,0.07753315863532148,4.471550553762339
831,0.8995958097879508,71.1960896928673,10.701605212346896,0.07791219925380619,4.58283907900438
832,0.8995942961888693,71.1960896928673,10.79390483027573,0.07822455397506184,4.675960307890182
833,0.899592782846462,71.1960896928673,10.863577594505635,0.07843480654711137,4.744884103103318
834,0.8995912697610747,71.1960896928673,10.90534178310233,0.07852048287986774,4.7856683890917
835,0.8995897569330527,71.1960896928673,10.918014995634485,0.07847522155710157,4.796767364621844
836,0.8995882443627415,71.1960896928673,10.904177602068993,0.07831010515897585,4.778977619709079
837,0.8995867320504871,71.1960896928673,10.869119090761858,0.07805102290503192,4.735065188046136
838,0.8995852199966348,71.1960896928673,10.819341613624195,0.07773245140420104,4.669185310059316
839,0.89958370820153,71.1960896928673,10.761179705585525,0.077390484940452,4.586257346721792
840,0.8995821966655179,71.1960896928673,10.699993433270684,0.07705759257985138,4.4914364639345
841,0.8995806853889436,71.1960896928673,10.639938656388294,0.0767591732073673,4.389739594587752
842,0.8995791743721531,71.1960896928673,10.584003116053944,0.07651086093552031,4.285807955099764
843,0.8995776636154913,71.1960896928673,10.53412413702033,0.07631749164856125,4.183769133444077
844,0.8995761531193042,71.1960896928673,10.491441721847709,0.07617582064861415,4.087169289738304
845,0.8995746428839371,71.1960896928673,10.456699990838212,0.07608027964055956,3.9989424598953973
846,0.8995731329097355,71.1960896928673,10.430588058202442,0.076027592609912,3.9213779117494187
847,0.8995716231970449,71.1960896928673,10.413764959879463,0.07601691435333864,3.8560616810934154
848,0.8995701137462107,71.1960896928673,10.406563398557633,0.07604660594132838,3.8038035540075468
849,0.8995686045575787,71.1960896928673,10.408624701900095,0.07611132247847456,3.764590176480194
850,0.8995670956314947,71.1960896928673,10.418724909583847,0.07620161707493275,3.737608193395443
851,0.8995655869683042,71.1960896928673,10.434889881464825,0.0763057745238221,3.721357955159606
852,0.8995640785683529,71.1960896928673,10.454739173094485,0.0764125974794833,3.713844734886979
853,0.8995625704319861,71.1960896928673,10.475914940214,0.07651395574604652,3.7128129948574444
854,0.8995610625595493,71.1960896928673,10.496434842165863,0.07660595414114045,3.7159833906313064
855,0.8995595549513878,71.1960896928673,10.514858961698053,0.07668809508326267,3.7212522257756016
856,0.8995580476078471,71.1960896928673,10.53028348957405,0.07676131954068068,3.7268247629814857
857,0.8995565405292723,71.1960896928673,10.542262960495329,0.07682642227278162,3.731279340169968
858,0.8995550337160085,71.1960896928673,10.550719506336463,0.07688305740428109,3.733577277716594
859,0.8995535271684019,71.1960896928673,10.55580618610162,0.07692875149388792,3.7330345270477556
860,0.8995520208867978,71.1960896928673,10.557699509884277,0.07695827260312485,3.7292728456950313
861,0.8995505148715417,71.1960896928673,10.556400307420514,0.0769643502738556,3.7221765287698987
862,0.8995490091229791,71.1960896928673,10.551656195584812,0.07693988053495136,3.7118765624433663
863,0.8995475036414552,71.1960896928673,10.54300759025005,0.07688043599971187,3.698763105759572
864,0.8995459984273153,71.1960896928673,10.529854918000899,0.0767854578514044,3.6835100060588704
865,0.8995444934809055,71.1960896928673,10.511490051443229,0.076657636230543,3.6670982602283426
866,0.899542988802571,71.1960896928673,10.487173088556503,0.07650183719279295,3.6508438011568773
867,0.899541484392658,71.1960896928673,10.45638320362575,0.07632524898788656,3.636441681329166
868,0.8995399802515118,71.1960896928673,10.419241184127145,0.07613865053358423,3.6260132430901417
869,0.8995384763794779,71.1960896928673,10.376929475256897,0.0759569987905865,3.622108463242497
870,0.8995369727769016,71.1960896928673,10.331922522710302,0.07579796071855995,3.6276145439042558
871,0.8995354694441281,71.1960896928673,10.288005821022372,0.07567926708042144,3.6455567606465493
872,0.8995339663815031,71.1960896928673,10.250175572250686,0.0756170526013699,3.6788088120787896
873,0.899532463589372,71.1960896928673,10.224386504988741,0.07562577627289993,3.729729377033791
874,0.8995309610680805,71.1960896928673,10.216934608214181,0.07571802525052732,3.799732159840966
875,0.8995294588179743,71.1960896928673,10.233325013329107,0.07590255447431966,3.8888217863354035
876,0.8995279568393987,71.1960896928673,10.276789262715537,0.07618073792067852,3.995186463332057
877,0.8995264551326995,71.1960896928673,10.346905813220816,0.0765425507185149,4.114978878368185
878,0.8995249536982225,71.1960896928673,10.43886211105376,0.0769635999976584,4.242403349109948
879,0.8995234525363132,71.1960896928673,10.543803515935979,0.07740593763636909,4.370167732376516
880,0.8995219516473164,71.1960896928673,10.650383555608336,0.07782433223829079,4.490265512118086
881,0.8995204510315777,71.1960896928673,10.747063262426558,0.07817531041476695,4.594943457318394
882,0.8995189506894423,71.1960896928673,10.824304616687204,0.07842441575564384,4.677636920340734
883,0.8995174506212558,71.1960896928673,10.87596283936796,0.07855004504955636,4.733673296611767
884,0.899515950827364,71.1960896928673,10.8997460474494,0.07854513700168332,4.760642906554519
885,0.8995144513081124,71.1960896928673,10.896989421801083,0.07841772694113847,4.758437068840171
886,0.8995129520638458,71.1960896928673,10.871911861391183,0.07818959040599088,4.728997650358639
887,0.8995114530949101,71.1960896928673,10.83041471778283,0.07789196429971261,4.675843576409563
888,0.8995099544016506,71.1960896928673,10.778692418321915,0.07755922163854732,4.603484442890653
889,0.8995084559844128,71.1960896928673,10.722139625708314,0.07722297736906622,4.516863721505441
890,0.8995069578435425,71.1960896928673,10.664885464517779,0.07690850288578488,4.420937763351965
891,0.8995054599793854,71.1960896928673,10.609862773091844,0.07663327401541958,4.320411078872787
892,0.8995039623922866,71.1960896928673,10.559070892237262,0.0764066454774714,4.219584464215688
893,0.8995024650825914,71.1960896928673,10.51383511873611,0.0762308573027616,4.122266512391389
894,0.8995009680506455,71.1960896928673,10.475082902606779,0.07610390984719168,4.031719406651903
895,0.8994994712967945,71.1960896928673,10.443629523600183,0.07602311284347693,3.950616650465732
896,0.899497974821384,71.1960896928673,10.420316433853577,0.07598702035440497,3.880988505122568
897,0.8994964786247598,71.1960896928673,10.40586229634056,0.07599461266353533,3.8241466597346068
898,0.8994949827072672,71.1960896928673,10.400519115804952,0.07604287707874373,3.780614055088291
899,0.8994934870692519,71.1960896928673,10.403796355989375,0.07612509245842088,3.7501076744394424
900,0.8994919917110592,71.1960896928673,10.414435078343072,0.0762310131282852,3.731608124492385
901,0.8994904966330343,71.1960896928673,10.430626395710144,0.07634852151336997,3.7235139590706026
902,0.899489001835523,71.1960896928673,10.450353475454287,0.07646582590804875,3.7238477572589086
903,0.8994875073188713,71.1960896928673,10.471716613554822,0.07657341029874683,3.7304666718684714
904,0.8994860130834245,71.1960896928673,10.49313666596571,0.07666512981159543,3.7412351884170123
905,0.8994845191295276,71.1960896928673,10.513407150329748,0.07673828266125013,3.7541411670241294
906,0.8994830254575266,71.1960896928673,10.531655023530167,0.07679308131712881,3.7673654672713908
907,0.8994815320677666,71.1960896928673,10.547295184839095,0.07683203439220825,3.779329256427717
908,0.899480038960593,71.1960896928673,10.559993449295344,0.07685918696831343,3.7887301460432328
909,0.8994785461363515,71.1960896928673,10.569578118058192,0.07687887454499043,3.7945567987750692
910,0.8994770535953873,71.1960896928673,10.575864349396952,0.07689411481627509,3.796075872504282
911,0.8994755613380458,71.1960896928673,10.578462377020077,0.07690520145178362,3.792814496173862
912,0.8994740693646723,71.1960896928673,10.576691039204547,0.07690899492412223,3.7845731698235383
913,0.8994725776756128,71.1960896928673,10.569637167862899,0.07689922000474213,3.771479610213627
914,0.8994710862712127,71.1960896928673,10.556292876221152,0.07686772194644023,3.75406537930627
915,0.8994695951518176,71.1960896928673,10.535700709946255,0.07680615222504232,3.733343516965755
916,0.8994681043177727,71.1960896928673,10.507141683491502,0.07670775760519481,3.710878691326677
917,0.8994666137694237,71.1960896928673,10.470453684264742,0.07656949939359296,3.688843626292283
918,0.8994651235071162,71.1960896928673,10.426455519853818,0.07639443892682321,3.6700350033348528
919,0.8994636335311955,71.1960896928673,10.377304968818358,0.07619350677035082,3.657800358440423
920,0.8994621438420074,71.1960896928673,10.326623673699578,0.07598571290701862,3.6558369024289474
921,0.8994606544398975,71.1960896928673,10.279369647648808,0.0757967663081722,3.6678644300623473
922,0.8994591653252115,71.1960896928673,10.24152659813946,0.07565664900938271,3.697208650331568
923,0.8994576764982948,71.1960896928673,10.219579243020249,0.07559614558462925,3.7463319199536236
924,0.8994561879594926,71.1960896928673,10.219626133507884,0.07564190178311421,3.8163425458219002
925,0.8994546997091506,71.1960896928673,10.246086912791515,0.07581027992068998,3.9065402011584593
926,0.8994532117476145,71.1960896928673,10.300271158085389,0.07610138364940874,4.014102610593457
927,0.8994517240752298,71.1960896928673,10.379335095551186,0.07649544248716314,4.134037916030209
928,0.8994502366923417,71.1960896928673,10.47615444854645,0.07695393444126677,4.259492564043308
929,0.8994487495992953,71.1960896928673,10.58037137278741,0.07742616706386907,4.382427127916376
930,0.899447262796436,71.1960896928673,10.680396340400856,0.07785875043979301,4.494564866297137
931,0.8994457762841096,71.1960896928673,10.765685165918702,0.07820414197442362,4.588414991846495
932,0.8994442900626617,71.1960896928673,10.828520434360533,0.07842664757473292,4.6581428840594326
933,0.899442804132438,71.1960896928673,10.8648735694265,0.07850636869233323,4.700126795338545
934,0.899441318493784,71.1960896928673,10.874409951465045,0.07844165169450867,4.713151969418619
935,0.8994398331470447,71.1960896928673,10.859950263691342,0.078249737785895,4.698281024143367
936,0.8994383480925658,71.1960896928673,10.826586702903656,0.07796420800056378,4.658475772062212
937,0.8994368633306933,71.1960896928673,10.780511623781155,0.0776280778832331,4.59805145915421
938,0.8994353788617725,71.1960896928673,10.727771040005093,0.0772841428446128,4.522058685474551
939,0.899433894686149,71.1960896928673,10.67335441238615,0.07696661100805187,4.435711940441415
940,0.8994324108041684,71.1960896928673,10.620895121076712,0.07669721352563359,4.343968715280034
941,0.8994309272161759,71.1960896928673,10.572861420046085,0.07648579138236429,4.251286208466738
942,0.8994294439225171,71.1960896928673,10.530889756353323,0.07633318839367849,4.1615023269091385
943,0.8994279609235377,71.1960896928673,10.496045553547058,0.07623470486533743,4.077770049472511
944,0.8994264782195828,71.1960896928673,10.469002823718021,0.07618336556549571,4.002506727866204
945,0.8994249958109977,71.1960896928673,10.45015396030005,0.07617222004760182,3.937353736990844
946,0.8994235136981278,71.1960896928673,10.439596147803728,0.076194960250617,3.8831579753744023
947,0.8994220318813188,71.1960896928673,10.436980171520634,0.07624508687067685,3.839991500901661
948,0.8994205503609162,71.1960896928673,10.441343810033008,0.07631469657675759,3.8072249187757543
949,0.8994190691372657,71.1960896928673,10.451096507715913,0.07639392680232322,3.78366294309494
950,0.8994175882107125,71.1960896928673,10.464207158153581,0.07647162000925062,3.7677356597998877
951,0.8994161075816027,71.1960896928673,10.47852154291387,0.07653725188642381,3.7577199653360265
952,0.8994146272502819,71.1960896928673,10.492099428414637,0.07658342374665059,3.7519531149350365
953,0.8994131472170954,71.1960896928673,10.503477672685976,0.07660768601063714,3.749003072012022
954,0.8994116674823888,71.1960896928673,10.511798292139932,0.07661282336854808,3.7477733416774917
955,0.8994101880465071,71.1960896928673,10.516793999456645,0.07660559982835048,3.7475367160214614
956,0.8994087089097961,71.1960896928673,10.5186878100385,0.0765946800303129,3.74791199697297
957,0.8994072300726014,71.1960896928673,10.518084053358555,0.07658868693199912,3.7488084573435834
958,0.8994057515352687,71.1960896928673,10.5158807983991,0.07659488825346812,3.7503511663914084
959,0.8994042732981434,71.1960896928673,10.513168219550009,0.07661826925487276,3.752782207452391
960,0.899402795361571,71.1960896928673,10.511067638929255,0.07666061518995922,3.7563381938068483
961,0.8994013177258968,71.1960896928673,10.510540025423278,0.0767198468283203,3.761128955256933
962,0.8993998403914664,71.1960896928673,10.512254140033024,0.07679023301636957,3.7670501926209856
963,0.8993983633586251,71.1960896928673,10.516543383030053,0.07686354157180411,3.7737432662722137
964,0.8993968866277186,71.1960896928673,10.523372221113963,0.07693049569944811,3.780596061307155
965,0.8993954101990923,71.1960896928673,10.532238099567941,0.07698184874166955,3.786779724031444
966,0.8993939340730919,71.1960896928673,10.542069176408303,0.07700896249448101,3.791323600422913
967,0.8993924582500629,71.1960896928673,10.551264024297236,0.07700452631756052,3.793227776176591
968,0.8993909827303506,71.1960896928673,10.55792537415123,0.07696390724457473,3.791603199550229
969,0.8993895075143005,71.1960896928673,10.560184876688655,0.07688658143930756,3.785821753038032
970,0.8993880326022576,71.1960896928673,10.556451376552863,0.07677658580648125,3.775653847182161
971,0.8993865579945678,71.1960896928673,10.545484062552488,0.07664147523742977,3.761377178707591
972,0.8993850836915767,71.1960896928673,10.526370435167411,0.07649042441521993,3.743855984136711
973,0.8993836096936297,71.1960896928673,10.498593973706901,0.07633288420849713,3.7245926537223117
974,0.8993821360010726,71.1960896928673,10.462258838191776,0.07617838690151207,3.7057401576420617
975,0.899380662614251,71.1960896928673,10.418353746066158,0.07603639885142251,3.6900568478649776
976,0.8993791895335101,71.1960896928673,10.368920656375717,0.07591514905787605,3.6807925502820016
977,0.8993777167591959,71.1960896928673,10.3171494378278,0.0758206593622195,3.6815075063645457
978,0.8993762442916537,71.1960896928673,10.26749005617455,0.0757581282332202,3.6958292865688844
979,0.899374772131229,71.1960896928673,10.225693264739359,0.07573520468828353,3.7271379706785046
980,0.8993733002782669,71.1960896928673,10.198495011434401,0.07576420354398535,3.7781579975797266
981,0.899371828733113,71.1960896928673,10.19274600633346,0.07586108652889285,3.8504629373177717
982,0.8993703574961132,71.1960896928673,10.2140839273716,0.0760411235213969,3.943964006204753
983,0.8993688865676124,71.1960896928673,10.265450584965171,0.07631228673635025,4.056504593145849
984,0.8993674159479563,71.1960896928673,10.345792840444398,0.07666848384917704,4.183687783883795
985,0.8993659456374904,71.1960896928673,10.44935728513282,0.0770861250697714,4.319035257960875
986,0.8993644756365602,71.1960896928673,10.566065410074364,0.077526545060732,4.454522895165316
987,0.8993630059455117,71.1960896928673,10.683179224809502,0.0779431874814572,4.581445533406836
988,0.8993615365646901,71.1960896928673,10.787803672667224,0.0782903948157512,4.691449756393398
989,0.899360067494441,71.1960896928673,10.86931057094241,0.07853152984101266,4.777511167860245
990,0.8993585987351098,71.1960896928673,10.920991098133445,0.07864514400071908,4.834668981980923
991,0.8993571302870423,71.1960896928673,10.940760349600458,0.078627680601846,4.860423644901681
992,0.899355662150584,71.1960896928673,10.93092136968738,0.07849158319098186,4.854776077166085
993,0.8993541943260808,71.1960896928673,10.897030421892246,0.07825989666213001,4.819934993146513
994,0.899352726813878,71.1960896928673,10.846211144880572,0.07796037453760858,4.759783318757665
995,0.8993512596143208,71.1960896928673,10.78557800397604,0.07762158753630219,4.6792557334715745
996,0.8993497927277548,71.1960896928673,10.721283020334742,0.07727140738275692,4.5837706741853355
997,0.8993483261545252,71.1960896928673,10.658174346155086,0.07693608868143668,4.478782224064105
998,0.8993468598949775,71.1960896928673,10.599721220797242,0.07663779881481718,4.369449363369859
999,0.8993453939494575,71.1960896928673,10.548028331474763,0.07639103333088812,4.260410262761763
1000,0.8993439283183102,71.1960896928673,10.504046499109773,0.07620111500968843,4.155659801065019
1001,0.8993424630018813,71.1960896928673,10.468046737052106,0.0760668577152707,4.058510387736891
1002,0.8993409980005164,71.1960896928673,10.440148425349832,0.07598524285179525,3.971582513255099
1003,0.899339533314561,71.1960896928673,10.420578333066265,0.07595395526754382,3.8967735160753287
1004,0.8993380689443607,71.1960896928673,10.409555986192766,0.07597038637759264,3.835201654726963
1005,0.899336604890261,71.1960896928673,10.406977971843157,0.07602918333913565,3.7871681359958127
1006,0.8993351411526073,71.1960896928673,10.412151495544261,0.07612080779576255,3.7521833471992005
1007,0.8993336777317448,71.1960896928673,10.423741175959501,0.07623204480675491,3.729072936293561
1008,0.8993322146280193,71.1960896928673,10.439950171493729,0.07634817672762731,3.7161433409298685
1009,0.8993307518417768,71.1960896928673,10.458842174158352,0.07645600310515513,3.7113729070423203
1010,0.8993292893733631,71.1960896928673,10.478664141594887,0.07654661096052008,3.7126020074267325
1011,0.8993278272231238,71.1960896928673,10.498046188275925,0.07661685471846284,3.717698678010262
1012,0.8993263653914042,71.1960896928673,10.516038303704093,0.07666911977161574,3.7246779313360427
1013,0.8993249038785497,71.1960896928673,10.532037380636927,0.07670952916320778,3.731770437137322
1014,0.8993234426849057,71.1960896928673,10.545668819638305,0.07674515157172021,3.7374565071166237
1015,0.8993219818108176,71.1960896928673,10.55663667628674,0.07678123579112106,3.7404844722931245
1016,0.8993205212566308,71.1960896928673,10.564553934106186,0.07681943061409029,3.7398865685831617
1017,0.8993190610226903,71.1960896928673,10.56882504276335,0.0768573467832979,3.7350042875380183
1018,0.8993176011093418,71.1960896928673,10.568658863512322,0.07688935421175917,3.725533424857075
1019,0.8993161415169308,71.1960896928673,10.563187662595485,0.07690803307391335,3.7115846203887086
1020,0.8993146822458031,71.1960896928673,10.551576733827536,0.07690522964709659,3.693736401188325
1021,0.8993132232963039,71.1960896928673,10.533060207233241,0.0768721764463646,3.6730605236087666
1022,0.8993117646687788,71.1960896928673,10.506995246350984,0.0767997537956096,3.6511247465371315
1023,0.8993103063635736,71.1960896928673,10.47309334427888,0.07668064796937647,3.629991735983404
1024,0.8993088483810339,71.1960896928673,10.43184597343672,0.07651332534399827,3.6122134311294825
1025,0.8993073907215055,71.1960896928673,10.384956507585626,0.07630542292603029,3.600788437993769
1026,0.8993059333853335,71.1960896928673,10.335560953655483,0.0760745302286783,3.5990419925471047
1027,0.8993044763728636,71.1960896928673,10.288193238792962,0.07584678925947531,3.610410035612242
1028,0.8993030196844412,71.1960896928673,10.24856684536302,0.07565470822433058,3.638128573734427
1029,0.8993015633204118,71.1960896928673,10.223138190541295,0.0755342750026789,3.6848297483964187
1030,0.8993001072811213,71.1960896928673,10.218284293624297,0.07552022469887716,3.7520552471621555
1031,0.8992986515669148,71.1960896928673,10.239017855638195,0.07563872548058082,3.8397422064621267
1032,0.8992971961781376,71.1960896928673,10.287477439842531,0.07589892843657187,3.9457988358024845
1033,0.8992957411151353,71.1960896928673,10.361722128573412,0.0762870585879928,4.065919748326289
1034,0.8992942863782534,71.1960896928673,10.455394683113592,0.07676624669568234,4.193763363908717
1035,0.8992928319678376,71.1960896928673,10.558577395894394,0.07728247678386124,4.321530836957576
1036,0.8992913778842336,71.1960896928673,10.659705147136695,0.07777463853567214,4.4408700836351676
1037,0.899289924127787,71.1960896928673,10.747897568205705,0.07818565283402659,4.543917875449574
1038,0.8992884706988432,71.1960896928673,10.814893118912737,0.07847151286014802,4.624245599815412
1039,0.8992870175977481,71.1960896928673,10.85607060648868,0.07860636702562118,4.677522377514286
1040,0.8992855648248468,71.1960896928673,10.870567260762533,0.07858422487336483,4.701816423070542
1041,0.8992841123804844,71.1960896928673,10.8607993833662,0.07841877233113688,4.697548032509345
1042,0.8992826602650064,71.1960896928673,10.8315898474386,0.0781410763512481,4.667152488581794
1043,0.8992812084787581,71.1960896928673,10.788980065698913,0.07779380891621884,4.614538999784212
1044,0.8992797570220855,71.1960896928673,10.73896552579138,0.07742242991169247,4.544465808676476
1045,0.8992783058953341,71.1960896928673,10.686570824639084,0.07706652769689443,4.461964456461794
1046,0.8992768550988496,71.1960896928673,10.635525469276162,0.07675469232683528,4.371908183622021
1047,0.8992754046329778,71.1960896928673,10.588408704812204,0.07650347204962359,4.278745793427811
1048,0.8992739544980644,71.1960896928673,10.5469189177474,0.07631863628570405,4.1863628023551485
1049,0.8992725046944546,71.1960896928673,10.512089941349858,0.07619749176959366,4.098017599725097
1050,0.899271055222494,71.1960896928673,10.484496188393525,0.07613228279828785,4.016312069205341
1051,0.8992696060825274,71.1960896928673,10.464452852782117,0.07611415403802713,3.9431668967822584
1052,0.8992681572749003,71.1960896928673,10.452073301177988,0.07613566045408517,3.8797875085080857
1053,0.8992667087999582,71.1960896928673,10.447084023930593,0.0761902983163095,3.8266367596133675
1054,0.8992652606580469,71.1960896928673,10.44852614163482,0.07627018426104308,3.7834563538032633
1055,0.8992638128495122,71.1960896928673,10.454597589626225,0.07636440896019937,3.749373411358981
1056,0.8992623653746996,71.1960896928673,10.462762561842409,0.07645924265472316,3.723095440927511
1057,0.8992609182339546,71.1960896928673,10.470078690355935,0.07653971578992383,3.7031668987306605
1058,0.8992594714276227,71.1960896928673,10.473644293868222,0.0765919020662772,3.6882507822062807
1059,0.8992580249560496,71.1960896928673,10.471084218637225,0.07660548088561582,3.677399738045284
1060,0.8992565788195808,71.1960896928673,10.460994376662965,0.07657600285220856,3.6702797865179613
1061,0.8992551330185617,71.1960896928673,10.443280466784843,0.07650629308275962,3.667308112885495
1062,0.8992536875533378,71.1960896928673,10.419366737964214,0.0764067232979177,3.669672960833024
1063,0.8992522424242541,71.1960896928673,10.392253556871214,0.07629438335427854,3.679215275496971
1064,0.8992507976316559,71.1960896928673,10.366347018311517,0.07619141412128505,3.6981607920926973
1065,0.8992493531758892,71.1960896928673,10.346954192304597,0.0761224688586538,3.7287054644559707
1066,0.8992479090572996,71.1960896928673,10.339421000361757,0.07611095238676732,3.7724921638072844
1067,0.8992464652762325,71.1960896928673,10.348060111902996,0.07617450386785786,3.830069279708393
1068,0.8992450218330337,71.1960896928673,10.375132187348989,0.07632090690826897,3.900460601362886
1069,0.8992435787280487,71.1960896928673,10.420120443299453,0.07654479149823655,3.9809685855118655
1070,0.8992421359616233,71.1960896928673,10.479480327104453,0.07682547429174072,4.067283339360592
1071,0.8992406935341027,71.1960896928673,10.547030086909704,0.0771282511644935,4.153903072711642
1072,0.8992392514458326,71.1960896928673,10.615033032040888,0.07741110304150446,4.234799492191113
1073,0.8992378096971587,71.1960896928673,10.675716399146562,0.07763469109615499,4.304192829965783
1074,0.8992363682884266,71.1960896928673,10.72271676428345,0.07777117244642624,4.357270435515033
1075,0.8992349272199814,71.1960896928673,10.752027661339035,0.07780909573196823,4.39071543921754
1076,0.8992334864921688,71.1960896928673,10.762319212735976,0.0777537836398582,4.40298005791539
1077,0.8992320461053341,71.1960896928673,10.754684869924391,0.07762347312787948,4.394297763680141
1078,0.8992306060598226,71.1960896928673,10.73196651471915,0.07744261189020359,4.366475291969691
1079,0.8992291663559798,71.1960896928673,10.697940224230921,0.07723518295559323,4.322546438801392
1080,0.8992277269941513,71.1960896928673,10.656686492937242,0.07702098678652738,4.266381480655402
1081,0.8992262879746828,71.1960896928673,10.612297765793983,0.07681571458177193,4.202309036239934
1082,0.8992248492979199,71.1960896928673,10.568793815700559,0.07663290224706001,4.134750626677671
1083,0.899223410964208,71.1960896928673,10.529973382709336,0.07648505255380128,4.06784867421782
1084,0.8992219729738926,71.1960896928673,10.499062377922902,0.0763827556569381,4.005101896737629
1085,0.8992205353273195,71.1960896928673,10.478238876939791,0.07633228346422873,3.94906168062691
1086,0.8992190980248339,71.1960896928673,10.468212281851642,0.07633298225218285,3.901147951525511
1087,0.8992176610667817,71.1960896928673,10.468023879409216,0.07637613795371098,3.861623068003324
1088,0.8992162244535084,71.1960896928673,10.47517295945659,0.0764462598052425,3.829736157362466
1089,0.8992147881853594,71.1960896928673,10.48605651154934,0.07652429850338516,3.8040157999223125
1090,0.8992133522626802,71.1960896928673,10.496587992728713,0.07659139342869459,3.7826533335325085
1091,0.8992119166858165,71.1960896928673,10.502831154952812,0.07663189009666423,3.7639091273408214
1092,0.8992104814551133,71.1960896928673,10.501567442721834,0.07663541569440602,3.746491546999058
1093,0.899209046570916,71.1960896928673,10.490787778551928,0.07659831824518475,3.7298712476281093
1094,0.8992076120335705,71.1960896928673,10.470075481361077,0.07652415510113551,3.7144901413218716
1095,0.8992061778434223,71.1960896928673,10.440795643836179,0.07642285952126747,3.7018242046032594
1096,0.8992047440008173,71.1960896928673,10.406028202470221,0.0763091611292155,3.6942758689380604
1097,0.8992033105061007,71.1960896928673,10.370278182466079,0.07620107635960303,3.6948988021909224
1098,0.899201877359618,71.1960896928673,10.339046734081816,0.07611847169960374,3.70697702895004
1099,0.8992004445617152,71.1960896928673,10.318266904333763,0.07608118472342916,3.7334869032553604
1100,0.8991990121127379,71.1960896928673,10.313511543207253,0.07610655210241671,3.7764875119649517
1101,0.8991975800130313,71.1960896928673,10.32894395019705,0.07620670595847548,3.8365271806222787
1102,0.8991961482629406,71.1960896928673,10.36620644189638,0.07638572903925808,3.912196757542619
1103,0.8991947168628113,71.1960896928673,10.423619281238787,0.07663622417277569,3.999963804688382
1104,0.8991932858129891,71.1960896928673,10.496042741684251,0.0769363144708753,4.094371571221274
1105,0.8991918551138198,71.1960896928673,10.57558142683499,0.07725066298120936,4.1886033656826696
1106,0.8991904247656488,71.1960896928673,10.65301533985586,0.07753754504059386,4.275321149893868
1107,0.8991889947688219,71.1960896928673,10.71952298691661,0.07775886887099333,4.347610845598044
1108,0.8991875651236843,71.1960896928673,10.768154265349548,0.07788823031362888,4.399843151210612
1109,0.8991861358305813,71.1960896928673,10.79469220321812,0.07791441859508987,4.428304422787702
1110,0.899184706889858,71.1960896928673,10.797869071488286,0.07784039541352032,4.431533650500375
1111,0.8991832783018598,71.1960896928673,10.779138301810422,0.0776797962656394,4.410366917255308
1112,0.8991818500669326,71.1960896928673,10.742189279512777,0.07745351561571255,4.367720564010213
1113,0.8991804221854219,71.1960896928673,10.692285961716397,0.07718731738324917,4.308159303750604
1114,0.8991789946576734,71.1960896928673,10.635521877416888,0.07691001880648213,4.237314729189595
1115,0.899177567484033,71.1960896928673,10.578117874220833,0.07665134852998934,4.1612339825680404
1116,0.8991761406648461,71.1960896928673,10.525817728280002,0.07643840479201448,4.085736161876804
1117,0.8991747142004585,71.1960896928673,10.483338703844868,0.07629082585043646,4.015841692959442
1118,0.8991732880912156,71.1960896928673,10.453853976880325,0.07621675812356309,3.955330553591728
1119,0.8991718623374627,71.1960896928673,10.438622143858767,0.07621198548648422,3.9064811876655097
1120,0.8991704369395457,71.1960896928673,10.43693367603272,0.07626270117337991,3.8700264774525355
1121,0.8991690118978095,71.1960896928673,10.44641738489304,0.07635010031740187,3.845321594904766
1122,0.8991675872125999,71.1960896928673,10.463608712502282,0.07645453012286736,3.8306673644194347
1123,0.8991661628842627,71.1960896928673,10.4846396897959,0.07655862093747001,3.823705669478105
1124,0.8991647389131431,71.1960896928673,10.505902008476532,0.07664985034462814,3.82181152681307
1125,0.8991633152995868,71.1960896928673,10.524527075509997,0.07672197854554563,3.8224310430572306
1126,0.8991618920439395,71.1960896928673,10.538586849007318,0.07677436638632101,3.8233400328108607
1127,0.8991604691465467,71.1960896928673,10.547063416747486,0.07680989424944445,3.8228228821211623
1128,0.8991590466077538,71.1960896928673,10.549735687213113,0.07683321749964318,3.819782987934166
1129,0.8991576244279065,71.1960896928673,10.547075370872951,0.07684958122364145,3.8137851686384723
1130,0.8991562026073503,71.1960896928673,10.540114039443441,0.07686320229784156,3.8050192609470517
1131,0.8991547811464307,71.1960896928673,10.530216923654455,0.07687542977406431,3.794187101676745
1132,0.8991533600454926,71.1960896928673,10.51881633783213,0.07688404345611856,3.7823404515161743
1133,0.899151939304882,71.1960896928673,10.507241604604195,0.07688420289503975,3.7707053073884182
1134,0.8991505189249445,71.1960896928673,10.496691622961082,0.07687040854768114,3.76050991376363
1135,0.8991490989060256,71.1960896928673,10.488242683178392,0.07683846892560442,3.752811976821238
1136,0.8991476792484708,71.1960896928673,10.482765533065836,0.07678658798867384,3.748325037308548
1137,0.8991462599526255,71.1960896928673,10.480774601806045,0.07671558720532472,3.7472781156012607
1138,0.8991448410188352,71.1960896928673,10.482352047202438,0.07662902951940077,3.7493655046837597
1139,0.8991434224474454,71.1960896928673,10.487201846699646,0.07653342397583589,3.7538123759092517
1140,0.8991420042388016,71.1960896928673,10.494714270307146,0.07643779209119726,3.7595220082715755
1141,0.8991405863932492,71.1960896928673,10.503913477764423,0.07635205233869521,3.765250057434531
1142,0.899139168911134,71.1960896928673,10.513354010847692,0.07628485572869956,3.7697816664767525
1143,0.8991377517928012,71.1960896928673,10.521153844553176,0.07624223306410528,3.7721123396825056
1144,0.8991363350385962,71.1960896928673,10.525209644104796,0.07622740645961622,3.7716243418132707
1145,0.8991349186488647,71.1960896928673,10.523437761560249,0.07624038276354779,3.7682351789782222
1146,0.8991335026239526,71.1960896928673,10.513907925953868,0.07627615846166963,3.7624983311691094
1147,0.8991320869642055,71.1960896928673,10.494962798885048,0.07632308711640289,3.755654106339115
1148,0.8991306716699692,71.1960896928673,10.465536407133628,0.07636436759078283,3.749640072591905
1149,0.8991292567415892,71.1960896928673,10.425701252507691,0.07638307694231962,3.747059910968067
1150,0.8991278421794109,71.1960896928673,10.377210990416035,0.07636809502682756,3.7510885488634313
1151,0.8991264279837796,71.1960896928673,10.32378395437936,0.0763182760270333,3.7652894033221465
1152,0.899125014155041,71.1960896928673,10.271072973056981,0.07624409202447668,3.7933390188716114
1153,0.8991236006935406,71.1960896928673,10.226385069452059,0.07616707730449651,3.838662397772908
1154,0.8991221875996243,71.1960896928673,10.198097032930924,0.07611761716041647,3.9039693356359004
1155,0.8991207748736372,71.1960896928673,10.194581494135845,0.07613120432248258,3.990690598544247
1156,0.8991193625159248,71.1960896928673,10.222569856974387,0.07624181442685987,4.098372966410072
1157,0.8991179505268329,71.1960896928673,10.285202388982158,0.07647121692837862,4.224173889993183
1158,0.8991165389067066,71.1960896928673,10.380338251573688,0.07681732526925988,4.362642481005551
1159,0.8991151276558916,71.1960896928673,10.499870011480906,0.07724884168358934,4.505950305735152
1160,0.8991137167747335,71.1960896928673,10.630679627952052,0.07771116847778564,4.644638692374963
1161,0.8991123062635775,71.1960896928673,10.757253038932603,0.07814103933961809,4.768786594342792
1162,0.8991108961227694,71.1960896928673,10.86503144926441,0.07848226926610317,4.869331371491185
1163,0.8991094863526551,71.1960896928673,10.94316156016002,0.07869629052692756,4.939212145535118
1164,0.8991080769535801,71.1960896928673,10.985844061701806,0.07876581911275286,4.974107651527928
1165,0.8991066679258899,71.1960896928673,10.992390699692141,0.07869388562022105,4.97271521743119
1166,0.8991052592699293,71.1960896928673,10.966536868910975,0.07850077484800984,4.936627937272777
1167,0.8991038509860441,71.1960896928673,10.915304171182775,0.07821893179804715,4.869882644779613
1168,0.8991024430745796,71.1960896928673,10.847426353330391,0.07788529975993386,4.778256366764638
1169,0.8991010355358819,71.1960896928673,10.771593355820778,0.07753335053807638,4.668443843535485
1170,0.8990996283702963,71.1960896928673,10.695104509432065,0.07718860828448545,4.547295484352994
1171,0.8990982215781688,71.1960896928673,10.623346065400671,0.07686878800800835,4.421250641703549
1172,0.8990968151598445,71.1960896928673,10.559937443984655,0.07658591967173886,4.295988006989071
1173,0.8990954091156691,71.1960896928673,10.50706467460232,0.07634747674959566,4.176236386380439
1174,0.899094003445988,71.1960896928673,10.465746794515525,0.07615667917202032,4.065690142453559
1175,0.8990925981511468,71.1960896928673,10.436108421433369,0.07601420484012374,3.9669995550729213
1176,0.8990911932314912,71.1960896928673,10.417708997024562,0.0759212813935179,3.881807810410171
1177,0.8990897886873662,71.1960896928673,10.40976778126401,0.07588086708963634,3.810799663781323
1178,0.8990883845191172,71.1960896928673,10.411111147829674,0.07589481565553664,3.753747290901602
1179,0.8990869807270903,71.1960896928673,10.419923719097985,0.07595937873041049,3.70958429307109
1180,0.8990855773116311,71.1960896928673,10.433584800708482,0.07606294773041906,3.676563379421405
1181,0.8990841742730854,71.1960896928673,10.448791688894316,0.07618722873176198,3.652525430506339
1182,0.899082771611799,71.1960896928673,10.461962520501379,0.07631050142746923,3.635253639993815
1183,0.8990813693281174,71.1960896928673,10.469786899760884,0.07641169063308366,3.622849813351143
1184,0.899079967422386,71.1960896928673,10.469783425814272,0.07647459465387105,3.6140634665727407
1185,0.8990785658949502,71.1960896928673,10.460755505863585,0.07649111295634443,3.608517877794823
1186,0.8990771647461547,71.1960896928673,10.443075200627051,0.07646237233912624,3.6067990860262844
1187,0.8990757639763454,71.1960896928673,10.418772740677715,0.07639809849834571,3.6103922762832092
1188,0.8990743635858675,71.1960896928673,10.39143610339221,0.07631530804160824,3.6214606574313564
1189,0.8990729635750666,71.1960896928673,10.365903029887837,0.07623649516606196,3.642475052208564
1190,0.8990715639442886,71.1960896928673,10.347690382347293,0.07618666740071506,3.675723997865612
1191,0.8990701646938789,71.1960896928673,10.34213410352052,0.0761890606863378,3.7227621774624367
1192,0.899068765824183,71.1960896928673,10.353346109737373,0.07626041229108708,3.783889173221952
1193,0.8990673673355467,71.1960896928673,10.38322746766744,0.07640699008182511,3.8577746914814863
1194,0.8990659692283156,71.1960896928673,10.430796217102586,0.07662187859540368,3.9413330980765617
1195,0.8990645715028353,71.1960896928673,10.49203958411026,0.07688400055485094,4.029899206225252
1196,0.8990631741594511,71.1960896928673,10.560435246643255,0.07716064707179293,4.11769430110171
1197,0.8990617771985089,71.1960896928673,10.628119948171335,0.0774143850029901,4.1985117547844135
1198,0.8990603806203542,71.1960896928673,10.687392049081256,0.07761164345294795,4.266497695693536
1199,0.8990589844253324,71.1960896928673,10.732046184824764,0.0777292958046152,4.316871881562118
1200,0.8990575886137893,71.1960896928673,10.758183203269468,0.07775780994269185,4.346456079275999
1201,0.8990561931860703,71.1960896928673,10.764452689849703,0.07770110338668568,4.353945681952819
1202,0.8990547981425209,71.1960896928673,10.75184322123926,0.07757347291263315,4.339929041360326
1203,0.8990534034834864,71.1960896928673,10.72316026522277,0.07739449922348185,4.306698567157899
1204,0.8990520092093128,71.1960896928673,10.68239014888155,0.07718414224062214,4.257914260341817
1205,0.8990506153203457,71.1960896928673,10.6341630088615,0.07696071115391119,4.198180128080803
1206,0.8990492218169305,71.1960896928673,10.58339220259699,0.0767420583179322,4.132576543780657
1207,0.8990478286994128,71.1960896928673,10.534981621198005,0.07654707327132972,4.066172955422035
1208,0.8990464359681376,71.1960896928673,10.49343371380528,0.07639441252089976,4.00354694348561
1209,0.8990450436234504,71.1960896928673,10.46231135161024,0.07629837641186653,3.948355391726027
1210,0.8990436516656966,71.1960896928673,10.443682176932649,0.0762643769410256,3.903020217723401
1211,0.8990422600952218,71.1960896928673,10.437772545916717,0.07628682235606045,3.868588013871616
1212,0.899040868912372,71.1960896928673,10.443022636516272,0.07635087315203669,3.8447937760227213
1213,0.8990394781174923,71.1960896928673,10.456561551467447,0.0764371964385237,3.830310797123567
1214,0.8990380877109283,71.1960896928673,10.474920033971022,0.07652721824669231,3.823123008925522
1215,0.8990366976930255,71.1960896928673,10.49471719223896,0.07660673721334531,3.8209309514650864
1216,0.8990353080641298,71.1960896928673,10.513132274377753,0.07666734308496236,3.8215073503766983
1217,0.899033918824587,71.1960896928673,10.528130734668943,0.07670625146244743,3.8229524393242156
1218,0.899032529974743,71.1960896928673,10.53852931986967,0.07672536476949994,3.8238402583403777
1219,0.8990311415149429,71.1960896928673,10.543973541461169,0.0767300577306491,3.8232702481929675
1220,0.8990297534455323,71.1960896928673,10.544822181653714,0.07672776773535105,3.8208451708029996
1221,0.8990283657668567,71.1960896928673,10.541922677996189,0.07672625611296145,3.8165981014035992
1222,0.8990269784792618,71.1960896928673,10.536355352593995,0.07673182140283845,3.81089114573893
1223,0.8990255915830929,71.1960896928673,10.529277606962207,0.07674827409724112,3.8043048926109395
1224,0.8990242050786953,71.1960896928673,10.52189049703165,0.07677689764876675,3.7975264088145857
1225,0.8990228189664147,71.1960896928673,10.515403839484359,0.07681654491025292,3.791231019034214
1226,0.8990214332465966,71.1960896928673,10.510886074793646,0.07686337333559407,3.7859564507930443
1227,0.8990200479195865,71.1960896928673,10.509046075536315,0.07691091324357384,3.781989321250113
1228,0.8990186629857302,71.1960896928673,10.510095908818968,0.07695107265919757,3.779298685859899
1229,0.8990172784453733,71.1960896928673,10.51375289362332,0.07697573125866435,3.777535863683107
1230,0.8990158942988611,71.1960896928673,10.519287091212691,0.07697820193634367,3.776087333039661
1231,0.8990145105465389,71.1960896928673,10.525504579881181,0.07695395523876426,3.7741583497666435
1232,0.8990131271887527,71.1960896928673,10.530705657150785,0.07690048861966184,3.7708884288879667
1233,0.8990117442258478,71.1960896928673,10.532769219713222,0.076816812143518,3.765512973967476
1234,0.8990103616581697,71.1960896928673,10.529413277023005,0.07670305430525096,3.75756077965124
1235,0.899008979486064,71.1960896928673,10.518512137331218,0.07656046071197745,3.747050417824602
1236,0.899007597709876,71.1960896928673,10.498356295006701,0.07639190371413304,3.734656305847247
