,time,sample_rate,Red,Green,Blue
0,0.09839370487730068,74.71050984688931,9.028983936648093,0.046759624168530814,-1.1283380714696336
1,0.09839351890783471,74.71050984688931,9.030656277971643,0.04593716322622349,-1.1250965303149831
2,0.09839333539301272,74.71050984688931,9.03228789146515,0.04527815439957803,-1.1206624167296337
3,0.0983931546686629,74.71050984688931,9.033850944109783,0.044913128261522134,-1.1140503575602336
4,0.09839297679691883,74.71050984688931,9.035302320423794,0.04495637365005126,-1.1045722441559573
5,0.0983928016125712,74.71050984688931,9.036575279008842,0.045485854768886315,-1.0919436908822437
6,0.0983926287848379,74.71050984688931,9.03757517350045,0.046517372330474344,-1.0763451379359863
7,0.09839245788275637,74.71050984688931,9.038185977179163,0.047983904180371136,-1.0584156720447084
8,0.0983922884354764,74.71050984688931,9.038290139077704,0.049732404899425826,-1.0391692862423902
9,0.09839211998205492,74.71050984688931,9.037799773938145,0.0515450819053596,-1.0198417064922252
10,0.09839195210815596,74.71050984688931,9.03669386780106,0.05318182682204266,-1.0016934591545812
11,0.09839178446927145,74.71050984688931,9.035050361632349,0.05443090193998855,-0.9858074893163334
12,0.09839161680164277,74.71050984688931,9.033057619866032,0.05515205591717824,-0.9729245989697463
13,0.09839144892302783,74.71050984688931,9.03099876514579,0.05530069218903626,-0.9633514876578207
14,0.0983912807259117,74.71050984688931,9.029218136205053,0.05492939659548726,-0.9569565675882701
15,0.09839111216580831,74.71050984688931,9.02808329112162,0.054169764794670956,-0.953249101652277
16,0.0983909432470661,74.71050984688931,9.027947640615373,0.05320041310590859,-0.951523623048315
17,0.09839077400817678,74.71050984688931,9.029112896945232,0.05220767231323389,-0.9510404463090122
18,0.09839060450808927,74.71050984688931,9.031793344376876,0.05134742100993066,-0.9512025768637483
19,0.09839043481452371,74.71050984688931,9.036086579199578,0.05071834710200088,-0.9516896579215514
20,0.09839026499481701,74.71050984688931,9.041951024698944,0.05035319964974069,-0.9525271843799205
21,0.09839009510944478,74.71050984688931,9.04918572968817,0.05022636936251428,-0.9540889056591196
22,0.09838992520807133,74.71050984688931,9.057413388226394,0.050271425148614796,-0.9570354702088986
23,0.09838975532778217,74.71050984688931,9.066078458296555,0.050403409884205747,-0.9621925225297844
24,0.09838958549304402,74.71050984688931,9.07447298615468,0.050542017427400644,-0.9703861422844748
25,0.09838941571690202,74.71050984688931,9.081793384158235,0.050630327719788516,-0.9822744073271552
26,0.09838924600294482,74.71050984688931,9.087223899899096,0.05064332119008935,-0.9982151374708831
27,0.09838907634762888,74.71050984688931,9.090039508446944,0.050584361168854224,-1.0181906488818357
28,0.09838890674263442,74.71050984688931,9.089717017967557,0.050473749888535716,-1.0417903670769955
29,0.09838873717701663,74.71050984688931,9.086034589055217,0.050336207928753623,-1.0682406115159249
30,0.09838856763900179,74.71050984688931,9.079131289100285,0.0501921096522207,-1.096467557537322
31,0.09838839811735593,74.71050984688931,9.069501603344316,0.050053545043704926,-1.1251831106031869
32,0.09838822860231478,74.71050984688931,9.057922485807635,0.04992514378572558,-1.1529868949324578
33,0.0983880590861095,74.71050984688931,9.045336810387298,0.049809805257446785,-1.1784768733263764
34,0.09838788956315209,74.71050984688931,9.032716735965051,0.04971587360924431,-1.200362989767066
35,0.09838772002995876,74.71050984688931,9.020917126473302,0.04965888643634626,-1.2175789055328925
36,0.0983875504848927,74.71050984688931,9.010548255726269,0.04965541707996608,-1.2293768954589048
37,0.09838738092780235,74.71050984688931,9.001924752723424,0.04971438188492567,-1.2353824217839926
38,0.09838721135961931,74.71050984688931,8.99511594656554,0.04983313673596367,-1.235592093646124
39,0.09838704178196603,74.71050984688931,8.990046276528616,0.0500007036564419,-1.2303171069167833
40,0.09838687219680829,74.71050984688931,8.986568615543598,0.05020523150863339,-1.2200931768893981
41,0.09838670260617319,74.71050984688931,8.984496631862436,0.050441612570524916,-1.2055848867171906
42,0.09838653301194106,74.71050984688931,8.983640973949493,0.05071483911233959,-1.1875053862138885
43,0.09838636341571054,74.71050984688931,8.983863485242567,0.05103455056352628,-1.1665657983350644
44,0.09838619381872903,74.71050984688931,8.985104037260259,0.05140130740899511,-1.1434629528897085
45,0.0983860242218766,74.71050984688931,8.987343039206076,0.05179366834421123,-1.1188958342395776
46,0.0983858546256899,74.71050984688931,8.990533574177988,0.052167683757501575,-1.0935804416902846
47,0.09838568503041219,74.71050984688931,8.994572730965936,0.05247174726851793,-1.068238035444628
48,0.09838551543605764,74.71050984688931,8.999326788744165,0.052666854672838964,-1.0435629200387935
49,0.09838534584247931,74.71050984688931,9.004655195469622,0.05273859657508991,-1.02019712638196
50,0.09838517624943337,74.71050984688931,9.010388714315175,0.0526961738910975,-0.9987275266027263
51,0.09838500665663454,74.71050984688931,9.01629030636343,0.05256501675867678,-0.9796948306911293
52,0.09838483706379975,74.71050984688931,9.022059842951922,0.05238125970431291,-0.9635971470432142
53,0.09838466747067923,74.71050984688931,9.027390194204676,0.0521882709712617,-0.9508879958080719
54,0.09838449787707562,74.71050984688931,9.03202246132372,0.052029807451227345,-0.9419811876948464
55,0.09838432828285254,74.71050984688931,9.035759093515072,0.051938041324289703,-0.937264782663621
56,0.09838415868793493,74.71050984688931,9.038448876119269,0.05192043637984109,-0.9371100726792295
57,0.09838398909230339,74.71050984688931,9.039983963260644,0.05194991891397338,-0.9418597718164016
58,0.09838381949598475,74.71050984688931,9.040322753838955,0.05196054006903931,-0.951789015548677
59,0.09838364989904085,74.71050984688931,9.039520879323138,0.051850172555880716,-0.9670404026459297
60,0.09838348030155719,74.71050984688931,9.037751656512269,0.05149150609182693,-0.9875391662005839
61,0.09838331070363249,74.71050984688931,9.035307789228458,0.05075161596882765,-1.0129017850323767
62,0.09838314110536989,74.71050984688931,9.032578643356386,0.04952003866078326,-1.042358506517098
63,0.0983829715068703,74.71050984688931,9.030001490618016,0.04774312318104496,-1.074711334830637
64,0.0983828019082277,74.71050984688931,9.027997052161618,0.04545562053664362,-1.1083437807634293
65,0.09838263230952665,74.71050984688931,9.02690712844189,0.04279572464259597,-1.1412911237382026
66,0.09838246271084132,74.71050984688931,9.026947308970017,0.03999592161238982,-1.1713726273946456
67,0.09838229311223569,74.71050984688931,9.0281781871532,0.03735298922917522,-1.1963791265965142
68,0.09838212351376477,74.71050984688931,9.030494298669362,0.035183851495604296,-1.2142975518752737
69,0.0983819539154764,74.71050984688931,9.03363530118954,0.033773332708464755,-1.2235380223228343
70,0.09838178431741308,74.71050984688931,9.037229671178087,0.03332540463474084,-1.2231188257918069
71,0.09838161471961392,74.71050984688931,9.040869317673016,0.03393464395724976,-1.2127742831538553
72,0.09838144512211633,74.71050984688931,9.044186360512056,0.035586066930911736,-1.192978729879519
73,0.09838127552495735,74.71050984688931,9.046894207862989,0.038174100921839205,-1.1649045349595133
74,0.09838110592817466,74.71050984688931,9.048784206531835,0.04152334691242332,-1.1303345816412933
75,0.09838093633180729,74.71050984688931,9.049708018564498,0.04540162464900242,-1.0915362017218673
76,0.09838076673589592,74.71050984688931,9.049578703533236,0.0495279020273829,-1.0510963386158623
77,0.09838059714048304,74.71050984688931,9.048388397446121,0.05358317657110572,-1.0117239488362693
78,0.09838042754561284,74.71050984688931,9.046218099382356,0.057232338350335185,-0.9760308091520169
79,0.0983802579513309,74.71050984688931,9.043232424539521,0.0601612915649518,-0.9463025938983483
80,0.09838008835768391,74.71050984688931,9.039672573781043,0.06212449354450523,-0.9242822810783269
81,0.09837991876471934,74.71050984688931,9.035851415258913,0.0629875644773431,-0.9110039753788585
82,0.09837974917248514,74.71050984688931,9.032133050657038,0.06274726533299539,-0.9067160701181666
83,0.09837957958102947,74.71050984688931,9.028881767358097,0.06152175878504415,-0.910912114632107
84,0.09837940999040051,74.71050984688931,9.02639543496824,0.05951952325173874,-0.9224574840453056
85,0.09837924040064626,74.71050984688931,9.024857818323161,0.057001456523598906,-0.9397764883283845
86,0.09837907081181446,74.71050984688931,9.0243276925538,0.054245023790534246,-0.9610611691427148
87,0.09837890122395261,74.71050984688931,9.024752516915056,0.05151276837192337,-0.9844741762958744
88,0.09837873163710785,74.71050984688931,9.025986690882313,0.04902721571051329,-1.0083246621718276
89,0.09837856205132708,74.71050984688931,9.027811378388009,0.04695514361950848,-1.0311965496693738
90,0.09837839246665699,74.71050984688931,9.029964904677271,0.045401571063035766,-1.0520161925479345
91,0.09837822288314403,74.71050984688931,9.032183828262365,0.044410365877637525,-1.0700625226433607
92,0.0983780533008346,74.71050984688931,9.034240227852935,0.04396748976878093,-1.084937537255525
93,0.09837788371977502,74.71050984688931,9.035960793541824,0.044005811146921786,-1.096519361896246
94,0.09837771414001162,74.71050984688931,9.037228717162494,0.04441592823860115,-1.104910546298384
95,0.0983775445615907,74.71050984688931,9.037983269937486,0.045068527371860824,-1.1103811391481604
96,0.09837737498455862,74.71050984688931,9.03822688284492,0.04584474798899235,-1.1133078997976353
97,0.09837720540896178,74.71050984688931,9.038028343392584,0.04666059792065016,-1.114126369846514
98,0.09837703583484662,74.71050984688931,9.037503445133703,0.047473831767543204,-1.1133152855874506
99,0.09837686626225961,74.71050984688931,9.036775609086657,0.048273812862067444,-1.1114116221716073
100,0.09837669669124725,74.71050984688931,9.035940311803913,0.049062007745244,-1.109031137040457
101,0.09837652712185611,74.71050984688931,9.035052509228475,0.04983010291556838,-1.1068653743914512
102,0.0983763575541328,74.71050984688931,9.034134866386987,0.05054221447767164,-1.1056408574697993
103,0.09837618798812398,74.71050984688931,9.033192018267535,0.051128480048954,-1.106045335874632
104,0.09837601842387624,74.71050984688931,9.032222616765575,0.05149322528830068,-1.108635944435886
105,0.09837584886143622,74.71050984688931,9.031232401863246,0.05153395507571538,-1.1137428979713924
106,0.09837567930085053,74.71050984688931,9.030249848222683,0.051166421668999984,-1.121381116007408
107,0.09837550974216579,74.71050984688931,9.029334229270063,0.050352543890012744,-1.1311879800314844
108,0.0983753401854286,74.71050984688931,9.028566389040174,0.04912458272732317,-1.1424080978975264
109,0.09837517063068553,74.71050984688931,9.028027466719836,0.04759649825363122,-1.1539389999505787
110,0.09837500107798322,74.71050984688931,9.027778570135661,0.045957205449437905,-1.1644424243130602
111,0.09837483152736821,74.71050984688931,9.027848446913092,0.044445285319290796,-1.172515184203883
112,0.09837466197888704,74.71050984688931,9.028226551253786,0.043307220920641716,-1.176897813137008
113,0.09837449243258628,74.71050984688931,9.02885724269143,0.04274490516400372,-1.1766820912660871
114,0.0983743228885125,74.71050984688931,9.02964138377328,0.04286547137772595,-1.1714674314779978
115,0.09837415334671225,74.71050984688931,9.030460107268583,0.043653043851996004,-1.1614210923504127
116,0.09837398380723206,74.71050984688931,9.031225398322087,0.044977276873586006,-1.147225245185823
117,0.09837381427011849,74.71050984688931,9.031937727375311,0.04663442747639173,-1.1299343847177612
118,0.09837364473541811,74.71050984688931,9.032718694590596,0.04840007932064142,-1.1107965684506163
119,0.09837347520317755,74.71050984688931,9.033802426176788,0.05007361750429279,-1.0910953518555242
120,0.09837330567344338,74.71050984688931,9.035493849328216,0.05150446244059664,-1.0720463773658147
121,0.09837313614626217,74.71050984688931,9.038110424637432,0.05259827785800719,-1.0547510086861542
122,0.0983729666216805,74.71050984688931,9.041915558455672,0.05330855361170702,-1.0401901686989805
123,0.09837279709974495,74.71050984688931,9.047045399567848,0.05362318759496693,-1.02923601328574
124,0.09837262758050208,74.71050984688931,9.053442020247754,0.053555107105468756,-1.022657237863645
125,0.09837245806399851,74.71050984688931,9.060818168786255,0.05314131040473929,-1.0210998350208735
126,0.09837228855028078,74.71050984688931,9.068663753116768,0.05244520699698008,-1.0250441341676204
127,0.09837211903939543,74.71050984688931,9.076280298452414,0.05155134956688491,-1.0347543691224965
128,0.09837194953138903,74.71050984688931,9.08283632709862,0.050550024587833337,-1.0502323002392444
129,0.09837178002630817,74.71050984688931,9.087457792791897,0.049521823070846065,-1.0711735829086662
130,0.09837161052419942,74.71050984688931,9.089359141331599,0.04853241859163562,-1.0969273977370497
131,0.09837144102510935,74.71050984688931,9.087989416276866,0.04763715570706277,-1.1264750735487872
132,0.09837127152908455,74.71050984688931,9.083151103196688,0.04688763932276012,-1.1584508238870728
133,0.0983711020361716,74.71050984688931,9.07505677440674,0.046334467351154505,-1.1912169158465655
134,0.09837093254641707,74.71050984688931,9.064306380584716,0.04602602596070297,-1.222988147630454
135,0.09837076305986757,74.71050984688931,9.051786595916479,0.04600532191739236,-1.2519916472078396
136,0.09837059357656963,74.71050984688931,9.038516736407898,0.04630449639174186,-1.276645469885766
137,0.09837042409656985,74.71050984688931,9.025487983888256,0.04693545535647234,-1.295731928272959
138,0.09837025461991483,74.71050984688931,9.013540595970252,0.047878275602607843,-1.3085313746327354
139,0.09837008514665113,74.71050984688931,9.00329393951424,0.0490732823039715,-1.3148831978745503
140,0.09836991567682528,74.71050984688931,8.995111652206832,0.05042229165314149,-1.3151600700898376
141,0.09836974621048385,74.71050984688931,8.989082270549883,0.05179977977805834,-1.3101678266063335
142,0.09836957674767341,74.71050984688931,8.985032225643756,0.0530716653758325,-1.3009980906359844
143,0.09836940728844054,74.71050984688931,8.982605690136143,0.05411809667909765,-1.2888621020178819
144,0.09836923783283182,74.71050984688931,8.981398259935576,0.054852975561962544,-1.2749338812796807
145,0.09836906838089379,74.71050984688931,8.981073407550314,0.05523188530297515,-1.2602292320326947
146,0.09836889893267306,74.71050984688931,8.981403153206543,0.05524766714443177,-1.2455338696818734
147,0.09836872948821615,74.71050984688931,8.982253560107239,0.054921913620469096,-1.231372613590772
148,0.09836856004756964,74.71050984688931,8.983580446818776,0.05430017704948267,-1.218004760543172
149,0.09836839061078011,74.71050984688931,8.985448756671731,0.0534495719718759,-1.205446055713243
150,0.09836822117789414,74.71050984688931,8.988021550614098,0.05245075214606997,-1.1935293654630674
151,0.0983680517489583,74.71050984688931,8.991481291501564,0.05138081345808468,-1.1820019523397551
152,0.09836788232401916,74.71050984688931,8.99592566247704,0.05029566390386194,-1.1706295376502633
153,0.09836771290312335,74.71050984688931,9.001315522370268,0.049224705573074026,-1.1592684880932176
154,0.09836754348631746,74.71050984688931,9.007495136942524,0.04818046003638244,-1.1478911326184804
155,0.09836737407364807,74.71050984688931,9.01423253066392,0.04717336835207005,-1.1365802511044594
156,0.09836720466516176,74.71050984688931,9.021229102132743,0.04622046396932143,-1.1255135046217757
157,0.0983670352609051,74.71050984688931,9.02811094697526,0.045344809521785226,-1.1149374620274626
158,0.09836686586092462,74.71050984688931,9.034453646889633,0.04457083615297085,-1.1051168253897523
159,0.0983666964652669,74.71050984688931,9.03985667753103,0.04392142264967486,-1.0962589736680044
160,0.0983665270739785,74.71050984688931,9.044025470002884,0.04341724771829939,-1.0884387494140786
161,0.09836635768710597,74.71050984688931,9.046812755156939,0.043074876329814216,-1.081553539267086
162,0.09836618830469586,74.71050984688931,9.04821437110565,0.04290154484257121,-1.0753211459961758
163,0.09836601892679474,74.71050984688931,9.048348398358574,0.042890350619445565,-1.0693123964614533
164,0.09836584955344924,74.71050984688931,9.047436619242758,0.04302338510366384,-1.0630014980587363
165,0.0983656801847059,74.71050984688931,9.045784188103648,0.04328616832504163,-1.0558207926771237
166,0.0983655108206113,74.71050984688931,9.043747539117453,0.043686615728979736,-1.0472198272946165
167,0.09836534146121201,74.71050984688931,9.041685192234434,0.04426519118771628,-1.0367411339758776
168,0.09836517210655459,74.71050984688931,9.039896514461503,0.04508603726556543,-1.024118492206629
169,0.09836500275668561,74.71050984688931,9.03856777276124,0.046209424546387316,-1.0093786645588936
170,0.09836483341165168,74.71050984688931,9.037746905860711,0.04765647338634836,-0.9929103453059568
171,0.09836466407149941,74.71050984688931,9.03735361171023,0.04938122385086726,-0.9754708120447294
172,0.09836449473627536,74.71050984688931,9.037214132618212,0.051261897218612996,-0.9581223019154874
173,0.09836432540602609,74.71050984688931,9.037103955161346,0.053116084556601766,-0.9421086784515276
174,0.0983641560807982,74.71050984688931,9.036791258963778,0.054737124272612306,-0.9286910663954341
175,0.09836398676063822,74.71050984688931,9.036085832347766,0.05594129396186644,-0.9189668420248054
176,0.09836381744559271,74.71050984688931,9.03488833973503,0.05660789413417999,-0.9137085305951991
177,0.09836364813570825,74.71050984688931,9.033214638051755,0.056695318649448094,-0.9132652513345769
178,0.09836347883103143,74.71050984688931,9.031179013349249,0.056231156516809315,-0.9175484275981062
179,0.09836330953160881,74.71050984688931,9.028955329478402,0.05528998639459034,-0.9260840549451187
180,0.09836314023748699,74.71050984688931,9.026751336282864,0.05397413960673892,-0.9380908428856528
181,0.0983629709487125,74.71050984688931,9.02481001473175,0.0524034869509716,-0.9525574824860278
182,0.09836280166533196,74.71050984688931,9.023417670083022,0.050710533733673804,-0.9683247202575893
183,0.09836263238739192,74.71050984688931,9.022890495175899,0.049032802820921276,-0.9841907293356829
184,0.09836246311493894,74.71050984688931,9.023537038761589,0.047498434891110636,-0.9990406919682402
185,0.09836229384801963,74.71050984688931,9.025618410383776,0.04620976650621211,-1.0119790103023079
186,0.09836212458668053,74.71050984688931,9.029324137172551,0.04523386973316999,-1.022437331301278
187,0.09836195533096823,74.71050984688931,9.034757631506432,0.04460348593616733,-1.0302430790245634
188,0.09836178608092928,74.71050984688931,9.041908734227253,0.044322259883625995,-1.035647981855679
189,0.09836161683661034,74.71050984688931,9.050603998235413,0.04436581966759092,-1.0393198080116364
190,0.09836144759805791,74.71050984688931,9.060457546521276,0.04467875201612235,-1.0422919532544133
191,0.09836127836531859,74.71050984688931,9.07085681208775,0.045176510453359776,-1.0458596435139087
192,0.09836110913843894,74.71050984688931,9.080991840024318,0.04575862498244192,-1.0514216827938727
193,0.09836093991746551,74.71050984688931,9.089914299596925,0.046329645752472434,-1.0602866455144586
194,0.0983607707024449,74.71050984688931,9.096625453370665,0.04682023437161939,-1.0734751387317563
195,0.09836060149342365,74.71050984688931,9.100206069090936,0.047202605986953215,-1.0915517435669975
196,0.09836043229044836,74.71050984688931,9.099977174181836,0.04749503458656566,-1.1145193606382522
197,0.09836026309356558,74.71050984688931,9.09564339846281,0.04775177525691542,-1.1418024637872293
198,0.0983600939028219,74.71050984688931,9.08736806570862,0.0480404115685491,-1.1723255335886495
199,0.09835992471826391,74.71050984688931,9.075758227839067,0.04841376737048398,-1.2046653380693304
200,0.09835975553993814,74.71050984688931,9.061762631761017,0.04888603216658031,-1.23723884565611
201,0.09835958636789117,74.71050984688931,9.046507923610971,0.049423213629407964,-1.2684881521220752
202,0.09835941720216959,74.71050984688931,9.031124339756401,0.04995291521184573,-1.297030609967522
203,0.09835924804281998,74.71050984688931,9.01661012414882,0.05038808325936096,-1.3217518316966093
204,0.09835907888988892,74.71050984688931,9.00375058643857,0.05065287900584063,-1.3418358740554004
205,0.09835890974342297,74.71050984688931,8.99307830310072,0.05070127670688234,-1.3567471718031818
206,0.09835874060346873,74.71050984688931,8.984855755897497,0.050524968222036254,-1.366187420068088
207,0.09835857147007278,74.71050984688931,8.97908314046613,0.050150966847974536,-1.3700429974806938
208,0.09835840234328169,74.71050984688931,8.975554480574665,0.049631819552133014,-1.368330884078183
209,0.09835823322314204,74.71050984688931,8.973961552166621,0.04903306951114594,-1.3611546386358646
210,0.09835806410970038,74.71050984688931,8.973993127001576,0.04842135504728839,-1.3486858681777563
211,0.09835789500300327,74.71050984688931,8.975374006303907,0.047855434158128624,-1.3311749694884745
212,0.09835772590309726,74.71050984688931,8.977860511566902,0.04738351333994225,-1.3089726248448854
213,0.09835755681002892,74.71050984688931,8.981254977377972,0.04704664682841188,-1.282538143273749
214,0.09835738772384482,74.71050984688931,8.985446474429532,0.04688072552945662,-1.2524323605637628
215,0.09835721864459154,74.71050984688931,8.990418520607024,0.04691084184934563,-1.2193118183402805
216,0.09835704957231566,74.71050984688931,8.99618617462964,0.04714188544058314,-1.1839336635137976
217,0.09835688050706375,74.71050984688931,9.002702430630153,0.04755523130421894,-1.1471612324598057
218,0.09835671144888239,74.71050984688931,9.009805059057904,0.04811611757142809,-1.1099537077037658
219,0.09835654239781816,74.71050984688931,9.017222339870024,0.048785373690005775,-1.073335250531196
220,0.09835637335391761,74.71050984688931,9.024598429105124,0.049524228950501716,-1.0383528133653555
221,0.09835620431722739,74.71050984688931,9.031509188687489,0.05028816574544775,-1.0060285299456304
222,0.09835603528779403,74.71050984688931,9.037489202418836,0.051019747679832944,-0.9772972797044319
223,0.09835586626566413,74.71050984688931,9.042104525480926,0.05165570023998152,-0.9529213122191333
224,0.09835569725088425,74.71050984688931,9.045057193404759,0.0521494927739711,-0.9334026457426975
225,0.09835552824350094,74.71050984688931,9.046261500971323,0.052491053305537355,-0.9189371931700312
226,0.09835535924356073,74.71050984688931,9.04584991022725,0.05270509474436423,-0.9094374366812344
227,0.09835519025111027,74.71050984688931,9.04411888672788,0.05282926897706157,-0.9046073211425827
228,0.09835502126619612,74.71050984688931,9.041453563333267,0.05288963719945953,-0.9040277837417278
229,0.09835485228886486,74.71050984688931,9.038263507935763,0.052889742406363155,-0.9072210231372945
230,0.09835468331916306,74.71050984688931,9.034941187740275,0.052817112063655566,-0.9136862332010599
231,0.09835451435713728,74.71050984688931,9.03183557542135,0.05265829068369715,-0.9229186525259556
232,0.0983543454028341,74.71050984688931,9.029225727415206,0.05240835604565731,-0.9344303569174714
233,0.09835417645630008,74.71050984688931,9.027289310496583,0.05206732032187849,-0.9477804395534227
234,0.09835400751758182,74.71050984688931,9.026079700616764,0.051628631777409145,-0.962600479674365
235,0.09835383858672586,74.71050984688931,9.025532638732175,0.051071841964393246,-0.978591412812083
236,0.09835366966377881,74.71050984688931,9.025506455472563,0.050365959532215454,-0.9954825759253054
237,0.09835350074878724,74.71050984688931,9.025834053806497,0.049480384665682636,-1.012966070589908
238,0.09835333184179769,74.71050984688931,9.026363758457299,0.04839958348914291,-1.0306274462298937
239,0.09835316294285676,74.71050984688931,9.02698753628592,0.0471429199163231,-1.047891243666656
240,0.09835299405201102,74.71050984688931,9.027662796091569,0.04578763345142795,-1.0640043572467826
241,0.09835282516930705,74.71050984688931,9.028419255006876,0.044480605349370726,-1.078085939323105
242,0.09835265629479141,74.71050984688931,9.02933338632027,0.043420704942396436,-1.0892573204495306
243,0.09835248742851066,74.71050984688931,9.030471420858113,0.0428084462454213,-1.0968266500815524
244,0.09835231857051135,74.71050984688931,9.03183155489689,0.04278178658241707,-1.1004671774579489
245,0.0983521497208401,74.71050984688931,9.033323082416693,0.04336696476797455,-1.100322336522666
246,0.09835198087954346,74.71050984688931,9.034794466431734,0.04446444474042497,-1.0969997508050402
247,0.098351812046668,74.71050984688931,9.036084463919194,0.045870853612712835,-1.0914630625064552
248,0.09835164322226035,74.71050984688931,9.037060015716618,0.04732510435869564,-1.084863474320104
249,0.09835147440636706,74.71050984688931,9.037633799957478,0.048567387656103904,-1.0783520004640148
250,0.0983513055990347,74.71050984688931,9.037778026171416,0.04940030663298147,-1.072898699710083
251,0.09835113680030984,74.71050984688931,9.037537439436168,0.04973471915557164,-1.0691468651666902
252,0.09835096801023907,74.71050984688931,9.037021282425917,0.049601811109188876,-1.0673393913627185
253,0.09835079922886895,74.71050984688931,9.036360845667089,0.04912701042752014,-1.0673391850407685
254,0.09835063045624601,74.71050984688931,9.035653780426303,0.04848104077625266,-1.0687258830613036
255,0.0983504616924168,74.71050984688931,9.03493615709225,0.04783196741758963,-1.0709242886873862
256,0.09835029293742788,74.71050984688931,9.034201844528852,0.04731365842992074,-1.073325417487314
257,0.09835012419132583,74.71050984688931,9.033446769768323,0.04701196870859912,-1.0753811168907736
258,0.09834995545415723,74.71050984688931,9.032697213037,0.046963874805003136,-1.0766678087206465
259,0.09834978672596867,74.71050984688931,9.032003832762411,0.04716540301187805,-1.076920447646313
260,0.09834961800680678,74.71050984688931,9.031416454110387,0.04758326856195888,-1.0760390956866235
261,0.09834944929671814,74.71050984688931,9.030963876306682,0.04816482862528434,-1.0740732324874793
262,0.09834928059574935,74.71050984688931,9.030646161978675,0.04884603472301712,-1.0711922930029054
263,0.09834911190394696,74.71050984688931,9.030431365800455,0.04956160491563227,-1.0676497902480733
264,0.09834894322135754,74.71050984688931,9.030252086092844,0.050257976901699156,-1.063745431429918
265,0.09834877454802764,74.71050984688931,9.03000692549473,0.05090162248626041,-1.0597912199150552
266,0.09834860588400383,74.71050984688931,9.029574419901593,0.051474188617984175,-1.0560886495644022
267,0.09834843722933269,74.71050984688931,9.028838890218134,0.05195511266296936,-1.052915673291956
268,0.09834826858406077,74.71050984688931,9.02771906200012,0.05230328942817165,-1.0505090472163194
269,0.09834809994823468,74.71050984688931,9.026197505460008,0.05245250049337925,-1.0490254317278118
270,0.09834793132190096,74.71050984688931,9.024358635766452,0.052328446423635794,-1.0484803065978778
271,0.09834776270510621,74.71050984688931,9.022430272650883,0.051882501274388045,-1.0486875267295455
272,0.09834759409789698,74.71050984688931,9.020799829710793,0.051125540413759434,-1.049237302013352
273,0.09834742550031982,74.71050984688931,9.019977752993482,0.05014206063053286,-1.0495430977451632
274,0.09834725691242131,74.71050984688931,9.02051410501325,0.0490751537290785,-1.0489586471659897
275,0.09834708833424803,74.71050984688931,9.02290297309663,0.048090608855086175,-1.0469360217457915
276,0.09834691976584661,74.71050984688931,9.027506446254906,0.04733850978679636,-1.0431862849886961
277,0.09834675120726362,74.71050984688931,9.034503139595888,0.04692602495550603,-1.0378134620717026
278,0.09834658265854562,74.71050984688931,9.043845583798879,0.046903641243604646,-1.0314040363353723
279,0.0983464141197392,74.71050984688931,9.055216872966367,0.04725944872450814,-1.0250587333830228
280,0.09834624559089089,74.71050984688931,9.067997702998007,0.04791716800046503,-1.0203521242932154
281,0.09834607707204729,74.71050984688931,9.081267843586616,0.04874182576944396,-1.0192066440619116
282,0.09834590856325494,74.71050984688931,9.093859232535669,0.049560561050171766,-1.023680869876702
283,0.09834574006456044,74.71050984688931,9.104458852534776,0.05019742267442586,-1.0356938924288264
284,0.09834557157601033,74.71050984688931,9.1117517608508,0.050511481533397115,-1.056723765699587
285,0.0983454030976512,74.71050984688931,9.114598308149104,0.050427032062264544,-1.0875272696524565
286,0.09834523462952965,74.71050984688931,9.112229068312958,0.04994781715728648,-1.1279369200147542
287,0.09834506617169227,74.71050984688931,9.104415132368237,0.049150388352422324,-1.1767884465776122
288,0.0983448977241856,74.71050984688931,9.091560594218805,0.04815861666762034,-1.2320037697551813
289,0.09834472928705622,74.71050984688931,9.074679575042671,0.04711026306904995,-1.2908103436213714
290,0.09834456086035065,74.71050984688931,9.055246833012935,0.0461285233872073,-1.3500444281635249
291,0.09834439244411546,74.71050984688931,9.034948494151093,0.045304567126065204,-1.406479764407749
292,0.09834422403839722,74.71050984688931,9.015404700950793,0.044689973374432305,-1.4571342274581898
293,0.09834405564324256,74.71050984688931,8.99795125469441,0.04429690069364872,-1.499517280788069
294,0.09834388725869805,74.71050984688931,8.983525507951,0.04410569378023759,-1.531792291090176
295,0.09834371888481028,74.71050984688931,8.972634334521167,0.04407867167490903,-1.5528478805405697
296,0.09834355052162583,74.71050984688931,8.96536182142882,0.044176953782281946,-1.5622884168985267
297,0.09834338216919128,74.71050984688931,8.961421131943965,0.04437858474917651,-1.5603564649368855
298,0.09834321382755319,74.71050984688931,8.96027804746122,0.044693678001895665,-1.5478069696880579
299,0.09834304549675812,74.71050984688931,8.961318083865502,0.0451646481729497,-1.5257685590519614
300,0.09834287717685262,74.71050984688931,8.963975500026823,0.045843932682159035,-1.495628312582553
301,0.09834270886788327,74.71050984688931,8.967772430240336,0.046759821290356295,-1.4589528182827236
302,0.09834254056989664,74.71050984688931,8.972304888603748,0.04789238133294618,-1.4174290022854044
303,0.09834237228293934,74.71050984688931,8.977252123340007,0.04917418757862887,-1.3727992432893625
304,0.09834220400705791,74.71050984688931,8.982421215347276,0.050510800515002355,-1.3267850039034603
305,0.09834203574229898,74.71050984688931,8.987761959683551,0.05180067179946957,-1.2810182680998257
306,0.0983418674887091,74.71050984688931,8.993305285978831,0.05293990749380893,-1.2369968489978114
307,0.09834169924633482,74.71050984688931,8.999068471625337,0.0538191764503436,-1.1960483802137674
308,0.09834153101522271,74.71050984688931,9.005009243150166,0.05433139618693617,-1.1592731070884867
309,0.09834136279541937,74.71050984688931,9.01104322230991,0.05439470859709209,-1.1274658540107623
310,0.09834119458697138,74.71050984688931,9.017064463232279,0.053974326798154705,-1.1010545492902288
311,0.09834102638992533,74.71050984688931,9.022925380357517,0.053085975573994935,-1.0800862484534108
312,0.09834085820432775,74.71050984688931,9.028407073806651,0.05178191242038376,-1.0642526042777818
313,0.09834069003022522,74.71050984688931,9.033240539138307,0.050134698678176805,-1.0529259252120455
314,0.09834052186766425,74.71050984688931,9.037184163171771,0.04823105104098906,-1.0451936052323105
315,0.0983403537166914,74.71050984688931,9.040100842202355,0.046175832311013985,-1.0399018113256122
316,0.09834018557735326,74.71050984688931,9.04198567003006,0.044098081204400966,-1.0357197694838696
317,0.09834001744969642,74.71050984688931,9.042947671192245,0.04215228530247377,-1.031223502904997
318,0.09833984933376749,74.71050984688931,9.043175226333558,0.04051255729818994,-1.024993920435265
319,0.09833968122961309,74.71050984688931,9.042898476178362,0.0393594948015953,-1.0157289821356241
320,0.09833951313727977,74.71050984688931,9.042347263817252,0.038861737608947663,-1.0023691846918972
321,0.09833934505681412,74.71050984688931,9.04170864304983,0.039155433974911974,-0.9842253542101923
322,0.0983391769882627,74.71050984688931,9.041096089206132,0.040322852790401896,-0.961087947794107
323,0.09833900893167206,74.71050984688931,9.040542545378166,0.04237164627446973,-0.9332970334358673
324,0.09833884088708879,74.71050984688931,9.04001763461397,0.04521954036456214,-0.9017596950071048
325,0.09833867285455944,74.71050984688931,9.03945641123881,0.04868932630093523,-0.8679095600966223
326,0.0983385048341306,74.71050984688931,9.038785780899952,0.052516184523074924,-0.8336090264026945
327,0.09833833682584886,74.71050984688931,9.037938821941879,0.056368065996574276,-0.8009992654537562
328,0.09833816882976078,74.71050984688931,9.036856156560377,0.05987943570297608,-0.7723050850446581
329,0.09833800084591295,74.71050984688931,9.035488581610618,0.06269657521637996,-0.7496053713417121
330,0.09833783287435194,74.71050984688931,9.033817643992052,0.06452951748749185,-0.7345933445924927
331,0.09833766491512431,74.71050984688931,9.031891190572162,0.06520129768451449,-0.7283677883429174
332,0.09833749696827662,74.71050984688931,9.029847575281952,0.06468030143720487,-0.7312986545512885
333,0.09833732903385545,74.71050984688931,9.027902023411459,0.06308438344900741,-0.742993486964944
334,0.09833716111190735,74.71050984688931,9.026296590739987,0.06065734787616016,-0.7623685792781089
335,0.09833699320247892,74.71050984688931,9.025241178915138,0.05772583969670395,-0.787812398921718
336,0.09833682530561673,74.71050984688931,9.024870630650794,0.054644138256102676,-0.8174152228879448
337,0.09833665742136737,74.71050984688931,9.025222836530423,0.0517359613159228,-0.8492243356084511
338,0.09833648954977744,74.71050984688931,9.026231789825829,0.049246469505665844,-0.8814768561279164
339,0.09833632169089351,74.71050984688931,9.02773467397369,0.047316207160550204,-0.9127692540412663
340,0.09833615384476213,74.71050984688931,9.029496422228094,0.04598058145483512,-0.9421409410076839
341,0.09833598601142987,74.71050984688931,9.031247629032162,0.04518881715551103,-0.9690716951063639
342,0.0983358181909433,74.71050984688931,9.03272383077632,0.0448316202081594,-0.9934112808152243
343,0.09833565038334899,74.71050984688931,9.033697944936545,0.04476920536519699,-1.0152689288688745
344,0.09833548258869351,74.71050984688931,9.034005206692129,0.044855336477299335,-1.03488799572867
345,0.09833531480702344,74.71050984688931,9.033564745556866,0.044955868115255766,-1.0525207170352648
346,0.09833514703838535,74.71050984688931,9.032405166772648,0.04496533585260139,-1.0683124686671237
347,0.09833497928282582,74.71050984688931,9.0306898960017,0.04482660356884454,-1.082214388890768
348,0.09833481154039139,74.71050984688931,9.028717299546702,0.044548516727482904,-1.0939556003297266
349,0.09833464381112865,74.71050984688931,9.02687812017215,0.04420715481922085,-1.1030969322795576
350,0.09833447609508414,74.71050984688931,9.025589536126738,0.04392387652625169,-1.1091547366321057
351,0.09833430839230448,74.71050984688931,9.02524365869299,0.04383005103100404,-1.1117551561291557
352,0.09833414070283623,74.71050984688931,9.02618366530235,0.044034472074558476,-1.1107799912132044
353,0.09833397302672596,74.71050984688931,9.028687915731174,0.04460105050241556,-1.1064849941841233
354,0.09833380536402024,74.71050984688931,9.032941157258191,0.04553404343380597,-1.0995819923971677
355,0.09833363771476565,74.71050984688931,9.038994985177588,0.046767660751438296,-1.0912667535783378
356,0.09833347007900876,74.71050984688931,9.046735716138105,0.04816528011656226,-1.0831659759445487
357,0.09833330245679615,74.71050984688931,9.05586681872261,0.0495369736840009,-1.0771947860290414
358,0.09833313484817442,74.71050984688931,9.065893951243718,0.050674333918730705,-1.0753498981394243
359,0.09833296725319013,74.71050984688931,9.076110503293355,0.051389254548452064,-1.0794796272308622
360,0.09833279967188985,74.71050984688931,9.08561212373238,0.051543324591269896,-1.091062263093965
361,0.09833263210432015,74.71050984688931,9.093375263804786,0.05106655763242613,-1.1110094729706423
362,0.09833246455052759,74.71050984688931,9.09839824115662,0.04997226480083514,-1.139508798822296
363,0.09833229701055879,74.71050984688931,9.099861800476388,0.048368428901531584,-1.1759289928133736
364,0.09833212948446032,74.71050984688931,9.097265204942353,0.04645593207227561,-1.2188209212054684
365,0.09833196197227878,74.71050984688931,9.090518364969494,0.04450382398174137,-1.266038707499622
366,0.09833179447406075,74.71050984688931,9.0799811800976,0.0428000564209591,-1.3149760323341033
367,0.09833162698985279,74.71050984688931,9.06643500453261,0.04158839598800967,-1.3628776020597075
368,0.09833145951970142,74.71050984688931,9.050973784494666,0.04101408200575759,-1.4071653127092272
369,0.0983312920636532,74.71050984688931,9.03482898775741,0.04110019794746433,-1.4457159763363976
370,0.09833112462175471,74.71050984688931,9.019168108620844,0.0417588561359517,-1.4770403837753905
371,0.0983309571940525,74.71050984688931,9.004914604255491,0.0428231290660236,-1.50033757066543
372,0.09833078978059319,74.71050984688931,8.992644441866013,0.04408471357154989,-1.5154235439000947
373,0.09833062238142337,74.71050984688931,8.982600069013223,0.04533245708060374,-1.5225590607812522
374,0.0983304549965896,74.71050984688931,8.974798070878041,0.04639162107699139,-1.5222295511998865
375,0.09833028762613845,74.71050984688931,8.969145106351148,0.04715852788614341,-1.51494927777528
376,0.0983301202701165,74.71050984688931,8.96549269006049,0.04761910265960555,-1.5011487577598712
377,0.09832995292857037,74.71050984688931,8.963642700062028,0.0478430530403221,-1.4811588402842883
378,0.09832978560154665,74.71050984688931,8.963364999112175,0.04795598878257912,-1.4552617536960064
379,0.0983296182890919,74.71050984688931,8.964449742303616,0.04809988343428169,-1.4237698114196724
380,0.09832945099125268,74.71050984688931,8.966749672758628,0.048393818993468556,-1.3871059045046292
381,0.09832928370807555,74.71050984688931,8.970164321176426,0.04890442717651329,-1.3458686417128796
382,0.09832911643960705,74.71050984688931,8.9745900642661,0.04963253992392686,-1.3008627474732102
383,0.09832894918589376,74.71050984688931,8.979904877059425,0.05051855940903976,-1.2530803320594663
384,0.0983287819469822,74.71050984688931,8.985999601106512,0.05146228822447816,-1.2036408270592887
385,0.09832861472291897,74.71050984688931,8.992793198287766,0.05234847454252342,-1.153716624369264
386,0.09832844751375064,74.71050984688931,9.000186004095898,0.05307113311676231,-1.1044666552401112
387,0.0983282803195238,74.71050984688931,9.007989535064313,0.05355407342914578,-1.0569799838263754
388,0.09832811314028504,74.71050984688931,9.01590782525915,0.053766617372092936,-1.0122226771889624
389,0.09832794597608095,74.71050984688931,9.023585361711522,0.053731053322041866,-0.9709940087176389
390,0.09832777882695812,74.71050984688931,9.030669856465671,0.05351652219699122,-0.9339102676632669
391,0.09832761169296311,74.71050984688931,9.03684397657553,0.05321756938872242,-0.9014224526050236
392,0.0983274445741425,74.71050984688931,9.041832818515491,0.05292340937339175,-0.8738488735347324
393,0.09832727747054287,74.71050984688931,9.045421941094084,0.05269044702341558,-0.8513949530158738
394,0.09832711038221077,74.71050984688931,9.04749382236595,0.05252992122000653,-0.8341479481582003
395,0.09832694330919278,74.71050984688931,9.048058625563002,0.052413612511861704,-0.8220551833522987
396,0.09832677625153546,74.71050984688931,9.04726296467505,0.05229045712538345,-0.8149036378950417
397,0.09832660920928542,74.71050984688931,9.045380250107787,0.05210420002641711,-0.812314465914843
398,0.09832644218248919,74.71050984688931,9.042785107931804,0.051806615801846034,-0.8137561785498748
399,0.09832627517119336,74.71050984688931,9.039907505704276,0.051365877036095735,-0.8185727961388732
400,0.0983261081754445,74.71050984688931,9.03717255976262,0.05077185598168812,-0.8260210421413047
401,0.09832594119528917,74.71050984688931,9.034943761875232,0.05003971431537275,-0.8353139231608274
402,0.09832577423077393,74.71050984688931,9.033481051184092,0.049212334115387106,-0.8456718643198264
403,0.09832560728194537,74.71050984688931,9.032915993948361,0.04836252669976031,-0.8563801441174714
404,0.09832544034885005,74.71050984688931,9.033244741586547,0.047594063740708,-0.8668481990853848
405,0.09832527343153455,74.71050984688931,9.034335818399198,0.04703551558727554,-0.8766698883710337
406,0.09832510653004545,74.71050984688931,9.035947043025907,0.04682033743774565,-0.8856852675652365
407,0.09832493964442934,74.71050984688931,9.03774859592292,0.04705329503224282,-0.8940349379974613
408,0.09832477277473281,74.71050984688931,9.03935177870483,0.047770991831062246,-0.902185111713139
409,0.09832460592100242,74.71050984688931,9.040350005739839,0.04891037768345845,-0.9108958578623293
410,0.09832443908328478,74.71050984688931,9.04038718512921,0.05030210049763255,-0.9211135590321146
411,0.09832427226162643,74.71050984688931,9.039250840950237,0.05169864872799121,-0.9337955724816086
412,0.09832410545607397,74.71050984688931,9.036946141656896,0.05282931637292902,-0.9497079392270192
413,0.09832393866667398,74.71050984688931,9.03369997389149,0.053458900385331444,-0.9692505241580741
414,0.09832377189347308,74.71050984688931,9.029893296661125,0.05343025343070182,-0.9923485549121703
415,0.0983236051365178,74.71050984688931,9.025970090866618,0.05268660454235334,-1.0184202378588767
416,0.0983234383958547,74.71050984688931,9.022368670817263,0.051277191777069686,-1.0464118411937684
417,0.09832327167153032,74.71050984688931,9.019477263629678,0.0493457101679364,-1.074893432050396
418,0.09832310496359126,74.71050984688931,9.01759057518113,0.047101167532557164,-1.1022102849443791
419,0.09832293827208406,74.71050984688931,9.01686662725686,0.04477995327439096,-1.1266679369415822
420,0.09832277159705533,74.71050984688931,9.017311939589279,0.04261440208872772,-1.1467097197397216
421,0.09832260493855156,74.71050984688931,9.01881107804015,0.0408177903271829,-1.1610556560462868
422,0.09832243829661937,74.71050984688931,9.021173906132235,0.039581515840761194,-1.168806755441384
423,0.09832227167130535,74.71050984688931,9.024158722837816,0.03906966524161274,-1.1695369689264776
424,0.09832210506265611,74.71050984688931,9.027467982180777,0.039399637243577736,-1.1633741158370483
425,0.09832193847071823,74.71050984688931,9.030752609486406,0.040611313027068476,-1.1510400097138385
426,0.09832177189553824,74.71050984688931,9.033650858179545,0.04263898987174443,-1.133816951559742
427,0.09832160533716273,74.71050984688931,9.035847225092459,0.04530086181904611,-1.1134339730907954
428,0.0983214387956383,74.71050984688931,9.037116701730175,0.04831224498704611,-1.0918931478348155
429,0.09832127227101149,74.71050984688931,9.037341710300131,0.05132158966975869,-1.071262246381305
430,0.09832110576332886,74.71050984688931,9.036521778971007,0.05396568389339292,-1.0534523630168302
431,0.09832093927263699,74.71050984688931,9.034790747002633,0.05593410506772985,-1.0400013744274295
432,0.09832077279898248,74.71050984688931,9.03241897409082,0.05702358960041372,-1.0319006693110766
433,0.09832060634241191,74.71050984688931,9.02977059135476,0.05716415897545606,-1.0295078733369125
434,0.09832043990297187,74.71050984688931,9.027225617779202,0.05641279506855892,-1.0325639191070088
435,0.0983202734807089,74.71050984688931,9.02510795892435,0.05492417177366392,-1.040296101820067
436,0.0983201070756696,74.71050984688931,9.023649620092009,0.05291332882175732,-1.0515675700531724
437,0.09831994068790055,74.71050984688931,9.022989737415841,0.050622867460610864,-1.06503563940842
438,0.0983197743174483,74.71050984688931,9.02318502936001,0.048300256345266836,-1.0792972103666685
439,0.09831960796435946,74.71050984688931,9.024210870523786,0.04618337309214957,-1.0930168876821273
440,0.09831944162868056,74.71050984688931,9.02595435947133,0.04448868440290598,-1.1050411775002402
441,0.09831927531045817,74.71050984688931,9.028218293613836,0.043397524327358786,-1.1145004828455336
442,0.09831910900973888,74.71050984688931,9.03074255923066,0.04303777283615414,-1.120897947165285
443,0.09831894272656924,74.71050984688931,9.033228695650424,0.04346040002103468,-1.1241781350931779
444,0.09831877646099585,74.71050984688931,9.035362895819802,0.04461778023877447,-1.1247566370161866
445,0.09831861021306526,74.71050984688931,9.036852289435288,0.04635805850579005,-1.1234878546586728
446,0.09831844398282405,74.71050984688931,9.037479024824119,0.04844375914487621,-1.1215638339916025
447,0.0983182777703188,74.71050984688931,9.037146704719367,0.05058576487230016,-1.1203616882694452
448,0.09831811157559611,74.71050984688931,9.035889215496791,0.05247698795648804,-1.1212661273269124
449,0.09831794539870253,74.71050984688931,9.03384460555027,0.053822574806047956,-1.1254805719026129
450,0.09831777923968463,74.71050984688931,9.031225470917255,0.054376642928106,-1.1338319861809696
451,0.09831761309858898,74.71050984688931,9.028307176262517,0.05399083324861511,-1.1465917350031827
452,0.09831744697546219,74.71050984688931,9.025416375107076,0.05266123846333424,-1.1633613506479485
453,0.09831728087035084,74.71050984688931,9.022884776758323,0.0505466736412848,-1.1830746414395241
454,0.09831711478330148,74.71050984688931,9.020969196039273,0.0479402053727794,-1.2041334247579694
455,0.09831694871436071,74.71050984688931,9.019784346862211,0.04520273134540514,-1.2246447069073314
456,0.09831678266357508,74.71050984688931,9.019291221148883,0.04268767402705989,-1.2426938932119933
457,0.09831661663099113,74.71050984688931,9.019340494193953,0.04068391056002487,-1.256588157546464
458,0.09831645061665545,74.71050984688931,9.019736000949454,0.03938662160870703,-1.265031017746013
459,0.09831628462061459,74.71050984688931,9.020285946046524,0.038889454277078045,-1.2672210972488718
460,0.09831611864291515,74.71050984688931,9.020839202377832,0.03918795024107975,-1.2628847589188266
461,0.09831595268360371,74.71050984688931,9.021324002294804,0.04019178895580464,-1.2522533671839275
462,0.09831578674272685,74.71050984688931,9.02178901491384,0.041747800105762595,-1.235996876231398
463,0.09831562082033114,74.71050984688931,9.02242043514307,0.04366924713957992,-1.2151332941368578
464,0.09831545491646318,74.71050984688931,9.023518651879488,0.045760901873497614,-1.1909364040938597
465,0.09831528903116953,74.71050984688931,9.025449687005162,0.047833858338259504,-1.164853405357762
466,0.09831512316449674,74.71050984688931,9.028596404386988,0.04971305598598982,-1.1384304576061564
467,0.09831495731649144,74.71050984688931,9.033315106013482,0.051246080849216336,-1.1132424908490888
468,0.09831479148720018,74.71050984688931,9.039882299034499,0.05231949246290075,-1.0908328120019826
469,0.09831462567666956,74.71050984688931,9.048419932243133,0.05287737409194534,-1.0726732629341642
470,0.09831445988494614,74.71050984688931,9.058809005617471,0.052927154997578836,-1.0601479552822668
471,0.09831429411207647,74.71050984688931,9.070618242989186,0.05252455858573754,-1.0545459218579296
472,0.09831412835810713,74.71050984688931,9.083074060362303,0.0517460902183587,-1.0570335921920588
473,0.09831396262308467,74.71050984688931,9.09508444167826,0.05066341594799233,-1.0685811298423937
474,0.0983137969070557,74.71050984688931,9.10532261823002,0.049327805359095596,-1.0898345597347208
475,0.09831363121006678,74.71050984688931,9.112382865050817,0.04776939146087138,-1.120945638865804
476,0.0983134655321645,74.71050984688931,9.11500874721721,0.04601478011274905,-1.1613929749552885
477,0.0983132998733954,74.71050984688931,9.112349709359481,0.044116725459950074,-1.2098499222465586
478,0.09831313423380608,74.71050984688931,9.104171080525894,0.0421795235102192,-1.264157901195411
479,0.09831296861344309,74.71050984688931,9.090952823962475,0.04036677611473948,-1.3214379172296904
480,0.09831280301235301,74.71050984688931,9.073835193060592,0.038887216472979116,-1.3783376011837276
481,0.09831263743058244,74.71050984688931,9.054407289249653,0.03796052893460611,-1.4313815373971062
482,0.09831247186817797,74.71050984688931,9.034402838716234,0.037771557329271274,-1.477365147323256
483,0.09831230632518619,74.71050984688931,9.015410080879207,0.03842672501725519,-1.5137140425010027
484,0.09831214080165367,74.71050984688931,8.998669877560527,0.039924726899733705,-1.5387402984856673
485,0.09831197529762696,74.71050984688931,8.984967813146906,0.042146977099162854,-1.5517597066015816
486,0.09831180981315263,74.71050984688931,8.974595700917504,0.04486949948356669,-1.5530642352186912
487,0.09831164434827726,74.71050984688931,8.967388642696264,0.04779625767601072,-1.5437641078929565
488,0.09831147890304741,74.71050984688931,8.962862701980734,0.05060831746926386,-1.5255348637749035
489,0.09831131347750968,74.71050984688931,8.96041999548761,0.05301738721479754,-1.5003242595628392
490,0.09831114807171065,74.71050984688931,8.959520217616541,0.05481220971402476,-1.4700787438820753
491,0.09831098268569685,74.71050984688931,8.959742986924821,0.05588837926493684,-1.43653430102932
492,0.09831081731951484,74.71050984688931,8.960771382290696,0.05625543748773317,-1.401086820948875
493,0.0983106519732112,74.71050984688931,8.96238796445073,0.05602160889128222,-1.3647331584863232
494,0.09831048664683253,74.71050984688931,8.964513257272285,0.055361379283685584,-1.32807572238056
495,0.09831032134042539,74.71050984688931,8.967219684691688,0.05447143527562254,-1.2913946794731814
496,0.09831015605403635,74.71050984688931,8.970655437953296,0.05352219418064948,-1.2547759590059981
497,0.09830999078771202,74.71050984688931,8.974922687315063,0.05261982917662709,-1.2182428130989726
498,0.09830982554149895,74.71050984688931,8.980023044196495,0.05179708112275259,-1.1818273131622736
499,0.09830966031544375,74.71050984688931,8.985901286968991,0.05103663787602708,-1.1455663549502095
500,0.09830949510959298,74.71050984688931,8.99249925946309,0.05030854358171006,-1.1094678478199842
501,0.09830932992399322,74.71050984688931,8.999735052693532,0.04959784848680979,-1.0735026569467434
502,0.09830916475869103,74.71050984688931,9.007435270423688,0.04891499910701853,-1.0376359143179381
503,0.09830899961373299,74.71050984688931,9.015315171148043,0.04829693338301838,-1.001873097371241
504,0.09830883448916565,74.71050984688931,9.023034325065463,0.0478045273434197,-0.9662997359302221
505,0.09830866938503557,74.71050984688931,9.030261416892602,0.04751263181889769,-0.9311155676176004
506,0.09830850430138935,74.71050984688931,9.036690119357836,0.04749066450724673,-0.8966648343165415
507,0.09830833923827355,74.71050984688931,9.042029213441523,0.047782683163790494,-0.8634478399528469
508,0.09830817419573476,74.71050984688931,9.046024202816383,0.0483983863633727,-0.8320988105194838
509,0.09830800917381959,74.71050984688931,9.048515701263405,0.0493158453187811,-0.8033380618622918
510,0.0983078441725746,74.71050984688931,9.04948534327726,0.05048725841664978,-0.7779214463273032
511,0.09830767919204642,74.71050984688931,9.049049109442992,0.05184021726115144,-0.7565996868637359
512,0.09830751423228157,74.71050984688931,9.047409901891712,0.05327599589872191,-0.7400818171032398
513,0.09830734929332664,74.71050984688931,9.04481448073813,0.05467264666605856,-0.7289925001732483
514,0.0983071843752282,74.71050984688931,9.041534912449364,0.05589428084182409,-0.723824482366684
515,0.0983070194780328,74.71050984688931,9.037856248951995,0.05679958854750563,-0.7248946672328453
516,0.09830685460178704,74.71050984688931,9.03405947538154,0.05724955798778368,-0.7323022914596838
517,0.09830668974653747,74.71050984688931,9.030410206981363,0.05712401903773642,-0.7458800594177977
518,0.09830652491233069,74.71050984688931,9.027153565041967,0.05634850965077639,-0.7651419421810107
519,0.09830636009921329,74.71050984688931,9.024502300135083,0.05491836019393184,-0.789247003248258
520,0.09830619530723184,74.71050984688931,9.022619441257506,0.052907293208120446,-0.8169961013120631
521,0.0983060305364329,74.71050984688931,9.021610321737537,0.05046044789480029,-0.8468679771986634
522,0.09830586578686301,74.71050984688931,9.021525381193044,0.0477806902256738,-0.8770998581912588
523,0.09830570105856871,74.71050984688931,9.022360618027792,0.045114692090362125,-0.905817966023844
524,0.09830553635159663,74.71050984688931,9.024051667173534,0.042735897830435174,-0.9312122273164477
525,0.09830537166599332,74.71050984688931,9.026468871860816,0.040916248975341095,-0.9517346682365628
526,0.09830520700180534,74.71050984688931,9.029414783220291,0.03988383472147316,-0.9662942224040503
527,0.09830504235907929,74.71050984688931,9.03262023987896,0.039774787237251516,-0.9744164875401945
528,0.09830487773786174,74.71050984688931,9.035747521832953,0.04059608298788281,-0.9763306681387552
529,0.0983047131381993,74.71050984688931,9.038421407784098,0.04221661392118806,-0.9729499229167369
530,0.09830454856013854,74.71050984688931,9.04029698342895,0.044394846576272344,-0.9657353111430634
531,0.09830438400372606,74.71050984688931,9.041141848775416,0.046834719745707326,-0.9564701008634137
532,0.09830421946900841,74.71050984688931,9.04088803375338,0.04924848445028357,-0.9470025053783286
533,0.09830405495603219,74.71050984688931,9.039623017409488,0.05140518379463206,-0.939020732042561
534,0.09830389046484395,74.71050984688931,9.037534000111256,0.053152616322502094,-0.933899787018447
535,0.09830372599549025,74.71050984688931,9.034852457678312,0.0544136386558255,-0.9326251557602399
536,0.0983035615480177,74.71050984688931,9.031834774269855,0.055168967064098566,-0.9357778855341156
537,0.09830339712247282,74.71050984688931,9.028769638507633,0.055437372865805835,-0.9435639329817286
538,0.09830323271890219,74.71050984688931,9.025976481424195,0.055254445241420286,-0.9558738016791145
539,0.09830306833735238,74.71050984688931,9.023785377683351,0.054650457418941305,-0.9723523694210335
540,0.09830290397786995,74.71050984688931,9.022522685031221,0.05363535026020436,-0.9924536670854851
541,0.09830273964050147,74.71050984688931,9.022515647313746,0.05219949618552376,-1.0154708098947307
542,0.09830257532529355,74.71050984688931,9.024091029311881,0.050329639342124845,-1.0405577095415142
543,0.09830241103229279,74.71050984688931,9.027533155409722,0.04803104576441366,-1.066764629935582
544,0.09830224676154577,74.71050984688931,9.033008053783815,0.045350590923146306,-1.0930863904863273
545,0.09830208251309906,74.71050984688931,9.040501647029371,0.04240406252618486,-1.1185036384120903
546,0.09830191828699926,74.71050984688931,9.049795473136356,0.03940449328899965,-1.1420174571460515
547,0.09830175408329293,74.71050984688931,9.060446043251552,0.036670207565312064,-1.1627159183845672
548,0.09830158990202666,74.71050984688931,9.071740260035826,0.03458950307689439,-1.1799090329669624
549,0.098301425743247,74.71050984688931,9.082667653854076,0.03354234671588674,-1.1933113935174124
550,0.09830126160700052,74.71050984688931,9.091981556185408,0.03380485426412101,-1.2031981719969354
551,0.09830109749333381,74.71050984688931,9.098376972633929,0.035469958547185425,-1.2104606458671743
552,0.09830093340229343,74.71050984688931,9.100741025472555,0.03840946579187299,-1.2165299284340896
553,0.09830076933392595,74.71050984688931,9.098387648003849,0.042286071502276444,-1.2231839513354403
554,0.09830060528827794,74.71050984688931,9.091198839143225,0.04660725754109387,-1.2322791303470497
555,0.09830044126539599,74.71050984688931,9.079644228312402,0.05080717865999586,-1.2454525041680244
556,0.09830027726532663,74.71050984688931,9.064693277013316,0.0543438703986447,-1.2638371320156025
557,0.09830011328811643,74.71050984688931,9.047649032694533,0.05679361280281156,-1.287835148661142
558,0.09829994933381195,74.71050984688931,9.029941040863969,0.05791802020215356,-1.3169921089318954
559,0.0982997854024598,74.71050984688931,9.012927668449567,0.05768840477763554,-1.350001756609163
560,0.0982996214941066,74.71050984688931,8.997741894982552,0.056269983466531726,-1.3848460457723086
561,0.09829945760879895,74.71050984688931,8.985177428956515,0.05397740736739214,-1.4190493021887212
562,0.09829929374658337,74.71050984688931,8.975617777215186,0.05121188911163562,-1.4500003826950807
563,0.09829912990750649,74.71050984688931,8.96904259502937,0.04839018658047456,-1.475280437786804
564,0.09829896609161487,74.71050984688931,8.965122883373825,0.04587910084348884,-1.4929356780065441
565,0.09829880229895509,74.71050984688931,8.963354298231222,0.04394868107539661,-1.5016536149525042
566,0.0982986385295737,74.71050984688931,8.963164900500349,0.042749789165126006,-1.5008294522537922
567,0.09829847478351725,74.71050984688931,8.96399291114034,0.0423127162773147,-1.490534236006831
568,0.09829831106083232,74.71050984688931,8.96537265697457,0.042559560766077406,-1.471409347747939
569,0.09829814736156554,74.71050984688931,8.967025678370318,0.043324783079372944,-1.4445141704528017
570,0.09829798368576345,74.71050984688931,8.968900255479895,0.04438320896385166,-1.4111497223527663
571,0.09829782003347262,74.71050984688931,8.971126098009782,0.04548877193353002,-1.3726762855368513
572,0.09829765640473964,74.71050984688931,8.973926785174642,0.04642508149177779,-1.3303436283545007
573,0.09829749279961109,74.71050984688931,8.977558984785173,0.047057654929123865,-1.285160039434372
574,0.09829732921813351,74.71050984688931,8.982284415423239,0.047365683566216885,-1.2378340058769524
575,0.09829716566035349,74.71050984688931,8.98831805353924,0.04743482930298709,-1.1888136192199368
576,0.09829700212631758,74.71050984688931,8.995725683978096,0.04741416143271663,-1.1384134849248553
577,0.09829683861607237,74.71050984688931,9.004331093684485,0.047461781495831495,-1.0869748951873848
578,0.09829667512966445,74.71050984688931,9.013719233720327,0.04770660051699609,-1.0349922337793622
579,0.09829651166714033,74.71050984688931,9.023339797865672,0.04823629712064351,-0.9831737204714865
580,0.09829634822854662,74.71050984688931,9.032626282576924,0.04909838477544552,-0.932451933064894
581,0.0982961848139299,74.71050984688931,9.041055241540219,0.050294810625237156,-0.883971297502818
582,0.09829602142333675,74.71050984688931,9.048155195377538,0.05176844024421576,-0.8390551118426897
583,0.09829585805681372,74.71050984688931,9.053524434753756,0.05339911951100811,-0.7991347033482821
584,0.09829569471440738,74.71050984688931,9.056882202038212,0.055023034465105126,-0.765632619406136
585,0.09829553139616432,74.71050984688931,9.05812431326297,0.05646926490900267,-0.73981522519911
586,0.0982953681021311,74.71050984688931,9.057343190913382,0.05759390333353757,-0.7226461866657846
587,0.09829520483235436,74.71050984688931,9.05479457242837,0.05829490968285315,-0.7146737161127351
588,0.09829504158688068,74.71050984688931,9.05082816221264,0.05850621332572675,-0.7159695946695717
589,0.09829487836575665,74.71050984688931,9.045825960328663,0.05818549482779723,-0.7261120824031507
590,0.09829471516902884,74.71050984688931,9.040182753578888,0.05731404900446997,-0.7441876635602803
591,0.09829455199674383,74.71050984688931,9.034320767331982,0.05591513860826158,-0.7687996612610496
592,0.09829438884894821,74.71050984688931,9.02869572694108,0.05407829225764122,-0.7981073200476964
593,0.09829422572568854,74.71050984688931,9.023762262989111,0.05196849002709758,-0.8299365921119385
594,0.09829406262701139,74.71050984688931,9.019908576995384,0.049809652921782556,-0.8619782050784497
595,0.09829389955296335,74.71050984688931,9.017396478209747,0.04784980047820048,-0.8920435663619408
596,0.09829373650359098,74.71050984688931,9.016333827473956,0.04632299984813028,-0.9183249810481433
597,0.09829357347894085,74.71050984688931,9.016676215682436,0.04541565736124518,-0.9396135893326859
598,0.0982934104790595,74.71050984688931,9.018233682709205,0.045233675367338036,-0.9554459199358055
599,0.09829324750399351,74.71050984688931,9.020674691562105,0.04577001531618085,-0.9661557023794992
600,0.09829308455378945,74.71050984688931,9.023554495065415,0.046887881988052466,-0.9728037091731538
601,0.09829292162849389,74.71050984688931,9.02639030863355,0.04833800966725693,-0.9769746138776408
602,0.09829275872815339,74.71050984688931,9.028755017264423,0.04980736178329553,-0.9804785342787269
603,0.09829259585281455,74.71050984688931,9.030336912176603,0.05097613608468749,-0.9850329174429566
604,0.09829243300252395,74.71050984688931,9.030952711174416,0.051565064286861806,-0.9919860015821776
605,0.09829227017732814,74.71050984688931,9.030547050379024,0.051373743095484974,-1.0021033366506067
606,0.09829210737727372,74.71050984688931,9.029206014645334,0.05031822736023905,-1.015424413889299
607,0.09829194460240728,74.71050984688931,9.027169980909354,0.04846490545523906,-1.0312104315622905
608,0.09829178185277543,74.71050984688931,9.024809791467497,0.046041772630854814,-1.0480128748930957
609,0.09829161912842471,74.71050984688931,9.022559594884525,0.043410248356243936,-1.0638746495405498
610,0.09829145642940175,74.71050984688931,9.020840965961382,0.0410018097135091,-1.0766404035279313
611,0.0982912937557531,74.71050984688931,9.020013499206515,0.03923967358857489,-1.0843221863752077
612,0.09829113110752534,74.71050984688931,9.020353075160259,0.0384637816938126,-1.0854545530976443
613,0.09829096848476498,74.71050984688931,9.022038460729844,0.038869492159408985,-1.079379213906957
614,0.09829080588751865,74.71050984688931,9.025139946179033,0.0404677914238476,-1.0664139366785688
615,0.0982906433158329,74.71050984688931,9.02962494142005,0.04307456488308581,-1.04787832782978
616,0.0982904807697543,74.71050984688931,9.035390960586405,0.04633312402438031,-1.0259721772267518
617,0.09829031824932946,74.71050984688931,9.042303257051815,0.049768292180857016,-1.003528638221839
618,0.09829015575460494,74.71050984688931,9.05019735670338,0.05286543103139267,-0.9836849759897328
619,0.0982899932856273,74.71050984688931,9.058837186606096,0.05516244859488542,-0.96952114575223
620,0.0982898308424431,74.71050984688931,9.067860501243684,0.05633392034165059,-0.9637154377975018
621,0.09828966842509891,74.71050984688931,9.076749324825649,0.056243300174370556,-0.9682616181938763
622,0.09828950603364137,74.71050984688931,9.08483794846333,0.05495256041062997,-0.9842799450227072
623,0.09828934366811701,74.71050984688931,9.091352100721908,0.05269737884522874,-1.0119347506587957
624,0.09828918132857241,74.71050984688931,9.095478927327283,0.04984121911791744,-1.0504555951421657
625,0.09828901901505419,74.71050984688931,9.096475014662591,0.046815338674686055,-1.0982551310959787
626,0.0982888567276089,74.71050984688931,9.09380589016907,0.044049379939278356,-1.153133595975226
627,0.09828869446628308,74.71050984688931,9.087281441627876,0.041902018189075685,-1.2125455497265802
628,0.09828853223112333,74.71050984688931,9.077134861236384,0.04060458794445706,-1.2738860581389457
629,0.09828837002217625,74.71050984688931,9.064007545086927,0.04022819791318583,-1.3347451929551875
630,0.09828820783948837,74.71050984688931,9.048836802529689,0.040679741111768745,-1.393087496808677
631,0.09828804568310628,74.71050984688931,9.032680701342882,0.04172816743222156,-1.4473318047455541
632,0.09828788355307656,74.71050984688931,9.016542932982944,0.043058163035798847,-1.4963278370039037
633,0.09828772144944581,74.71050984688931,9.001258009667838,0.04434170779876349,-1.53924900824218
634,0.0982875593722606,74.71050984688931,8.987457755829208,0.045311210516057514,-1.5754460129303045
635,0.09828739732156748,74.71050984688931,8.975589719667346,0.04581508026636686,-1.6043178696134184
636,0.09828723529741305,74.71050984688931,8.965938548110417,0.04584025973306326,-1.625242968355951
637,0.09828707329984386,74.71050984688931,8.958634857624233,0.045497041633324665,-1.637583775830894
638,0.09828691132890645,74.71050984688931,8.953677580525191,0.04497483980485172,-1.6407556836738246
639,0.09828674938464742,74.71050984688931,8.950983721149319,0.04448494562437206,-1.6343374408354876
640,0.09828658746711338,74.71050984688931,8.950432866273982,0.04420456669449571,-1.6181918076522885
641,0.09828642557635092,74.71050984688931,8.951869744931843,0.044232961589101095,-1.592557695476596
642,0.0982862637124066,74.71050984688931,8.955088708347786,0.044571255343850986,-1.5580742845301443
643,0.09828610187532699,74.71050984688931,8.959859062896065,0.045135090317629176,-1.515718561332843
644,0.09828594006515866,74.71050984688931,8.965991805617733,0.0457965036988353,-1.4666805080251415
645,0.09828577828194816,74.71050984688931,8.97337394064836,0.046436246199986674,-1.4122324229095224
646,0.09828561652574212,74.71050984688931,8.981913410987891,0.04698324223110252,-1.3536424756968541
647,0.09828545479658715,74.71050984688931,8.991436880199977,0.047428670805327255,-1.2921469665631216
648,0.09828529309452978,74.71050984688931,9.00163765370297,0.04781843473989885,-1.2289638916762278
649,0.0982851314196166,74.71050984688931,9.012106077153366,0.04823504348580109,-1.165322944375602
650,0.09828496977189422,74.71050984688931,9.022387599973287,0.04877626411768144,-1.1024958079076812
651,0.09828480815140916,74.71050984688931,9.032013498642133,0.049531246091734114,-1.0418193608414732
652,0.098284646558208,74.71050984688931,9.040510251490574,0.05055250171694944,-0.9847053131566086
653,0.09828448499233729,74.71050984688931,9.047427916521192,0.0518277800896554,-0.9326232242284331
654,0.09828432345384365,74.71050984688931,9.052403343720473,0.05326580500887917,-0.8870411432548995
655,0.09828416194277365,74.71050984688931,9.055235801062041,0.05471092613873104,-0.8493211841278174
656,0.09828400045917385,74.71050984688931,9.055937502778471,0.05598390858775989,-0.8205908094744153
657,0.09828383900309084,74.71050984688931,9.05473019495843,0.05692429172980782,-0.8016235908163551
658,0.09828367757457121,74.71050984688931,9.05198809949152,0.05741120185299948,-0.7927542401725645
659,0.0982835161736615,74.71050984688931,9.048158715933388,0.057362459629925186,-0.7938331903027606
660,0.09828335480040827,74.71050984688931,9.043702023175145,0.056728800254284194,-0.8042126780377772
661,0.09828319345485811,74.71050984688931,9.039067424820868,0.055497573716267554,-0.8227570286032937
662,0.0982830321370576,74.71050984688931,9.034690370599687,0.053707517530771125,-0.8478827881666762
663,0.09828287084705331,74.71050984688931,9.030971511691352,0.051464480362324455,-0.8776459987232487
664,0.09828270958489185,74.71050984688931,9.028221000457412,0.04894254057549665,-0.9098870171552731
665,0.09828254835061982,74.71050984688931,9.026592380348395,0.04636077276071789,-0.9424158073384513
666,0.09828238714428376,74.71050984688931,9.026052280268663,0.043942243471725984,-0.9731954328321968
667,0.09828222596593027,74.71050984688931,9.026406576700824,0.04187442536374731,-1.0004828513967727
668,0.09828206481560592,74.71050984688931,9.02736277425917,0.0402886373547373,-1.0229092619392508
669,0.0982819036933573,74.71050984688931,9.028599303509498,0.03926558729558381,-1.0395066828104114
670,0.09828174259923095,74.71050984688931,9.02982867815891,0.038861097677815065,-1.0497034941708785
671,0.09828158153327342,74.71050984688931,9.030847326000345,0.03913343901046569,-1.0533189795491218
672,0.0982814204955313,74.71050984688931,9.031552293646394,0.04014869828085508,-1.0505845846694184
673,0.09828125948605117,74.71050984688931,9.031906010847212,0.041951167881736084,-1.0422014755912214
674,0.0982810985048796,74.71050984688931,9.031867140566796,0.04450835099350686,-1.029406286285104
675,0.09828093755206314,74.71050984688931,9.031345219345098,0.04766037674124771,-1.0139789405155153
676,0.09828077662764842,74.71050984688931,9.030225350090666,0.05110699964386817,-0.9981269367240844
677,0.09828061573168198,74.71050984688931,9.028443364960212,0.05444725738565237,-0.9842343461415528
678,0.09828045486421041,74.71050984688931,9.026044932423925,0.05725893876334651,-0.9745323303441086
679,0.09828029402528034,74.71050984688931,9.023188871846399,0.05918599038084403,-0.9707789277704321
680,0.09828013321493831,74.71050984688931,9.020111592750828,0.06000151848835085,-0.974019544833046
681,0.09827997243323093,74.71050984688931,9.01709098034406,0.05963063674291077,-0.9844625917451897
682,0.09827981168020476,74.71050984688931,9.01442362103393,0.05813889083187901,-1.0014724522342242
683,0.09827965095590635,74.71050984688931,9.012398658625916,0.05570241743440707,-1.023663563833459
684,0.09827949026038228,74.71050984688931,9.01125737826864,0.05257370133547334,-1.0490706379451562
685,0.09827932959367913,74.71050984688931,9.01115747576526,0.049053129043997404,-1.0753657482807795
686,0.09827916895584347,74.71050984688931,9.012166779540175,0.04547296685187997,-1.1000961865350378
687,0.09827900834692188,74.71050984688931,9.014276901636263,0.04218884357646868,-1.1209296568814318
688,0.09827884776696097,74.71050984688931,9.017399850548347,0.039561900921636285,-1.1359034549880378
689,0.09827868721600727,74.71050984688931,9.021337113398582,0.03791819108035696,-1.143666793329171
690,0.0982785266941074,74.71050984688931,9.025756115440288,0.03748786834820301,-1.1436843890090567
691,0.09827836620130792,74.71050984688931,9.030212013787372,0.038342675982080035,-1.1363542160117979
692,0.0982782057376554,74.71050984688931,9.034215442262559,0.040357766953383306,-1.1229968405458306
693,0.09827804530319642,74.71050984688931,9.037313517499982,0.0432167398270603,-1.1056969003796069
694,0.09827788489797754,74.71050984688931,9.039153560994478,0.046461198604488704,-1.0870089018663884
695,0.09827772452204536,74.71050984688931,9.039529549224847,0.049572756591835625,-1.0695694849956017
696,0.09827756417544645,74.71050984688931,9.038424791137528,0.05206958757657337,-1.0556824933766311
697,0.09827740385822738,74.71050984688931,9.036035078753404,0.053595107546429106,-1.046958874266406
698,0.09827724357043476,74.71050984688931,9.032737682527214,0.05397726369882795,-1.0440875374665122
699,0.09827708331211515,74.71050984688931,9.02900776431742,0.053247322400815394,-1.046777636908841
700,0.09827692308331513,74.71050984688931,9.025325464788798,0.051619144540968,-1.0538675467149539
701,0.09827676288408126,74.71050984688931,9.022110725062326,0.04943833208718017,-1.0635666403700161
702,0.09827660271446009,74.71050984688931,9.019685902512485,0.04711525277209027,-1.0737824066373511
703,0.09827644257449823,74.71050984688931,9.018246656639521,0.045055622956349656,-1.0824756441347216
704,0.09827628246424226,74.71050984688931,9.017837470074767,0.04359830764260117,-1.0879826279540072
705,0.09827612238373871,74.71050984688931,9.018349174212867,0.04296654390766033,-1.08925249165405
706,0.09827596233303416,74.71050984688931,9.019552791325536,0.04323813150208557,-1.0859676444549218
707,0.09827580231217517,74.71050984688931,9.021161106666531,0.04434037573619824,-1.0785393216285137
708,0.09827564232120833,74.71050984688931,9.02289015577257,0.04607233671132305,-1.0679929558812227
709,0.09827548236018029,74.71050984688931,9.024499009653743,0.048148481542618825,-1.055770348516237
710,0.09827532242913758,74.71050984688931,9.025811790967216,0.05025133383643647,-1.043480848035023
711,0.09827516252812678,74.71050984688931,9.026735822170584,0.05208235935805603,-1.032643112858028
712,0.09827500265719444,74.71050984688931,9.027269728187623,0.05340410986744946,-1.0244685116872831
713,0.09827484281638715,74.71050984688931,9.027484650138037,0.05406877376646744,-1.0197277553899327
714,0.09827468300575151,74.71050984688931,9.027485513821079,0.05403212261115151,-1.018710576120436
715,0.09827452322533406,74.71050984688931,9.02738036375064,0.05335461607193813,-1.0212597820018912
716,0.09827436347518138,74.71050984688931,9.027271901951648,0.052189243748047225,-1.0268568096570065
717,0.09827420375534009,74.71050984688931,9.027252353178069,0.05075300321904625,-1.034744822290284
718,0.09827404406585677,74.71050984688931,9.027375236575098,0.04928244116012709,-1.0440742200119901
719,0.09827388440677802,74.71050984688931,9.027614405049047,0.04798372534578949,-1.0540406883364046
720,0.09827372477815041,74.71050984688931,9.027852972067608,0.04699505959734478,-1.0639788653721334
721,0.0982735651800205,74.71050984688931,9.027923156617254,0.04637389626194708,-1.0733943129729266
722,0.09827340561243487,74.71050984688931,9.027668152819542,0.046107439338557384,-1.0819482049430587
723,0.09827324607544012,74.71050984688931,9.026982323661322,0.046135757213644865,-1.0894201416402318
724,0.0982730865690828,74.71050984688931,9.02582077497784,0.0463766722963161,-1.095663124820598
725,0.09827292709340951,74.71050984688931,9.024202341032723,0.04674573830479262,-1.1005585404337779
726,0.09827276764846683,74.71050984688931,9.022223061334609,0.04716944839937676,-1.103985007207125
727,0.09827260823430134,74.71050984688931,9.020071287273183,0.04759309758334561,-1.1058148747094427
728,0.09827244885095957,74.71050984688931,9.018026348419411,0.04798537295123775,-1.1059389177021075
729,0.09827228949848806,74.71050984688931,9.016435788571023,0.04833996966540307,-1.104308036418486
730,0.09827213017693338,74.71050984688931,9.015681763009349,0.048671554129756774,-1.1009836866032532
731,0.09827197088634214,74.71050984688931,9.016147962970146,0.04900353415603932,-1.0961972853746855
732,0.09827181162676092,74.71050984688931,9.018187240788313,0.049350148647081885,-1.090415887977114
733,0.09827165239823632,74.71050984688931,9.022083706905658,0.04969987453998246,-1.0843987303917684
734,0.0982714932008149,74.71050984688931,9.028007325406788,0.05000655619923467,-1.0792213181533163
735,0.09827133403454322,74.71050984688931,9.035966408487834,0.050191221581910736,-1.0762474304204268
736,0.09827117489946785,74.71050984688931,9.045767312527431,0.050154105931981274,-1.0770430387506733
737,0.09827101579563542,74.71050984688931,9.05698466331562,0.04979283441213306,-1.0832428957336078
738,0.09827085672309252,74.71050984688931,9.068938213925044,0.049021144105923876,-1.096388338715228
739,0.0982706976818857,74.71050984688931,9.080685974616637,0.04778560288675858,-1.1177497563962857
740,0.09827053867206158,74.71050984688931,9.091066653740787,0.0460808275813565,-1.1481418032268138
741,0.09827037969366668,74.71050984688931,9.09881815872748,0.04396141257216306,-1.187745046617826
742,0.0982702207467476,74.71050984688931,9.102760578851418,0.04154570117171126,-1.2359597916889478
743,0.09827006183135087,74.71050984688931,9.102001837119918,0.03900870097793028,-1.2913252993888802
744,0.0982699029475231,74.71050984688931,9.09611968525824,0.03656536238585841,-1.351534768945215
745,0.09826974409531083,74.71050984688931,9.085279465950206,0.03444564599659774,-1.4135647554617257
746,0.09826958527476067,74.71050984688931,9.070253897915439,0.03286267522052891,-1.4739192978884095
747,0.09826942648591915,74.71050984688931,9.052325881776982,0.031980610348587866,-1.5289618751315797
748,0.09826926772883288,74.71050984688931,9.033089928046314,0.03189580254285709,-1.5752785777913623
749,0.09826910900354846,74.71050984688931,9.014205444017689,0.03264147584759662,-1.6100084467068736
750,0.09826895031011251,74.71050984688931,8.997153259420891,0.03420860149865897,-1.6311047182476988
751,0.09826879164857161,74.71050984688931,8.983022179259036,0.03656058529510003,-1.6375210112011258
752,0.09826863301897229,74.71050984688931,8.972364654331571,0.039626789214498324,-1.6293130942574816
753,0.09826847442136116,74.71050984688931,8.965180801527648,0.04328099262939332,-1.6076300096135514
754,0.09826831585578481,74.71050984688931,8.961039962710709,0.04732206977019737,-1.5745780128700386
755,0.09826815732228981,74.71050984688931,8.959260152967813,0.05147108614686564,-1.5329722529140013
756,0.09826799882092271,74.71050984688931,8.959055242168125,0.055391705104528725,-1.4860104947296737
757,0.09826784035173007,74.71050984688931,8.959650573327155,0.058734011023906386,-1.4369006354476195
758,0.09826768191475843,74.71050984688931,8.960423750039896,0.06119258194467543,-1.3884774047494461
759,0.09826752351005436,74.71050984688931,8.961058436190843,0.0625597987866757,-1.3428712884967473
760,0.09826736513766444,74.71050984688931,8.961614455162918,0.06275602269825821,-1.301308539963389
761,0.09826720679763533,74.71050984688931,8.96244986467664,0.0618314291888034,-1.2640833493608687
762,0.09826704849001361,74.71050984688931,8.964051089072077,0.0599479268626348,-1.2306760310075762
763,0.09826689021484586,74.71050984688931,8.966887602710358,0.057352720990395914,-1.1999583427221694
764,0.09826673197217863,74.71050984688931,8.971337917248793,0.05434833649253432,-1.1704435315735942
765,0.09826657376205848,74.71050984688931,8.977638419755463,0.051258610704318135,-1.1405604669415323
766,0.098266415584532,74.71050984688931,8.985806842835752,0.04839335811079163,-1.1089264850373215
767,0.09826625743964575,74.71050984688931,8.995576829304827,0.04601943872904282,-1.0745754071631648
768,0.09826609932744629,74.71050984688931,9.00642289922104,0.04434342685102389,-1.0370992412646154
769,0.0982659412479802,74.71050984688931,9.017679268660034,0.04350300985438756,-0.9966953453725219
770,0.0982657832012941,74.71050984688931,9.028664670058902,0.04356077299447162,-0.9541436692764061
771,0.09826562518743455,74.71050984688931,9.038742864044906,0.044498005894774574,-0.9107396241981119
772,0.09826546720644812,74.71050984688931,9.047338913269963,0.0462109714679019,-0.868189715853244
773,0.09826530925838137,74.71050984688931,9.053970539722668,0.04851212277563926,-0.8284706456778311
774,0.0982651513432809,74.71050984688931,9.058306510576324,0.051137436807007525,-0.7936588223926119
775,0.09826499346119331,74.71050984688931,9.060216546510233,0.05376455312969472,-0.7657358996318562
776,0.09826483561216517,74.71050984688931,9.059786853700857,0.05604988687340888,-0.7463738529722322
777,0.09826467779624305,74.71050984688931,9.057305066475076,0.05768593658103298,-0.7367207876528837
778,0.09826452001347351,74.71050984688931,9.05322505477265,0.05846308919836674,-0.7372344926492228
779,0.0982643622639031,74.71050984688931,9.04810979734413,0.058308249258690874,-0.7476145241505673
780,0.09826420454757842,74.71050984688931,9.042552363976245,0.05728208408446468,-0.7668552658962899
781,0.09826404686454607,74.71050984688931,9.037095568218666,0.055542273401200416,-0.7934001111795631
782,0.09826388921485264,74.71050984688931,9.032173026958883,0.05329543758575165,-0.8253491059560527
783,0.0982637315985447,74.71050984688931,9.028071762704819,0.05075332689297344,-0.8606703786789053
784,0.09826357401566886,74.71050984688931,9.024908842769257,0.04809684476257525,-0.8973766053349416
785,0.0982634164662717,74.71050984688931,9.02263420839962,0.04545266354628193,-0.9336369729625273
786,0.09826325895039978,74.71050984688931,9.021082996514396,0.0428957475064468,-0.9678066409063298
787,0.09826310146809972,74.71050984688931,9.02007159741024,0.0404860789733412,-0.998385368609526
788,0.09826294401941804,74.71050984688931,9.019484959397293,0.03832178597506595,-1.023959383518003
789,0.09826278660440135,74.71050984688931,9.0193003698947,0.03656935891371542,-1.0431971541006657
790,0.09826262922309618,74.71050984688931,9.019548610601026,0.035445595468733194,-1.0549356412831434
791,0.09826247187554911,74.71050984688931,9.02026027293319,0.03516325980358536,-1.0583371049255936
792,0.09826231456180672,74.71050984688931,9.021431320641067,0.03587284181674795,-1.0530627595393112
793,0.09826215728191559,74.71050984688931,9.023002644364263,0.03762346744793868,-1.0394097056736817
794,0.0982620000359223,74.71050984688931,9.02484077200957,0.04034732478577791,-1.018375132213546
795,0.09826184282387343,74.71050984688931,9.026730697621216,0.04386260061942499,-0.9916308529744499
796,0.09826168564581556,74.71050984688931,9.028401358412028,0.04789007487875728,-0.9614069180787282
797,0.09826152850179522,74.71050984688931,9.029574822855208,0.05207806636487567,-0.9302975726717514
798,0.09826137139185898,74.71050984688931,9.030006190880513,0.05602977843859978,-0.9010123343728261
799,0.09826121431605346,74.71050984688931,9.029507916445908,0.05933572815511495,-0.8760934845431886
800,0.09826105727442525,74.71050984688931,9.027986782402069,0.06162304350644929,-0.8576188779601088
801,0.09826090026702092,74.71050984688931,9.025507434731624,0.06262587662441954,-0.8469216957976511
802,0.09826074329388708,74.71050984688931,9.022350013067028,0.06225988933891488,-0.8443858021523483
803,0.09826058635507032,74.71050984688931,9.019006137160975,0.0606655981528352,-0.8493917739369627
804,0.0982604294506172,74.71050984688931,9.016091516984169,0.058189362392882096,-0.8604611366574335
805,0.09826027258057432,74.71050984688931,9.014218254607467,0.05530185624323969,-0.8755772799661605
806,0.09826011574498822,74.71050984688931,9.013895697740743,0.05248678969166744,-0.89260015431342
807,0.09825995894390546,74.71050984688931,9.015488451923101,0.05014008631926849,-0.9096763685232191
808,0.09825980217737261,74.71050984688931,9.019207038313658,0.048504651469310135,-0.9255662661017513
809,0.09825964544543624,74.71050984688931,9.02509925834529,0.04764764357329097,-0.9398389981503945
810,0.09825948874814293,74.71050984688931,9.033038507666019,0.047476623277621505,-0.9529177111523709
811,0.09825933208553929,74.71050984688931,9.042718614344624,0.04778486937386669,-0.965988673216757
812,0.09825917545767189,74.71050984688931,9.053648403238066,0.04830778115328412,-0.9808113975142697
813,0.0982590188645873,74.71050984688931,9.06513335071172,0.048768922653721375,-0.9994714031125344
814,0.09825886230633213,74.71050984688931,9.076261459338872,0.04890815027198026,-1.0241025238687422
815,0.09825870578295294,74.71050984688931,9.085938690905229,0.048503799806917,-1.0565880532221312
816,0.0982585492944963,74.71050984688931,9.093003141418825,0.047400937042437426,-1.0982523802366058
817,0.09825839284100882,74.71050984688931,9.096397045460698,0.045539438087513706,-1.1495760226526057
818,0.09825823642253707,74.71050984688931,9.095344448769533,0.0429685817192963,-1.2099813793369991
819,0.09825808003912766,74.71050984688931,9.08949688544648,0.03984910582999308,-1.2777312408461743
820,0.09825792369082713,74.71050984688931,9.079031493196528,0.03645171818968851,-1.3499703075899239
821,0.09825776737768205,74.71050984688931,9.064678846474648,0.03314693651771996,-1.4229321407342732
822,0.09825761109973898,74.71050984688931,9.047645076538599,0.030367400359630526,-1.4923160794285983
823,0.09825745485704449,74.71050984688931,9.029420999272949,0.028533652768201103,-1.5537930896553769
824,0.09825729864964518,74.71050984688931,9.011533455366745,0.027962416536192067,-1.603544505454764
825,0.09825714247758764,74.71050984688931,8.995321040873867,0.0287957749659999,-1.638717981970011
826,0.09825698634091846,74.71050984688931,8.981781854151548,0.030979241380433113,-1.657715425522942
827,0.09825683023968422,74.71050984688931,8.971504275556555,0.0342867169102519,-1.6602811135578355
828,0.09825667417393148,74.71050984688931,8.964678130423726,0.03837016538877034,-1.647407474672861
829,0.09825651814370684,74.71050984688931,8.961159844942832,0.04281377384620335,-1.6211083292368331
830,0.09825636214905685,74.71050984688931,8.960540904316701,0.047184061725929725,-1.584116046738794
831,0.09825620619002806,74.71050984688931,8.962193048883831,0.05107613869647517,-1.5395418516779418
832,0.09825605026666706,74.71050984688931,8.965330111196458,0.05415965081663332,-1.490518848162596
833,0.09825589437902045,74.71050984688931,8.969144793467564,0.056222190474306016,-1.439852434782621
834,0.0982557385271348,74.71050984688931,8.972998908151556,0.05719601953203377,-1.389729606210342
835,0.09825558271105667,74.71050984688931,8.97655935722872,0.057153892544164045,-1.3415477403328129
836,0.09825542693083263,74.71050984688931,8.979798930827009,0.05627798879433874,-1.2958905400433491
837,0.09825527118650929,74.71050984688931,8.982900377805445,0.0548222791661498,-1.2526307514518173
838,0.09825511547813329,74.71050984688931,8.986160672439754,0.05308216639649206,-1.2111201429029939
839,0.0982549598057512,74.71050984688931,8.989923514624914,0.051364359396857344,-1.1704389711983212
840,0.0982548041694096,74.71050984688931,8.994493693071831,0.04994303460324494,-1.1296809646263524
841,0.09825464856915503,74.71050984688931,9.000012360859417,0.04900523635617225,-1.0882263053694419
842,0.09825449300503407,74.71050984688931,9.006353602733235,0.048611016322213846,-1.0459297003423493
843,0.0982543374770933,74.71050984688931,9.013125967428271,0.04869606224995992,-1.003162991817679
844,0.09825418198537929,74.71050984688931,9.019785624989133,0.04911713798170326,-0.9607092510852968
845,0.09825402652993859,74.71050984688931,9.025784162629273,0.04971047243696649,-0.919565319897156
846,0.09825387111081778,74.71050984688931,9.030676946524487,0.05033476633260739,-0.8807275857948992
847,0.09825371572806342,74.71050984688931,9.034179450427866,0.050894929823306734,-0.8450149968997293
848,0.09825356038172213,74.71050984688931,9.036196377539042,0.051355712786790735,-0.8129565612066719
849,0.09825340507184051,74.71050984688931,9.03683236740058,0.0517473618096307,-0.7847557517270832
850,0.09825324979846511,74.71050984688931,9.036367970837256,0.05215534612079304,-0.7603349379155458
851,0.09825309456164255,74.71050984688931,9.035192281127916,0.05268762187743381,-0.7394480418928561
852,0.09825293936141938,74.71050984688931,9.033710070411653,0.05342551945543083,-0.721830198186839
853,0.09825278419784218,74.71050984688931,9.032254732975153,0.05437656246973473,-0.707338620272425
854,0.09825262907095757,74.71050984688931,9.031035072389999,0.055450920165805745,-0.6960366669996264
855,0.09825247398081206,74.71050984688931,9.030135441216094,0.05647660917118598,-0.6881888361327376
856,0.09825231892745225,74.71050984688931,9.029566815307893,0.05725081569679458,-0.6841696117014674
857,0.09825216391092469,74.71050984688931,9.029329843679957,0.05760359681531677,-0.6843304410216494
858,0.09825200893127597,74.71050984688931,9.0294418219476,0.05744456242186311,-0.6888879867263117
859,0.09825185398855264,74.71050984688931,9.029919869519848,0.05677776178052085,-0.6978756816629609
860,0.09825169908280133,74.71050984688931,9.030752217820206,0.055688031828331035,-0.7111591640409141
861,0.09825154421406865,74.71050984688931,9.0318825054137,0.054308584915899065,-0.7284890603186989
862,0.09825138938240116,74.71050984688931,9.033203023305758,0.052778978767195776,-0.7495597110767517
863,0.09825123458784545,74.71050984688931,9.03454814515009,0.05120587332948607,-0.7740460176794542
864,0.09825107983044805,74.71050984688931,9.035696662507796,0.04964210902589521,-0.8015977022549954
865,0.09825092511025556,74.71050984688931,9.03639859201064,0.04809300176995409,-0.8317850113922391
866,0.09825077042731453,74.71050984688931,9.036434249737065,0.04654759507667993,-0.8640107533566848
867,0.09825061578167157,74.71050984688931,9.035694345619497,0.045023008280814195,-0.8974279615540506
868,0.09825046117337324,74.71050984688931,9.0342335740535,0.04359887473857404,-0.9309225368457851
869,0.09825030660246614,74.71050984688931,9.032243491518468,0.042416202760856406,-0.9632072106916791
870,0.09825015206899684,74.71050984688931,9.029956646439246,0.04163533975487179,-0.9930127546335938
871,0.09824999757301191,74.71050984688931,9.027563290467151,0.04137655005353752,-1.0192992428857943
872,0.09824984311455792,74.71050984688931,9.025199124595867,0.04167559562992083,-1.0414041427444494
873,0.09824968869368143,74.71050984688931,9.022973708381253,0.04247088819911774,-1.0590936210142874
874,0.09824953431042907,74.71050984688931,9.020974212057093,0.043618230612349866,-1.0725322477751222
875,0.09824937996484742,74.71050984688931,9.019237306882868,0.04492238484539758,-1.082196708981992
876,0.09824922565698309,74.71050984688931,9.017739273102814,0.046179297062363865,-1.0887485393468914
877,0.09824907138688267,74.71050984688931,9.016435318779783,0.047223779282213975,-1.0928836056742322
878,0.09824891715459275,74.71050984688931,9.01531523838465,0.04797030019516334,-1.0951961408524347
879,0.09824876296015989,74.71050984688931,9.014417878301128,0.04843004152606818,-1.0961033949635128
880,0.09824860880363064,74.71050984688931,9.013794865657209,0.04869431655273496,-1.095851764967988
881,0.09824845468505157,74.71050984688931,9.013471828683558,0.04888988139877302,-1.0945840061093557
882,0.09824830060446925,74.71050984688931,9.013454585071939,0.04912608851651538,-1.0924249261765138
883,0.09824814656193026,74.71050984688931,9.01377550696503,0.049456244551192734,-1.089552169489831
884,0.09824799255748118,74.71050984688931,9.014534553128216,0.04986407563563005,-1.0862393012994518
885,0.09824783859116856,74.71050984688931,9.015906661214268,0.05027325040871416,-1.0828687093888492
886,0.09824768466303894,74.71050984688931,9.01813007267622,0.05057279939926718,-1.079916692754071
887,0.09824753077313894,74.71050984688931,9.021495764184705,0.050650064048128406,-1.0779241387259728
888,0.09824737692151514,74.71050984688931,9.026323786639509,0.05042106402906232,-1.077475194671764
889,0.09824722310821415,74.71050984688931,9.032896070653477,0.0498492466014605,-1.0792002187012535
890,0.09824706933328257,74.71050984688931,9.041348712752553,0.0489494336850026,-1.0838012990818502
891,0.09824691559676697,74.71050984688931,9.051567140274857,0.0477791158869591,-1.0920820328386451
892,0.09824676189871394,74.71050984688931,9.063124198953545,0.046420537093188954,-1.1049575716921964
893,0.09824660823917006,74.71050984688931,9.075264821917695,0.044957793396379654,-1.1234254936373023
894,0.09824645461818189,74.71050984688931,9.086926316868174,0.043456661083424,-1.1484841637254108
895,0.09824630103579601,74.71050984688931,9.096808253581719,0.041957277493743665,-1.1809913571801898
896,0.09824614749205898,74.71050984688931,9.103523316538457,0.04048545870068793,-1.2214710678522618
897,0.09824599398701743,74.71050984688931,9.105831006745943,0.039078101875970085,-1.2699034558394606
898,0.09824584052071793,74.71050984688931,9.102894638050403,0.03780744451100332,-1.3255592401345855
899,0.09824568709320702,74.71050984688931,9.094469109329824,0.03678549534697958,-1.3869427688653861
900,0.09824553370453125,74.71050984688931,9.08096330620889,0.03613907179177771,-1.4518755552630398
901,0.09824538035473716,74.71050984688931,9.06337762367095,0.035962775741825805,-1.5177011209032705
902,0.09824522704387134,74.71050984688931,9.043142186716988,0.03627161284578804,-1.5815517077501462
903,0.09824507377198043,74.71050984688931,9.021898362318804,0.036980032223023034,-1.6406056821752952
904,0.09824492053911103,74.71050984688931,9.001281609769856,0.03792384413539436,-1.6922845714713282
905,0.09824476734530976,74.71050984688931,8.982744750046237,0.03891586418345292,-1.7343790165284552
906,0.09824461419062318,74.71050984688931,8.967420194111995,0.03980437651434165,-1.7651267172888432
907,0.09824446107509786,74.71050984688931,8.95601120268823,0.04050734749328339,-1.783267337800536
908,0.09824430799878041,74.71050984688931,8.948737634817403,0.04101877077500437,-1.7880749330283825
909,0.09824415496171736,74.71050984688931,8.94537967487708,0.04140093342866065,-1.7793544538156119
910,0.09824400196395532,74.71050984688931,8.945414497991798,0.04177363674253837,-1.7574067058990461
911,0.09824384900554087,74.71050984688931,8.948168956826139,0.0422959679810944,-1.722991344873459
912,0.09824369608652059,74.71050984688931,8.952910374730074,0.04313059672173007,-1.677310548092248
913,0.09824354320694104,74.71050984688931,8.958891507510808,0.044396654383073636,-1.6219975582162358
914,0.0982433903668488,74.71050984688931,8.965428176055687,0.04613240876345834,-1.5590722221379114
915,0.09824323756629047,74.71050984688931,8.972015747838594,0.0482805785099999,-1.4908477955817563
916,0.09824308480531259,74.71050984688931,8.978394317996026,0.05069144579847337,-1.4198050516866272
917,0.09824293208396173,74.71050984688931,8.98449796737904,0.05313452346313314,-1.3484513998501118
918,0.09824277940228446,74.71050984688931,8.990337899203405,0.05531840885610103,-1.2791642453735903
919,0.09824262676032734,74.71050984688931,8.99592442166825,0.056926084824575514,-1.2140121054361024
920,0.09824247415813696,74.71050984688931,9.001265384365094,0.05767064808903319,-1.154564442656361
921,0.09824232159575987,74.71050984688931,9.006389032316594,0.057365360053348316,-1.1017259603128078
922,0.09824216907324265,74.71050984688931,9.011333176444053,0.05598704090754517,-1.055642821369729
923,0.09824201659063189,74.71050984688931,9.016105126273906,0.05370618140167347,-1.015716274422523
924,0.0982418641479742,74.71050984688931,9.020659489118524,0.05086927072880608,-0.9807307965384723
925,0.09824171174531618,74.71050984688931,9.024914365374693,0.047937960033037824,-0.9490779747550466
926,0.09824155938270442,74.71050984688931,9.028779618244279,0.04540242724983284,-0.919041897619962
927,0.09824140706018553,74.71050984688931,9.032166965000968,0.04369077284333025,-0.8891005261857492
928,0.09824125477780607,74.71050984688931,9.03498576221273,0.043097023882725745,-0.8581893512353602
929,0.09824110253561263,74.71050984688931,9.037148294399195,0.04374487040701116,-0.825881374536565
930,0.0982409503336518,74.71050984688931,9.038587195782254,0.04558682092964922,-0.7924639300788373
931,0.09824079817197012,74.71050984688931,9.039266826860178,0.048423221492424104,-0.7589156214708187
932,0.09824064605061421,74.71050984688931,9.039180707865219,0.05192841263424357,-0.726792074539659
933,0.09824049396963062,74.71050984688931,9.038341759981277,0.05568162257499297,-0.6980307467319373
934,0.09824034192906597,74.71050984688931,9.036775945019945,0.05920577557123838,-0.6746913518499539
935,0.09824018992896683,74.71050984688931,9.03453123677236,0.06202099808345357,-0.6586544178541689
936,0.09824003796937975,74.71050984688931,9.031709086484618,0.06371881920303023,-0.6513092676623075
937,0.0982398860503513,74.71050984688931,9.02850623871773,0.06404841445199597,-0.6532827062538796
938,0.09823973417192805,74.71050984688931,9.025233031149664,0.06298505536803775,-0.6642801487051828
939,0.09823958233415657,74.71050984688931,9.02228010072639,0.060746351108430754,-0.6831027249110878
940,0.09823943053708345,74.71050984688931,9.020038993007823,0.05774058344240034,-0.7078546187091869
941,0.09823927878075527,74.71050984688931,9.018808226388906,0.05445904393219601,-0.7362881314583289
942,0.0982391270652186,74.71050984688931,9.018719665278768,0.051348188651263726,-0.7661864840940587
943,0.09823897539052005,74.71050984688931,9.019711461005326,0.04870841377511919,-0.7956781441351618
944,0.09823882375670619,74.71050984688931,9.021557910571284,0.046655589097984715,-0.823409961348137
945,0.0982386721638236,74.71050984688931,9.023943958739407,0.04515266299417033,-0.8485621569900125
946,0.09823852061191886,74.71050984688931,9.026553635577521,0.044087891675011134,-0.8707453846217732
947,0.09823836910103854,74.71050984688931,9.029138121702788,0.04335937696787981,-0.8898568859066787
948,0.09823821763122924,74.71050984688931,9.031537065330596,0.04292874195207182,-0.905971349774166
949,0.09823806620253751,74.71050984688931,9.0336458614661,0.042825798206257655,-0.919303789815159
950,0.09823791481500996,74.71050984688931,9.035355351858056,0.04311112189779532,-0.9302306788331661
951,0.09823776346869313,74.71050984688931,9.03651536300231,0.04382222981213135,-0.9393224330343637
952,0.09823761216363362,74.71050984688931,9.036954249201749,0.044931059648942465,-0.9473414460585537
953,0.09823746089987805,74.71050984688931,9.036534267091266,0.04632723401536567,-0.9551866851451574
954,0.09823730967747298,74.71050984688931,9.035195466053832,0.04782727880988602,-0.9637933953785061
955,0.09823715849646501,74.71050984688931,9.03296388323177,0.04920325191356494,-0.974007596290033
956,0.09823700735690072,74.71050984688931,9.029937067036732,0.050221836054105094,-0.9864533281369523
957,0.09823685625882665,74.71050984688931,9.02627344857755,0.050685519636276426,-1.0014078492392389
958,0.0982367052022894,74.71050984688931,9.022194156838621,0.05047058796985915,-1.0187036679084882
959,0.09823655418733557,74.71050984688931,9.017981612700478,0.04955610969413889,-1.037683204492517
960,0.09823640321401171,74.71050984688931,9.013963643421173,0.04803542982601163,-1.0572289484512272
961,0.09823625228236442,74.71050984688931,9.010498576531598,0.04610601793708613,-1.075873807328733
962,0.09823610139244027,74.71050984688931,9.007980573034935,0.044041432102059026,-1.0919767410572192
963,0.09823595054428583,74.71050984688931,9.006847416145366,0.04215047994163634,-1.1039437137680006
964,0.09823579973794767,74.71050984688931,9.007548240185814,0.040726810251929736,-1.1104758212431738
965,0.09823564897347238,74.71050984688931,9.010464209119245,0.03999624483353628,-1.1108149441192574
966,0.09823549825090652,74.71050984688931,9.015826939435089,0.040077224322746845,-1.1049391441158951
967,0.09823534757029667,74.71050984688931,9.023676298265684,0.04096987604108372,-1.0936652710318444
968,0.09823519693168946,74.71050984688931,9.033842292790155,0.042573040571331607,-1.0786507491375767
969,0.09823504633513144,74.71050984688931,9.045903936664994,0.044708136595707104,-1.0623153874284723
970,0.09823489578066923,74.71050984688931,9.05912508742019,0.047130351327093714,-1.047694015808398
971,0.0982347452683494,74.71050984688931,9.072432313602887,0.049534451219655364,-1.0381985265281275
972,0.09823459479821849,74.71050984688931,9.08449387643367,0.05158003578917991,-1.0372636393852726
973,0.09823444437032312,74.71050984688931,9.093892847398273,0.052945788878066016,-1.0478939716023903
974,0.0982342939847099,74.71050984688931,9.099340271209062,0.05339616793187425,-1.0721902779633103
975,0.09823414364142534,74.71050984688931,9.099876009728652,0.05283272766825636,-1.1109668898388698
976,0.09823399334051601,74.71050984688931,9.09502684781991,0.05130810778609343,-1.1635545509524472
977,0.09823384308202854,74.71050984688931,9.084910635184146,0.04900072200848195,-1.227821200358298
978,0.09823369286600954,74.71050984688931,9.070273852358051,0.04617027861249874,-1.3003830505165839
979,0.09823354269250557,74.71050984688931,9.05243208696757,0.04311913765103483,-1.3769554148530667
980,0.09823339256156319,74.71050984688931,9.033088807367346,0.04017006809084628,-1.452796697117503
981,0.09823324247322895,74.71050984688931,9.014049056922747,0.03765103639356035,-1.5232034914494528
982,0.09823309242754943,74.71050984688931,8.996895549659783,0.03586863415047258,-1.5840083024531422
983,0.09823294242457123,74.71050984688931,8.982727100946446,0.03506283242183901,-1.6320148121646754
984,0.09823279246434093,74.71050984688931,8.972043080831952,0.03535526000095039,-1.6652945545943114
985,0.09823264254690511,74.71050984688931,8.964789082243705,0.036709991110366456,-1.683288149378589
986,0.09823249267231035,74.71050984688931,8.960502410958053,0.03891909911014133,-1.686702366792438
987,0.09823234284060324,74.71050984688931,8.958476269326981,0.041620678644944446,-1.6772337979158982
988,0.0982321930518304,74.71050984688931,8.957918438628253,0.04435736431444648,-1.657163245215638
989,0.09823204330603837,74.71050984688931,8.958127127788984,0.04667347203847329,-1.628882589257292
990,0.09823189360327374,74.71050984688931,8.958662282790714,0.048223993074516414,-1.5944523171445346
991,0.09823174394358306,74.71050984688931,8.959425445359111,0.0488519257059037,-1.55530131339552
992,0.09823159432701294,74.71050984688931,8.960596070319546,0.048606206044442046,-1.5121328815338055
993,0.09823144475360997,74.71050984688931,8.962490607983497,0.047709108576394495,-1.4650199123880714
994,0.09823129522342071,74.71050984688931,8.96545815442631,0.046500808895721106,-1.4136240988229012
995,0.09823114573649178,74.71050984688931,8.969835110813204,0.0453755585426582,-1.3574820107554268
996,0.09823099629286973,74.71050984688931,8.975886007646261,0.04470654550710328,-1.2963199498777962
997,0.09823084689260114,74.71050984688931,8.98368644859407,0.04476199495969402,-1.2303472212660522
998,0.09823069753573262,74.71050984688931,8.993009218068659,0.04563589662411109,-1.1604494769692
999,0.09823054822231071,74.71050984688931,9.003314052450024,0.04722677488321811,-1.0882088561824579
1000,0.09823039895238202,74.71050984688931,9.013863805685757,0.04928300572914775,-1.0157356711993417
1001,0.09823024972599313,74.71050984688931,9.023894341803588,0.05149894968382152,-0.9453744921748116
1002,0.09823010054319062,74.71050984688931,9.03274926858746,0.05361453930122895,-0.8793939095317341
1003,0.09822995140402103,74.71050984688931,9.03994664872951,0.055471739706101045,-0.8197559243850396
1004,0.09822980230853096,74.71050984688931,9.045200274426813,0.05701426077073931,-0.7680058444619399
1005,0.098229653256767,74.71050984688931,9.048416651246246,0.05824653479549418,-0.7252702841470884
1006,0.09822950424877573,74.71050984688931,9.049667074237384,0.059178462900256114,-0.6923183126871421
1007,0.09822935528460375,74.71050984688931,9.049144140724389,0.05978393937853029,-0.6696256960317161
1008,0.09822920636429762,74.71050984688931,9.047127665343009,0.05999267995570015,-0.6573923000557814
1009,0.0982290574879039,74.71050984688931,9.043968934983475,0.05971421223069517,-0.6555014769510499
1010,0.0982289086554692,74.71050984688931,9.040073765225225,0.05887512327589613,-0.6634512659951782
1011,0.09822875986704012,74.71050984688931,9.035867396302395,0.05745011398161783,-0.6802983420635845
1012,0.09822861112266326,74.71050984688931,9.031752100107333,0.05548063193093303,-0.7046409066494163
1013,0.09822846242238517,74.71050984688931,9.028073292929992,0.05308502935445016,-0.7346565113875984
1014,0.0982283137662524,74.71050984688931,9.025091017947823,0.05046035987177704,-0.7682107152046955
1015,0.09822816515431156,74.71050984688931,9.022951186941098,0.04786796177595345,-0.8030402405091143
1016,0.0982280165866092,74.71050984688931,9.021669346635576,0.04559810350164915,-0.8369855477147229
1017,0.09822786806319193,74.71050984688931,9.021144427864341,0.04391931238308389,-0.8682265733055974
1018,0.09822771958410634,74.71050984688931,9.02119459721143,0.04302330102627431,-0.8954772433785028
1019,0.09822757114939899,74.71050984688931,9.02158938100017,0.04297865280841461,-0.9181058754020814
1020,0.09822742275911647,74.71050984688931,9.022072990546649,0.04370919558227005,-0.9361561581843982
1021,0.09822727441330541,74.71050984688931,9.022399787754845,0.045007837463550034,-0.9502562727712295
1022,0.09822712611201236,74.71050984688931,9.022391054570171,0.046581070220224785,-0.9614321397949985
1023,0.09822697785528388,74.71050984688931,9.021983031892239,0.04810512787463653,-0.9708730953631609
1024,0.09822682964316654,74.71050984688931,9.02122670273749,0.04927548889051554,-0.9797075790723522
1025,0.09822668147570697,74.71050984688931,9.020244720794807,0.04984680083265766,-0.9888221712669263
1026,0.09822653335295174,74.71050984688931,9.019191610936186,0.049671072558151626,-0.9987277230060919
1027,0.0982263852749474,74.71050984688931,9.018245166797328,0.04873344263032193,-1.0094739974514795
1028,0.09822623724174051,74.71050984688931,9.017607717917892,0.04716987914140382,-1.020630990191053
1029,0.09822608925337768,74.71050984688931,9.017481045764931,0.04525212590759609,-1.0313593661294826
1030,0.09822594130990549,74.71050984688931,9.018013539222599,0.04334125536587349,-1.040572432829307
1031,0.0982257934113705,74.71050984688931,9.019254226000882,0.04182386242477231,-1.0471627339961187
1032,0.0982256455578193,74.71050984688931,9.02114180863511,0.04104634146140788,-1.05025004415046
1033,0.0982254977492985,74.71050984688931,9.023516915600867,0.04125652299397259,-1.0494099273235427
1034,0.09822534998585467,74.71050984688931,9.026127580451908,0.04255524439964947,-1.0448471754946214
1035,0.09822520226753441,74.71050984688931,9.028631138886064,0.04486293496379961,-1.0374763084731986
1036,0.09822505459438431,74.71050984688931,9.030631846014678,0.04791603258895089,-1.028872640878641
1037,0.09822490696645092,74.71050984688931,9.031775182130136,0.05130571632103441,-1.0210806382562108
1038,0.09822475938378084,74.71050984688931,9.03186105495849,0.054549456154194854,-1.0163150726364591
1039,0.0982246118464206,74.71050984688931,9.030913293066599,0.05716877929712888,-1.0166315877650292
1040,0.09822446435441677,74.71050984688931,9.029187199742049,0.05875516768869963,-1.0236374827588055
1041,0.09822431690781594,74.71050984688931,9.027147530531073,0.05902248252207011,-1.0382763175267193
1042,0.09822416950666471,74.71050984688931,9.025439894510114,0.057846452263052635,-1.0606999292615908
1043,0.0982240221510097,74.71050984688931,9.024829361415373,0.05528383386469139,-1.0902482275827932
1044,0.09822387484089751,74.71050984688931,9.026067284164947,0.05155932370949854,-1.1255555944499416
1045,0.09822372757637471,74.71050984688931,9.02970622332544,0.047018311275047145,-1.164769474995382
1046,0.09822358035748795,74.71050984688931,9.035947041661824,0.0420652226438276,-1.2058253376322265
1047,0.09822343318428378,74.71050984688931,9.044584494422539,0.037114078660052195,-1.2467128161680174
1048,0.09822328605680877,74.71050984688931,9.055033087412113,0.03255806403379306,-1.2856921133383767
1049,0.09822313897510945,74.71050984688931,9.06637184396867,0.02874516087818263,-1.3214424791059383
1050,0.09822299193923241,74.71050984688931,9.077394402188638,0.025950640490821294,-1.3531293541566882
1051,0.09822284494922419,74.71050984688931,9.08670988499755,0.02435382050765782,-1.3803812209750494
1052,0.09822269800513136,74.71050984688931,9.09292928803166,0.0240329543908218,-1.4031864843681379
1053,0.09822255110700051,74.71050984688931,9.0949053942088,0.024979474446088407,-1.4217485941592984
1054,0.09822240425487824,74.71050984688931,9.091945988624362,0.0271153957042284,-1.4363530260499633
1055,0.09822225744881113,74.71050984688931,9.083938099971633,0.030297117067676467,-1.4472858633109784
1056,0.09822211068884579,74.71050984688931,9.07136575160393,0.034304606939378486,-1.4548110110227344
1057,0.09822196397502879,74.71050984688931,9.055223314132391,0.038829572494152906,-1.4591857057222548
1058,0.09822181730740671,74.71050984688931,9.03683704062686,0.04348012205334924,-1.4606790087029793
1059,0.09822167068602618,74.71050984688931,9.017640309841944,0.0478147603679311,-1.459553401277761
1060,0.09822152411093377,74.71050984688931,8.99897531878708,0.05141052139112515,-1.4559866241868493
1061,0.0982213775821761,74.71050984688931,8.981962718185716,0.05395542465546835,-1.4499540509245337
1062,0.09822123109979973,74.71050984688931,8.967428515252802,0.055333047350781775,-1.4411305393793976
1063,0.09822108466385122,74.71050984688931,8.955883433887864,0.05565954271300115,-1.4288721731955216
1064,0.09822093827437717,74.71050984688931,8.947570846237467,0.05525641322528763,-1.4123108945840825
1065,0.09822079193142412,74.71050984688931,8.94255740825863,0.054570779363246794,-1.3905622410643528
1066,0.09822064563503864,74.71050984688931,8.94078598928476,0.054064712192435055,-1.3630128423674222
1067,0.0982204993852673,74.71050984688931,8.942042416329482,0.05409809616912114,-1.3296171108752168
1068,0.09822035318215667,74.71050984688931,8.94589839068866,0.054837533958758934,-1.2911039067118504
1069,0.09822020702575339,74.71050984688931,8.951742699346662,0.05622210811867585,-1.249006501141467
1070,0.09822006091610404,74.71050984688931,8.958915352740268,0.05799334715116077,-1.2054964190661959
1071,0.0982199148532552,74.71050984688931,8.966834810183588,0.05976775364948513,-1.1630796962879169
1072,0.09821976883725345,74.71050984688931,8.975020449036364,0.061120743725302816,-1.1242436162408176
1073,0.09821962286814538,74.71050984688931,8.983046884293744,0.06166437557032913,-1.091116851341414
1074,0.09821947694597756,74.71050984688931,8.99054105088345,0.061115179783534604,-1.065174051426068
1075,0.0982193310707966,74.71050984688931,8.997248717845329,0.05934590280568442,-1.0470147585624376
1076,0.09821918524264908,74.71050984688931,9.003087531590307,0.05640893144332985,-1.0362572668935397
1077,0.09821903946158159,74.71050984688931,9.008114872854545,0.05252683228432526,-1.031573312229811
1078,0.09821889372764069,74.71050984688931,9.012441050038934,0.048060719375142266,-1.03085164378144
1079,0.09821874804087297,74.71050984688931,9.016172746511925,0.04347027271567279,-1.0314548317961965
1080,0.09821860240132499,74.71050984688931,9.019412822594587,0.03926625235941179,-1.030540217376208
1081,0.0982184568090433,74.71050984688931,9.022267456002968,0.03594714568826066,-1.0254239459788674
1082,0.0982183112640745,74.71050984688931,9.024819060183153,0.0339212547815772,-1.013949298461497
1083,0.09821816576646522,74.71050984688931,9.02708644991222,0.033434717250828534,-0.9947928834231894
1084,0.09821802031626203,74.71050984688931,9.029024324580883,0.03453177604945223,-0.967643578391816
1085,0.09821787491351149,74.71050984688931,9.030570511699143,0.03705632143229515,-0.9332292949592497
1086,0.09821772955826016,74.71050984688931,9.031695826091585,0.040683455625087996,-0.8932077051918791
1087,0.09821758425055464,74.71050984688931,9.032422895633918,0.044969412655792046,-0.849946503780486
1088,0.0982174389904415,74.71050984688931,9.03282264348794,0.04941732420929624,-0.8062177655267928
1089,0.09821729377796734,74.71050984688931,9.033003785123588,0.05355268834531635,-0.7648498043226197
1090,0.09821714861317876,74.71050984688931,9.03309478869215,0.05699169024680377,-0.728401491421763
1091,0.09821700349612233,74.71050984688931,9.033219464400537,0.05948611666867678,-0.6989176811552202
1092,0.09821685842684466,74.71050984688931,9.03347580118528,0.06093840462590263,-0.6777959722286184
1093,0.0982167134053923,74.71050984688931,9.033921777052214,0.06138873669593276,-0.665765434296129
1094,0.09821656843181183,74.71050984688931,9.034562764565282,0.0609809079217873,-0.6629550474759128
1095,0.09821642350614983,74.71050984688931,9.035337019712989,0.059915487131736965,-0.6690155061215453
1096,0.09821627862845289,74.71050984688931,9.036110030593088,0.05840064020679864,-0.6832530604767111
1097,0.09821613379876762,74.71050984688931,9.036697810430537,0.05661336901215386,-0.7047401111030588
1098,0.09821598901714058,74.71050984688931,9.036915335182329,0.0546790684321024,-0.7323880554718918
1099,0.09821584428361836,74.71050984688931,9.036612427276747,0.05266670661393016,-0.7649907212873234
1100,0.09821569959824752,74.71050984688931,9.035675092760258,0.05059415824975861,-0.8012496320238106
1101,0.09821555496107466,74.71050984688931,9.034021463825749,0.04844513976245632,-0.8397796053025205
1102,0.09821541037214639,74.71050984688931,9.031628022018587,0.04620172301313225,-0.8790926969694239
1103,0.09821526583150929,74.71050984688931,9.028569882549732,0.04388715255273307,-0.9175796504845991
1104,0.09821512133920991,74.71050984688931,9.025028098326931,0.04160341793712464,-0.9535258910612767
1105,0.09821497689529483,74.71050984688931,9.02125064298653,0.039547015525639564,-0.9851900582588871
1106,0.09821483249981064,74.71050984688931,9.017501993082012,0.037992609777175015,-1.010946987404538
1107,0.09821468815280393,74.71050984688931,9.01403852841234,0.03724417975849474,-1.0294783922708264
1108,0.0982145438543213,74.71050984688931,9.011101134027008,0.03756307728778603,-1.0399867397198077
1109,0.09821439960440934,74.71050984688931,9.008887326525555,0.03908859246906436,-1.0423941587617724
1110,0.09821425540311461,74.71050984688931,9.007502331462486,0.04177130345477579,-1.0374666028922719
1111,0.09821411125048371,74.71050984688931,9.006942194896716,0.045343696787146934,-1.0268005673756857
1112,0.09821396714656322,74.71050984688931,9.00715108691922,0.04934801518254866,-1.012644844044344
1113,0.09821382309139974,74.71050984688931,9.00812137320284,0.0532226421874673,-0.9975864512138719
1114,0.09821367908503986,74.71050984688931,9.009962125096527,0.05642564027694797,-0.9841767594541291
1115,0.09821353512753016,74.71050984688931,9.012899054535792,0.05855726222120588,-0.9745948878197113
1116,0.09821339121891719,74.71050984688931,9.017220812298463,0.059436087563813564,-0.9704368175897583
1117,0.0982132473592475,74.71050984688931,9.023197877775832,0.05909861545679097,-0.9726774176814026
1118,0.0982131035485677,74.71050984688931,9.030988608749352,0.05773010481586884,-0.981788363097944
1119,0.09821295978692435,74.71050984688931,9.04054374215824,0.055566272694137574,-0.9979363142158242
1120,0.09821281607436401,74.71050984688931,9.051534582732252,0.052811964708555474,-1.0211609720328416
1121,0.09821267241093332,74.71050984688931,9.06334072820419,0.04961160650436368,-1.0514532084629427
1122,0.09821252879667884,74.71050984688931,9.075110412185344,0.04608040544085695,-1.0887125296987186
1123,0.09821238523164717,74.71050984688931,9.085854899799866,0.042365670496369134,-1.1326333260629322
1124,0.09821224171588491,74.71050984688931,9.094521704113312,0.03868439344988225,-1.1826037922955193
1125,0.09821209824943863,74.71050984688931,9.100048170202202,0.03530705096727473,-1.2376707198046835
1126,0.0982119548323549,74.71050984688931,9.1014541233338,0.03250455109352447,-1.2965609948424754
1127,0.09821181146468029,74.71050984688931,9.098007932895673,0.030496604147261824,-1.357721961717766
1128,0.09821166814646143,74.71050984688931,9.089420900956844,0.02942316586682098,-1.419366641820275
1129,0.09821152487774487,74.71050984688931,9.075979694206083,0.02933133753684833,-1.4795430877270013
1130,0.0982113816585772,74.71050984688931,9.058554791280816,0.03016030681835117,-1.5362450562383796
1131,0.098211238489005,74.71050984688931,9.038480640162618,0.03172529279061423,-1.5875461496120276
1132,0.09821109536907485,74.71050984688931,9.017348670291137,0.03372490429262916,-1.6317072444915246
1133,0.09821095229883336,74.71050984688931,8.99678177440488,0.03579632637528706,-1.66721087329809
1134,0.09821080927832714,74.71050984688931,8.978250507412818,0.03761283495826231,-1.692726281344942
1135,0.09821066630760274,74.71050984688931,8.962943187933526,0.03898064276280626,-1.7070697951735876
1136,0.09821052338670676,74.71050984688931,8.951661184393968,0.039884755871370706,-1.7092334606858688
1137,0.09821038051568577,74.71050984688931,8.94473097241035,0.04046954315472668,-1.6984958521783846
1138,0.09821023769458635,74.71050984688931,8.94198687072046,0.04098172520567818,-1.674564186552963
1139,0.09821009492345507,74.71050984688931,8.942877343480484,0.04170860818326755,-1.6376893953435676
1140,0.0982099522023385,74.71050984688931,8.946652514868413,0.0429218116644579,-1.588736829986265
1141,0.09820980953128318,74.71050984688931,8.952521796033029,0.04482269260026114,-1.5292268963565534
1142,0.09820966691033572,74.71050984688931,8.959717972896696,0.04749034083625954,-1.4613489487611788
1143,0.09820952433954273,74.71050984688931,8.967510520800248,0.05084300996320115,-1.3879187512063518
1144,0.09820938181895081,74.71050984688931,8.975249396586984,0.054626280498415294,-1.312238121477668
1145,0.09820923934860652,74.71050984688931,8.98244763709731,0.058434952593937335,-1.237842757897395
1146,0.09820909692855648,74.71050984688931,8.988833129023945,0.061768674107225634,-1.1681657685229225
1147,0.09820895455884723,74.71050984688931,8.994321510143033,0.06411764529415781,-1.1061675981138204
1148,0.09820881223952539,74.71050984688931,8.998947421467289,0.06506901074256646,-1.0539870819690966
1149,0.09820866997063754,74.71050984688931,9.002822869100472,0.06440977069592871,-1.012674768720813
1150,0.09820852775223028,74.71050984688931,9.006132142323159,0.06218966271036811,-0.9820767292078918
1151,0.09820838558435017,74.71050984688931,9.009116907459754,0.058720867536359356,-0.96091501548751
1152,0.09820824346704381,74.71050984688931,9.012024022015472,0.054522346771926404,-0.9470565709269974
1153,0.09820810140035773,74.71050984688931,9.01504001404346,0.050232086890243416,-0.9379132210518217
1154,0.09820795938433853,74.71050984688931,9.018249651493422,0.046503173854316314,-0.9308977935455003
1155,0.09820781741903285,74.71050984688931,9.021623564857933,0.04389192054592179,-0.9238640408153308
1156,0.09820767550448728,74.71050984688931,9.025016902202399,0.04275354305759684,-0.915461199735743
1157,0.09820753364074838,74.71050984688931,9.028177626292008,0.04317090478297366,-0.9053388928296094
1158,0.09820739182786276,74.71050984688931,9.030783295847522,0.04493774192284452,-0.8941577085998019
1159,0.09820725006587697,74.71050984688931,9.032512157809022,0.047601388146885325,-0.8833985685591137
1160,0.09820710835483758,74.71050984688931,9.033125448804919,0.05055219746943031,-0.8750070846980195
1161,0.09820696669479116,74.71050984688931,9.032534696772334,0.053138789271501084,-0.8709405296010541
1162,0.09820682508578434,74.71050984688931,9.030845248074703,0.05479111617201518,-0.8727032928465516
1163,0.09820668352786366,74.71050984688931,9.02836758667851,0.055131655077884145,-0.8809686550934241
1164,0.09820654202107572,74.71050984688931,9.025577293821854,0.05404582415447515,-0.8953779271594007
1165,0.0982064005654671,74.71050984688931,9.023017991584798,0.051687325292112535,-0.9145627660125668
1166,0.09820625916108437,74.71050984688931,9.021177751046118,0.048421086475761974,-0.9363668721613935
1167,0.0982061178079741,74.71050984688931,9.020390293054648,0.04473383114779269,-0.958191982230312
1168,0.09820597650618287,74.71050984688931,9.02079347393796,0.04114574448578072,-0.977383594136716
1169,0.0982058352557573,74.71050984688931,9.022338534745105,0.038139533266177986,-0.9915904183017039
1170,0.09820569405674397,74.71050984688931,9.024823597195764,0.03610684976751697,-0.999054878288014
1171,0.09820555290918946,74.71050984688931,9.027935613971502,0.03530831106075767,-0.9988101855180855
1172,0.0982054118131404,74.71050984688931,9.031302033953509,0.03584943839562411,-0.9907731556008169
1173,0.09820527076864337,74.71050984688931,9.034549718875695,0.03767952162913711,-0.9757364400168737
1174,0.09820512977574493,74.71050984688931,9.037350430118863,0.04061300814240389,-0.9552798266981612
1175,0.09820498883449165,74.71050984688931,9.03943493020088,0.04436155909047337,-0.9316245165468486
1176,0.0982048479449301,74.71050984688931,9.040590547273117,0.04856550784725374,-0.9074411904846783
1177,0.0982047071071069,74.71050984688931,9.040670412997846,0.05282069695747655,-0.8856137958964181
1178,0.09820456632106857,74.71050984688931,9.03960896330968,0.05669972019310637,-0.868971156322773
1179,0.09820442558686171,74.71050984688931,9.037417944085366,0.05977276133585869,-0.8600065640574375
1180,0.09820428490453294,74.71050984688931,9.034168850378967,0.061642912825740186,-0.8605970333963479
1181,0.09820414427412887,74.71050984688931,9.029998082641086,0.06200775882454127,-0.8717349101301085
1182,0.09820400369569608,74.71050984688931,9.025147517464216,0.060735931526410866,-0.8933146361743746
1183,0.09820386316928116,74.71050984688931,9.019993743542734,0.057921062765239166,-0.9240471233863121
1184,0.09820372269493068,74.71050984688931,9.015006673601519,0.05387970920994663,-0.9615573911024509
1185,0.09820358227269121,74.71050984688931,9.010650773644496,0.04909831224815887,-1.0026579114992997
1186,0.09820344190260938,74.71050984688931,9.007304584980586,0.044161176680309625,-1.0437341449553978
1187,0.09820330158473173,74.71050984688931,9.005238362770124,0.03967975176460093,-1.0811726313822223
1188,0.09820316131910485,74.71050984688931,9.004610018982481,0.03621968139824566,-1.1117882014096512
1189,0.0982030211057753,74.71050984688931,9.005424832803827,0.034217259334459196,-1.1332168934473825
1190,0.09820288094478967,74.71050984688931,9.007469945437522,0.03389400618248371,-1.144218331594931
1191,0.09820274083619453,74.71050984688931,9.01029483923697,0.03519940414930293,-1.1448087032801992
1192,0.0982026007800365,74.71050984688931,9.013289846728215,0.0378138848126502,-1.1361651248668927
1193,0.09820246077636213,74.71050984688931,9.015835192939546,0.04121977187026697,-1.1203087061014294
1194,0.09820232082521803,74.71050984688931,9.017447023479646,0.0448198988019286,-1.099645942381747
1195,0.09820218092665076,74.71050984688931,9.017877913375413,0.04807336842812695,-1.0764845349515342
1196,0.09820204108070696,74.71050984688931,9.01717202244672,0.050616153376635165,-1.0526416286556664
1197,0.09820190128743322,74.71050984688931,9.015675801072353,0.05233114716389524,-1.0292439020186472
1198,0.0982017615468761,74.71050984688931,9.013988402835071,0.05334169834894831,-1.0067702498895963
1199,0.09820162185908214,74.71050984688931,9.012845601151534,0.05393224790140997,-0.9853087557625889
1200,0.09820148222409797,74.71050984688931,9.012969375383612,0.054429002578673884,-0.9649280537635944
1201,0.09820134264197017,74.71050984688931,9.014940186001143,0.05508322946343306,-0.9460377185545431
