,time,sample_rate,Green,Blue
0,0.0,73.17824873692001,-0.34308578127836525,-10.885872701944924
1,0.0132872431115092,73.17824873692001,-0.34316726358145455,-10.885917919597581
2,0.0265744862230185,73.17824873692001,-0.3437646624985242,-10.911681388885276
3,0.0398617293345277,73.17824873692001,-0.343736532517525,-10.902758904930769
4,0.053148972446037,73.17824873692001,-0.3437838076359801,-10.926791306312401
5,0.0664362155575463,73.17824873692001,-0.3408542913609856,-10.908897475064084
6,0.0797234586690555,73.17824873692001,-0.3427224667092099,-10.927785336675305
7,0.0930107017805648,73.17824873692001,-0.34385235620689414,-10.925349360091131
8,0.106297944892074,73.17824873692001,-0.34552112188985196,-10.919916057712204
9,0.1195851880035833,73.17824873692001,-0.34206142530346956,-10.898464985394737
10,0.1328724311150926,73.17824873692001,-0.34425997750270587,-10.942233742450528
11,0.1461596742266018,73.17824873692001,-0.3413029990520924,-10.95219247164694
12,0.1594469173381111,73.17824873692001,-0.345387790025733,-10.949358859206919
13,0.1727341604496203,73.17824873692001,-0.3441608500073044,-10.950424134808989
14,0.1860214035611296,73.17824873692001,-0.34429429809005574,-10.94209707158724
15,0.1993086466726389,73.17824873692001,-0.34338902287680884,-10.947038986131348
16,1.275575338704889,73.17824873692001,-0.3401560124799582,-10.82762273848656
17,1.288862581816398,73.17824873692001,-0.34120989452147055,-10.8888547321537
18,1.302149824927907,73.17824873692001,-0.3439008661328856,-10.837235914089165
19,1.3154370680394167,73.17824873692001,-0.34204630395531554,-10.835617774704934
20,1.328724311150926,73.17824873692001,-0.34098798413944503,-10.827609347868554
21,1.3420115542624351,73.17824873692001,-0.34342123234553135,-10.842059210903157
22,1.3552987973739443,73.17824873692001,-0.3469068137434045,-10.872271484587442
23,1.3685860404854535,73.17824873692001,-0.34506889301246696,-10.88325383315569
24,1.381873283596963,73.17824873692001,-0.34459479434169377,-10.883018464297754
25,1.3951605267084723,73.17824873692001,-0.34426596142963267,-10.883922129159066
26,1.4084477698199815,73.17824873692001,-0.3438252574844039,-10.974314122340632
27,1.4217350129314907,73.17824873692001,-0.3450304852237002,-10.993016281899033
28,1.435022256043,73.17824873692001,-0.3439830268747873,-10.949376989346428
29,1.4483094991545091,73.17824873692001,-0.3431579541745029,-10.964703169650551
30,1.4615967422660183,73.17824873692001,-0.3447676983692579,-10.940151291234713
31,1.4748839853775275,73.17824873692001,-0.34342492021503535,-10.9440773659778
32,1.4881712284890372,73.17824873692001,-0.344192559977391,-10.92009194921427
33,1.5014584716005464,73.17824873692001,-0.3413197574314534,-10.904176139734162
34,1.5147457147120555,73.17824873692001,-0.3445753918619234,-10.90231657978309
35,1.5280329578235647,73.17824873692001,-0.3416168320630746,-10.892885455062244
36,1.5413202009350742,73.17824873692001,-0.34409989633875315,-10.881187494728389
37,1.5546074440465834,73.17824873692001,-0.3445918625023778,-10.899186971393862
38,1.5678946871580923,73.17824873692001,-0.3427737078769399,-10.906119701126585
39,1.581181930269602,73.17824873692001,-0.34451242929500325,-10.905044043450046
40,1.5944691733811112,73.17824873692001,-0.3431739230987045,-10.909987901343316
41,1.6077564164926204,73.17824873692001,-0.34044546513975266,-10.90218772124104
42,1.6210436596041295,73.17824873692001,-0.34597879077942945,-10.916514993033434
43,1.634330902715639,73.17824873692001,-0.34312780488858907,-10.9259687500663
44,1.6476181458271482,73.17824873692001,-0.34372301184765847,-10.914350569141005
45,1.6609053889386574,73.17824873692001,-0.34262341554663706,-10.915749570514501
46,1.6741926320501668,73.17824873692001,-0.3423398293850968,-10.931417917899307
47,1.687479875161676,73.17824873692001,-0.34460078627218255,-10.931366318463526
48,1.7007671182731852,73.17824873692001,-0.3414787886266112,-10.940290022830832
49,1.7140543613846944,73.17824873692001,-0.3403273183766728,-10.927147825080475
50,1.7273416044962038,73.17824873692001,-0.3415489369587366,-10.931965062695255
51,1.740628847607713,73.17824873692001,-0.34124684960448276,-10.919742961099194
52,1.7539160907192222,73.17824873692001,-0.3433199096475027,-10.918276490565054
53,1.7672033338307316,73.17824873692001,-0.34070720354021033,-10.909271696457541
54,1.7804905769422408,73.17824873692001,-0.3419523609885565,-10.92757533507193
55,1.79377782005375,73.17824873692001,-0.34286358673612494,-10.947812408997729
56,1.8070650631652596,73.17824873692001,-0.34556317733094255,-10.956030854192456
57,1.8203523062767688,73.17824873692001,-0.3435537646810807,-10.948471277418237
58,1.8336395493882776,73.17824873692001,-0.34439511617004587,-10.948907238171998
59,1.846926792499787,73.17824873692001,-0.34382417498147827,-10.931236591021163
60,1.8602140356112964,73.17824873692001,-0.34548261299248306,-10.951895857479533
61,1.8735012787228056,73.17824873692001,-0.34288733242312275,-10.956627765236055
62,1.8867885218343148,73.17824873692001,-0.3448959973492986,-10.968629481580592
63,1.900075764945824,73.17824873692001,-0.3424767012408277,-10.944242245327361
64,1.9133630080573332,73.17824873692001,-0.3415747050834161,-10.932805765431388
65,1.9266502511688424,73.17824873692001,-0.3363774926847101,-10.901312130108094
66,1.939937494280352,73.17824873692001,-0.3341540808121269,-10.898350976560499
67,1.9532247373918608,73.17824873692001,-0.33293634954867535,-10.87665641433813
68,1.9665119805033704,73.17824873692001,-0.33692030714888976,-10.850710646921854
69,1.97979922361488,73.17824873692001,-0.3359681241112958,-10.844214560327298
70,1.993086466726389,73.17824873692001,-0.33815794729933013,-10.840660226040523
71,2.006373709837898,73.17824873692001,-0.3405596750298668,-10.82992990649611
72,2.0196609529494074,73.17824873692001,-0.34035601052528136,-10.86325643275511
73,2.0329481960609166,73.17824873692001,-0.34140164195929845,-10.83760771896084
74,2.046235439172426,73.17824873692001,-0.3423050581818475,-10.880945829112807
75,2.0595226822839354,73.17824873692001,-0.3409716750678087,-10.870748584213333
76,2.0728099253954446,73.17824873692001,-0.3431945340713384,-10.910711431765748
77,2.086097168506954,73.17824873692001,-0.3444337559070514,-10.908699452446223
78,2.099384411618463,73.17824873692001,-0.3447373954838638,-10.906674728016833
79,2.112671654729972,73.17824873692001,-0.34354262802984264,-10.896661271455892
80,2.1259588978414814,73.17824873692001,-0.3448941199601394,-10.919812389177157
81,2.1392461409529906,73.17824873692001,-0.3447026084434018,-10.925853314819276
82,2.1525333840645,73.17824873692001,-0.34407856942225923,-10.946617203378072
83,2.165820627176009,73.17824873692001,-0.3457555932092194,-10.951576532960232
84,2.179107870287518,73.17824873692001,-0.3439146293079242,-10.96238557035493
85,2.192395113399028,73.17824873692001,-0.34329103419160995,-10.938782235893688
86,2.205682356510537,73.17824873692001,-0.34614719691021395,-10.944895702428532
87,2.218969599622046,73.17824873692001,-0.34244620722290486,-10.93380239554209
88,2.2322568427335554,73.17824873692001,-0.3417702820417903,-10.94726764611799
89,2.245544085845065,73.17824873692001,-0.34315895803237073,-10.926299802302246
90,2.2588313289565742,73.17824873692001,-0.3419712806406454,-10.918474231147732
91,2.2721185720680834,73.17824873692001,-0.34396238126861256,-10.916101332605468
92,2.2854058151795926,73.17824873692001,-0.3416928307601919,-10.921586346826295
93,2.298693058291102,73.17824873692001,-0.3435478559058796,-10.915653472191238
94,2.311980301402611,73.17824873692001,-0.3437428049734229,-10.948759557275997
95,2.32526754451412,73.17824873692001,-0.34282543053565406,-10.929311538262713
96,2.33855478762563,73.17824873692001,-0.3434116472146647,-10.911221866626285
97,2.351842030737139,73.17824873692001,-0.3439322421706827,-10.913866198930398
98,2.365129273848648,73.17824873692001,-0.34475593539353316,-10.907540107545172
99,2.378416516960157,73.17824873692001,-0.3446868637773334,-10.949795621365897
100,2.391703760071666,73.17824873692001,-0.34306958894465706,-10.938166448919523
101,2.404991003183176,73.17824873692001,-0.34309437146953253,-10.939857674860939
102,2.418278246294685,73.17824873692001,-0.3415441741620158,-10.92531558568188
103,2.4315654894061947,73.17824873692001,-0.34049607097043405,-10.937216214619948
104,2.444852732517704,73.17824873692001,-0.340563644024223,-10.917539377864943
105,2.458139975629213,73.17824873692001,-0.34365482724920926,-10.937882407853698
106,2.4714272187407222,73.17824873692001,-0.3415398226551231,-10.947568194700956
107,2.4847144618522314,73.17824873692001,-0.3401477539048616,-10.907010260059161
108,2.4980017049637406,73.17824873692001,-0.342040606267231,-10.931302398091837
109,2.51128894807525,73.17824873692001,-0.34432780340879265,-10.926505081983969
110,2.5245761911867595,73.17824873692001,-0.34319391717746556,-10.928861621793617
111,2.5378634342982687,73.17824873692001,-0.343206762432917,-10.944014173551588
112,2.551150677409778,73.17824873692001,-0.3424570996437213,-10.925062974736163
113,2.564437920521287,73.17824873692001,-0.3423386284876907,-10.923402226799825
114,2.577725163632796,73.17824873692001,-0.34416900646909043,-10.926239724596362
115,2.591012406744305,73.17824873692001,-0.34430407414149444,-10.956229904501237
116,2.604299649855814,73.17824873692001,-0.3448257079741862,-10.93047673181908
117,2.6175868929673243,73.17824873692001,-0.3449699470198114,-10.938731735839859
118,2.630874136078833,73.17824873692001,-0.34346638615627345,-10.943986354088022
119,2.6441613791903427,73.17824873692001,-0.3405780504594538,-10.97607966436438
120,2.657448622301852,73.17824873692001,-0.33847996027784044,-10.917674845027726
121,2.670735865413361,73.17824873692001,-0.33405748313989525,-10.89185328036367
122,2.6840231085248702,73.17824873692001,-0.3345822631498162,-10.872816743666343
123,2.6973103516363794,73.17824873692001,-0.3337754586469458,-10.83533032068469
124,2.710597594747889,73.17824873692001,-0.3369997951720118,-10.833147742757816
125,2.7238848378593983,73.17824873692001,-0.3332592090798923,-10.840715711014637
126,2.7371720809709075,73.17824873692001,-0.33629813308896617,-10.825770779517567
127,2.7504593240824167,73.17824873692001,-0.3394820056020397,-10.84974848706674
128,2.763746567193926,73.17824873692001,-0.343959397553125,-10.872932423396897
129,2.777033810305435,73.17824873692001,-0.34394848859677357,-10.922197494266236
130,2.7903210534169447,73.17824873692001,-0.3418283759374097,-10.92183094333551
131,2.803608296528454,73.17824873692001,-0.34350916375453305,-10.90791120360017
132,2.816895539639963,73.17824873692001,-0.3456109473064563,-10.912003692036476
133,2.8301827827514723,73.17824873692001,-0.343448523930307,-10.905621982403845
134,2.843470025862981,73.17824873692001,-0.3444397472303158,-10.906786022586347
135,2.8567572689744907,73.17824873692001,-0.34397233774823527,-10.93364516220678
136,2.870044512086,73.17824873692001,-0.34413641072818146,-10.955770876072942
137,2.883331755197509,73.17824873692001,-0.34465667662748356,-10.987173284914379
138,2.8966189983090187,73.17824873692001,-0.3459206053819298,-10.94716879932256
139,2.909906241420528,73.17824873692001,-0.3458091828605613,-10.960451288638534
140,2.923193484532037,73.17824873692001,-0.3448270345770249,-10.977411058323682
141,2.9364807276435463,73.17824873692001,-0.3444737379531025,-10.939363728804073
142,2.9497679707550555,73.17824873692001,-0.3465049564912836,-10.922442046992275
143,2.9630552138665647,73.17824873692001,-0.34314294001524026,-10.955197822095672
144,2.9763424569780743,73.17824873692001,-0.3458309017721751,-10.943885422713006
145,2.9896297000895835,73.17824873692001,-0.3467204675302427,-10.92430937397388
146,3.0029169432010927,73.17824873692001,-0.34434127318257374,-10.924762394663452
147,3.016204186312602,73.17824873692001,-0.3446621705864666,-10.93520075379946
148,3.029491429424111,73.17824873692001,-0.34464684177586985,-10.935436430597669
149,3.0427786725356203,73.17824873692001,-0.34310799532000613,-10.934901541599743
150,3.056065915647129,73.17824873692001,-0.3451571289532957,-10.919368783920149
151,3.069353158758639,73.17824873692001,-0.3432386737420836,-10.9192788939421
152,3.0826404018701483,73.17824873692001,-0.34428820242766467,-10.921503070191205
153,3.095927644981657,73.17824873692001,-0.3419655967178658,-10.955497081794352
154,3.1092148880931667,73.17824873692001,-0.3463099265959836,-10.914487754692207
155,3.122502131204676,73.17824873692001,-0.34765759473635505,-10.938846721683399
156,3.135789374316185,73.17824873692001,-0.3427851113159245,-10.927905436581693
157,3.1490766174276943,73.17824873692001,-0.34330510484562043,-10.918555402382424
158,3.162363860539204,73.17824873692001,-0.3448233641448804,-10.920211473976137
159,3.175651103650713,73.17824873692001,-0.34511032448899126,-10.936392625396566
160,3.1889383467622223,73.17824873692001,-0.3434187095469598,-10.933429864146715
161,3.2022255898737315,73.17824873692001,-0.3429867160549887,-10.924704345237005
162,3.2155128329852407,73.17824873692001,-0.3431191196432827,-10.92299181479257
163,3.22880007609675,73.17824873692001,-0.34443903818478644,-10.932904310228725
164,3.242087319208259,73.17824873692001,-0.3426021297163946,-10.947160336939495
165,3.2553745623197687,73.17824873692001,-0.34309340910243846,-10.939794686710034
166,3.268661805431278,73.17824873692001,-0.3438065277168666,-10.911496101904406
167,3.281949048542787,73.17824873692001,-0.34443394823390894,-10.91992539469251
168,3.2952362916542963,73.17824873692001,-0.34288618224208844,-10.947528369599326
169,3.308523534765805,73.17824873692001,-0.34237860229318795,-10.959699767938046
170,3.3218107778773147,73.17824873692001,-0.3433368072902895,-10.946222523673129
171,3.335098020988824,73.17824873692001,-0.3420089981427062,-10.9531005229041
172,3.348385264100333,73.17824873692001,-0.34270251163549603,-10.934015165960242
173,3.3616725072118427,73.17824873692001,-0.3459110057590391,-10.930498788505359
174,3.374959750323352,73.17824873692001,-0.344395134686606,-10.929337238628184
175,3.388246993434861,73.17824873692001,-0.34188906810815456,-10.95120739879472
176,3.4015342365463703,73.17824873692001,-0.337040448827071,-10.931468845200104
177,3.4148214796578795,73.17824873692001,-0.3356551540631443,-10.914122059577313
178,3.4281087227693887,73.17824873692001,-0.33214357586178755,-10.870322719611474
179,3.4413959658808984,73.17824873692001,-0.3352823961190271,-10.86011871086794
180,3.454683208992408,73.17824873692001,-0.3347323429424065,-10.8573580877035
181,3.4679704521039167,73.17824873692001,-0.33933692200747767,-10.853134999157495
182,3.481257695215426,73.17824873692001,-0.3419683664417095,-10.851770974840576
183,3.494544938326935,73.17824873692001,-0.34155889235129444,-10.865176334746547
184,3.5078321814384443,73.17824873692001,-0.3424040014846528,-10.881264436748076
185,3.521119424549954,73.17824873692001,-0.34191325691012114,-10.921461092379204
186,3.534406667661463,73.17824873692001,-0.34345524140677514,-10.920345288740247
187,3.5476939107729724,73.17824873692001,-0.34200437387420624,-10.926767865437577
188,3.5609811538844816,73.17824873692001,-0.34436996000918524,-10.934601271936144
189,3.5742683969959907,73.17824873692001,-0.33906487142006514,-10.935535949975172
190,3.5875556401075,73.17824873692001,-0.3390662260054844,-10.955698053321441
191,3.600842883219009,73.17824873692001,-0.3420746355869819,-10.959308619880545
192,3.614130126330519,73.17824873692001,-0.3427550813309808,-10.971548087448843
193,3.627417369442028,73.17824873692001,-0.3418043887474555,-10.9786240095064
194,3.640704612553537,73.17824873692001,-0.34249992999283835,-10.956264017009186
195,3.6539918556650464,73.17824873692001,-0.34117248359466945,-10.94986757139284
196,3.667279098776556,73.17824873692001,-0.33997731917155816,-10.948049561294342
197,3.6805663418880648,73.17824873692001,-0.3381498190291931,-10.93565805686201
198,3.693853584999574,73.17824873692001,-0.3403841493314096,-10.930480700729095
199,3.707140828111084,73.17824873692001,-0.3397555423257646,-10.938605355400098
200,3.720428071222593,73.17824873692001,-0.3400064642035677,-10.914782559667634
201,3.733715314334102,73.17824873692001,-0.3413734776367622,-10.925593110219904
202,3.747002557445611,73.17824873692001,-0.3423135498062892,-10.93505797516734
203,3.76028980055712,73.17824873692001,-0.3396517008981109,-10.940935851564522
204,3.7735770436686296,73.17824873692001,-0.33884347299357653,-10.920803789214457
205,3.7868642867801383,73.17824873692001,-0.3404173087113628,-10.925646182282872
206,3.800151529891648,73.17824873692001,-0.3430404937109669,-10.922835077390502
207,3.8134387730031576,73.17824873692001,-0.343121401898974,-10.933021458586209
208,3.826726016114667,73.17824873692001,-0.339531390931603,-10.963591148163825
209,3.840013259226176,73.17824873692001,-0.3385930863640005,-10.949630046359443
210,3.853300502337685,73.17824873692001,-0.33984519761631343,-10.946894467169148
211,3.8665877454491935,73.17824873692001,-0.34164495232462705,-10.94229631946307
212,3.879874988560704,73.17824873692001,-0.343412938573186,-10.935897815143063
213,3.893162231672213,73.17824873692001,-0.3453272682026894,-10.94187336987295
214,3.9064494747837215,73.17824873692001,-0.3433896993548406,-10.922050583088406
215,3.919736717895232,73.17824873692001,-0.34161734910957064,-10.906477510273453
216,3.933023961006741,73.17824873692001,-0.3445179316130557,-10.896247557401495
217,3.94631120411825,73.17824873692001,-0.34242142948457827,-10.920918172810346
218,3.959598447229759,73.17824873692001,-0.34305700412697177,-10.913313350475544
219,3.972885690341269,73.17824873692001,-0.34023871055249055,-10.926000052243621
220,3.986172933452778,73.17824873692001,-0.34263189494645546,-10.928599860374913
221,3.999460176564287,73.17824873692001,-0.3438410043646826,-10.95269416642571
222,4.012747419675796,73.17824873692001,-0.34274605787302237,-10.958511032827133
223,4.026034662787306,73.17824873692001,-0.3438008910638145,-10.968216754689589
224,4.039321905898815,73.17824873692001,-0.3444356166727338,-10.962764139033258
225,4.052609149010324,73.17824873692001,-0.3421931823118783,-10.9437025877561
226,4.065896392121833,73.17824873692001,-0.3490902017645509,-10.961077189116248
227,4.079183635233343,73.17824873692001,-0.34308644453257164,-10.941280996144014
228,4.092470878344852,73.17824873692001,-0.3435372912703645,-10.956518273708827
229,4.105758121456361,73.17824873692001,-0.3441506043984633,-10.938917856384386
230,4.119045364567871,73.17824873692001,-0.3446642057000176,-10.930388403663901
231,4.13233260767938,73.17824873692001,-0.3410541095635659,-10.922245594317564
232,4.145619850790889,73.17824873692001,-0.34457847320083507,-10.929523884628896
233,4.158907093902398,73.17824873692001,-0.34247190719954335,-10.964478931630197
234,4.172194337013908,73.17824873692001,-0.3455691539535759,-10.949927076296296
235,4.185481580125416,73.17824873692001,-0.3399249455593721,-10.95459454013967
236,4.198768823236926,73.17824873692001,-0.3363965218882945,-10.932650237731654
237,4.212056066348436,73.17824873692001,-0.33075176132886774,-10.908141151988227
238,4.225343309459944,73.17824873692001,-0.33334425590530486,-10.897104939522123
239,4.238630552571454,73.17824873692001,-0.33421702948017645,-10.867934110956194
240,4.251917795682963,73.17824873692001,-0.3340448274744202,-10.86781606251712
241,4.265205038794472,73.17824873692001,-0.3367044334438577,-10.85368119350488
242,4.278492281905981,73.17824873692001,-0.3383037675338578,-10.867854973424233
243,4.291779525017491,73.17824873692001,-0.3409696181553702,-10.864529285415712
244,4.3050667681290005,73.17824873692001,-0.33823407768354097,-10.89958507480951
245,4.318354011240509,73.17824873692001,-0.33846107023662336,-10.902577341417848
246,4.331641254352019,73.17824873692001,-0.33949483770488964,-10.91563469160655
247,4.344928497463528,73.17824873692001,-0.33784816658091066,-10.934924988410353
248,4.358215740575037,73.17824873692001,-0.33862221974982526,-10.919425114117812
249,4.371502983686546,73.17824873692001,-0.34087522575267937,-10.946058390414297
250,4.384790226798056,73.17824873692001,-0.33960270910613194,-10.95961656851158
251,4.398077469909565,73.17824873692001,-0.3377915925370103,-10.972035299489594
252,4.411364713021074,73.17824873692001,-0.33739230405011406,-10.972049692323136
253,4.424651956132584,73.17824873692001,-0.33763271439320575,-10.970120239980346
254,4.437939199244092,73.17824873692001,-0.33753560615671985,-10.97010713391837
255,4.451226442355602,73.17824873692001,-0.33878984492549574,-10.959713678817401
256,4.464513685467111,73.17824873692001,-0.338603256635246,-10.987151199413965
257,4.47780092857862,73.17824873692001,-0.340505442432411,-10.962961742951213
258,4.49108817169013,73.17824873692001,-0.3380816397343827,-10.960258114578842
259,4.504375414801639,73.17824873692001,-0.3361987790205847,-10.957226144316666
260,4.5176626579131485,73.17824873692001,-0.33597069617908776,-10.935732315217738
261,4.530949901024657,73.17824873692001,-0.3371646854880505,-10.951637859482531
262,4.544237144136167,73.17824873692001,-0.3395133544412439,-10.960419302115199
263,4.557524387247676,73.17824873692001,-0.3397227478120024,-10.946384441313745
264,4.570811630359185,73.17824873692001,-0.3380210791218849,-10.953846845667263
265,4.584098873470695,73.17824873692001,-0.3372534135006227,-10.935739960482255
266,4.597386116582204,73.17824873692001,-0.3386338146587844,-10.933437890920287
267,4.610673359693713,73.17824873692001,-0.3389958852224033,-10.924810891715289
268,4.623960602805222,73.17824873692001,-0.33937231287338376,-10.910444505465916
269,4.637247845916732,73.17824873692001,-0.33697747205561646,-10.898341267743568
270,4.65053508902824,73.17824873692001,-0.3355710115380073,-10.92932407008955
271,4.66382233213975,73.17824873692001,-0.33765721838859036,-10.906051582036836
272,4.67710957525126,73.17824873692001,-0.33929298687314796,-10.916166388483212
273,4.690396818362768,73.17824873692001,-0.33966359171409566,-10.92181454197753
274,4.703684061474278,73.17824873692001,-0.33902310467481644,-10.917931000488656
275,4.716971304585787,73.17824873692001,-0.33805417463642656,-10.939589920516871
276,4.7302585476972965,73.17824873692001,-0.3378909633660725,-10.923685162399156
277,4.743545790808805,73.17824873692001,-0.34035657005370484,-10.913551995334323
278,4.756833033920315,73.17824873692001,-0.3389667136370682,-10.923127064684756
279,4.7701202770318245,73.17824873692001,-0.3401364269568019,-10.942693050958955
280,4.783407520143333,73.17824873692001,-0.339569928652147,-10.935136897428665
281,4.796694763254843,73.17824873692001,-0.3401544707880602,-10.949598881615442
282,4.809982006366352,73.17824873692001,-0.341399354638268,-10.951047041927557
283,4.823269249477861,73.17824873692001,-0.34182634052679567,-10.952176582014495
284,4.83655649258937,73.17824873692001,-0.3399017379358536,-10.97954195567761
285,4.84984373570088,73.17824873692001,-0.3406370235132249,-10.96962725918049
286,4.863130978812389,73.17824873692001,-0.34259512522006214,-10.969925209209421
287,4.876418221923898,73.17824873692001,-0.34064014436451645,-10.984527531713287
288,4.889705465035408,73.17824873692001,-0.3407605866548757,-10.998852236906444
289,4.9029927081469165,73.17824873692001,-0.3405912474606627,-10.990312096112556
290,4.916279951258426,73.17824873692001,-0.342420991964436,-10.931333719985059
291,4.929567194369935,73.17824873692001,-0.34176249029907213,-10.936695838921748
292,4.9428544374814445,73.17824873692001,-0.3418399931384001,-10.935652966331045
293,4.956141680592954,73.17824873692001,-0.3441241937494754,-10.934906636265428
294,4.969428923704463,73.17824873692001,-0.34357840230654574,-10.953600524675927
295,4.9827161668159725,73.17824873692001,-0.3440840271881488,-10.951321976195612
296,4.996003409927481,73.17824873692001,-0.3453903269278391,-10.959068781852732
297,5.009290653038991,73.17824873692001,-0.34451425747760084,-10.988513414192276
298,5.0225778961505,73.17824873692001,-0.3430984412321358,-10.981878019330106
299,5.035865139262009,73.17824873692001,-0.343513438698804,-10.952679726530532
300,5.049152382373519,73.17824873692001,-0.341759490929246,-10.947053009012725
301,5.062439625485028,73.17824873692001,-0.3386859108023388,-10.920215604615077
302,5.075726868596537,73.17824873692001,-0.33437274992186733,-10.900349414128522
303,5.089014111708046,73.17824873692001,-0.33251993712685146,-10.888995720584413
304,5.102301354819556,73.17824873692001,-0.3316430815583071,-10.858185943078139
305,5.1155885979310645,73.17824873692001,-0.3335564546220291,-10.861822074204413
306,5.128875841042574,73.17824873692001,-0.33341425265811914,-10.853132043252131
307,5.142163084154084,73.17824873692001,-0.336314366505966,-10.85587493068738
308,5.1554503272655925,73.17824873692001,-0.3387836813065896,-10.870821038213963
309,5.168737570377102,73.17824873692001,-0.33928918058630003,-10.87212164550676
310,5.182024813488611,73.17824873692001,-0.33860916246107875,-10.888249084200961
311,5.1953120566001205,73.17824873692001,-0.33892477855002934,-10.919605885058514
312,5.208599299711629,73.17824873692001,-0.33802268488349196,-10.916978153967916
313,5.221886542823139,73.17824873692001,-0.3404385990468517,-10.933101663484155
314,5.2351737859346485,73.17824873692001,-0.33990845301733175,-10.970965137589475
315,5.248461029046157,73.17824873692001,-0.3398935598073378,-10.959001904532016
316,5.261748272157667,73.17824873692001,-0.338807384189834,-10.944823855113667
317,5.275035515269176,73.17824873692001,-0.33683408864675846,-10.94685068973179
318,5.288322758380685,73.17824873692001,-0.3383710828989032,-10.9750936360035
319,5.301610001492194,73.17824873692001,-0.337075538418653,-10.991975928467795
320,5.314897244603704,73.17824873692001,-0.33756170716700035,-10.997586255131427
321,5.328184487715213,73.17824873692001,-0.3410692524516416,-10.99391723214833
322,5.341471730826722,73.17824873692001,-0.33652675942675736,-11.007376891401439
323,5.354758973938232,73.17824873692001,-0.3373260244107274,-10.974423053635926
324,5.3680462170497405,73.17824873692001,-0.33737558382022026,-10.962007246772536
325,5.38133346016125,73.17824873692001,-0.3384997464407585,-10.956933560557706
326,5.394620703272759,73.17824873692001,-0.33753927840069364,-10.95631955890069
327,5.4079079463842685,73.17824873692001,-0.3365933193097692,-10.957220263379762
328,5.421195189495778,73.17824873692001,-0.33893832613961306,-10.970462450715193
329,5.434482432607287,73.17824873692001,-0.3419110595298961,-10.982334102706208
330,5.447769675718797,73.17824873692001,-0.33730009515936116,-10.960543660229579
331,5.461056918830305,73.17824873692001,-0.3384368242230819,-10.953915323350744
332,5.474344161941815,73.17824873692001,-0.3382661703538073,-10.954702594892055
333,5.487631405053325,73.17824873692001,-0.34017665663176305,-10.923483764143427
334,5.500918648164833,73.17824873692001,-0.3406002846586687,-10.945501591068423
335,5.514205891276343,73.17824873692001,-0.3400260932434398,-10.932800301385308
336,5.527493134387852,73.17824873692001,-0.3399934860638991,-10.943921001241375
337,5.540780377499361,73.17824873692001,-0.3398749372817285,-10.929710577731882
338,5.55406762061087,73.17824873692001,-0.3436720854281754,-10.949355045044639
339,5.56735486372238,73.17824873692001,-0.34290722433543797,-10.951667145047205
340,5.580642106833889,73.17824873692001,-0.3405600655769346,-10.897354683731592
341,5.593929349945398,73.17824873692001,-0.3425531696764598,-10.920761629479323
342,5.607216593056908,73.17824873692001,-0.3441852846256795,-10.907959878823089
343,5.6205038361684165,73.17824873692001,-0.3427647477539103,-10.88310207514407
344,5.633791079279926,73.17824873692001,-0.3427765338094871,-10.934690587426092
345,5.647078322391435,73.17824873692001,-0.34109049712607875,-10.950948298241732
346,5.660365565502945,73.17824873692001,-0.34180173244271805,-10.928216133628672
347,5.673652808614454,73.17824873692001,-0.34265965260644893,-10.952134276920331
348,5.686940051725963,73.17824873692001,-0.34343278871331506,-10.930820813525536
349,5.700227294837473,73.17824873692001,-0.3439078863768879,-10.929162369530331
350,5.713514537948981,73.17824873692001,-0.3418881687641152,-10.943425059665959
351,5.726801781060491,73.17824873692001,-0.3427690413023907,-10.941330554665697
352,5.740089024172,73.17824873692001,-0.3430550295718799,-10.948011548098922
353,5.753376267283509,73.17824873692001,-0.34187662759781184,-10.961837193032055
354,5.766663510395019,73.17824873692001,-0.3432995971528319,-10.963206170404549
355,5.779950753506528,73.17824873692001,-0.3434048507042768,-10.979622205629383
356,5.793237996618037,73.17824873692001,-0.34593640970374756,-10.98057394961933
357,5.806525239729546,73.17824873692001,-0.34595334337326533,-10.953192295658416
358,5.819812482841056,73.17824873692001,-0.34467052982067375,-10.974839000823952
359,5.8330997259525645,73.17824873692001,-0.3444897046349115,-10.981930833976607
360,5.846386969064074,73.17824873692001,-0.34498265037173614,-10.99210977287386
361,5.859674212175584,73.17824873692001,-0.34538561821314107,-10.998557448749917
362,5.872961455287093,73.17824873692001,-0.3411337461541369,-10.96651105324517
363,5.886248698398602,73.17824873692001,-0.3434845283950367,-10.96642175860355
364,5.899535941510111,73.17824873692001,-0.3403293831526004,-10.975251366990367
365,5.912823184621621,73.17824873692001,-0.3455265457270526,-10.967219636643655
366,5.926110427733129,73.17824873692001,-0.3413640859698836,-10.990854281556139
367,5.939397670844639,73.17824873692001,-0.3419650117189825,-10.960920726465263
368,5.952684913956149,73.17824873692001,-0.3401219873520926,-10.946120477651531
369,5.965972157067657,73.17824873692001,-0.3350460746630883,-10.92497686816925
370,5.979259400179167,73.17824873692001,-0.33081700329393654,-10.911709342478174
371,5.992546643290676,73.17824873692001,-0.3325117606393057,-10.895119745854894
372,6.005833886402185,73.17824873692001,-0.33529646598284185,-10.88584419031276
373,6.019121129513694,73.17824873692001,-0.33681980896845576,-10.854502403544169
374,6.032408372625204,73.17824873692001,-0.33860222627305936,-10.835400155488333
375,6.045695615736713,73.17824873692001,-0.33793239131279473,-10.84677046389238
376,6.058982858848222,73.17824873692001,-0.3432210268806856,-10.86569367203391
377,6.072270101959732,73.17824873692001,-0.34349620883258053,-10.900598081982517
378,6.085557345071241,73.17824873692001,-0.3424549773273088,-10.937262834240759
379,6.09884458818275,73.17824873692001,-0.34347202994039516,-10.956885843614211
380,6.112131831294259,73.17824873692001,-0.3437966696031423,-10.940017884340216
381,6.125419074405769,73.17824873692001,-0.34391376078182606,-10.94201359242218
382,6.138706317517278,73.17824873692001,-0.34221705809597586,-10.9512488530069
383,6.151993560628787,73.17824873692001,-0.33997357129997646,-10.963659889796926
384,6.165280803740297,73.17824873692001,-0.34317674630983774,-10.975595438774636
385,6.178568046851805,73.17824873692001,-0.34067261438659785,-10.984824550323234
386,6.191855289963315,73.17824873692001,-0.34128337061587505,-10.993513132816256
387,6.205142533074824,73.17824873692001,-0.3410829183894316,-10.996340223703209
388,6.218429776186333,73.17824873692001,-0.3406277844664632,-10.975296227938719
389,6.231717019297843,73.17824873692001,-0.3408760615454964,-10.975227189075992
390,6.245004262409352,73.17824873692001,-0.33844163412373884,-11.008761081686956
391,6.258291505520861,73.17824873692001,-0.3403496633448578,-10.99099901826478
392,6.27157874863237,73.17824873692001,-0.34187527235249493,-10.992468292571127
393,6.28486599174388,73.17824873692001,-0.3413761544948698,-10.979975615631334
394,6.298153234855389,73.17824873692001,-0.342670108437289,-11.003462549085828
395,6.311440477966898,73.17824873692001,-0.34129125871007676,-10.960060500997576
396,6.324727721078408,73.17824873692001,-0.3401716589175506,-10.958239039846017
397,6.338014964189917,73.17824873692001,-0.3403746195001633,-10.974690834500137
398,6.351302207301426,73.17824873692001,-0.34173515662631615,-10.975813012486594
399,6.364589450412935,73.17824873692001,-0.3412072378545659,-10.942995963315441
400,6.377876693524445,73.17824873692001,-0.34175287200880294,-10.94394266455964
401,6.391163936635953,73.17824873692001,-0.34140134992198956,-10.926978879373474
402,6.404451179747463,73.17824873692001,-0.3423573522136936,-10.947609066365684
403,6.417738422858973,73.17824873692001,-0.3426090784621108,-10.918482867783416
404,6.431025665970481,73.17824873692001,-0.34047674456744403,-10.908605122968737
405,6.444312909081991,73.17824873692001,-0.3430394073534283,-10.910914826165062
406,6.4576001521935,73.17824873692001,-0.3418000322282255,-10.901541714674694
407,6.4708873953050094,73.17824873692001,-0.34371519418952556,-10.916849143472806
408,6.484174638416518,73.17824873692001,-0.3439532834517215,-10.915939634784632
409,6.497461881528028,73.17824873692001,-0.3432013553200744,-10.924002520576456
410,6.5107491246395375,73.17824873692001,-0.34500118458070217,-10.924000557477655
411,6.524036367751046,73.17824873692001,-0.34150885432380684,-10.918966147576604
412,6.537323610862556,73.17824873692001,-0.343225743064174,-10.917460379420252
413,6.550610853974065,73.17824873692001,-0.3430575820108092,-10.90947671686344
414,6.563898097085574,73.17824873692001,-0.34193627741898114,-10.963292992911963
415,6.577185340197083,73.17824873692001,-0.34315374933223564,-10.98519824852039
416,6.590472583308593,73.17824873692001,-0.34445595679884994,-10.915582928152109
417,6.603759826420102,73.17824873692001,-0.343880726257439,-10.96781383120399
418,6.617047069531611,73.17824873692001,-0.3445418435313252,-10.997681916021348
419,6.630334312643121,73.17824873692001,-0.34396062113484116,-10.98181607508658
420,6.643621555754629,73.17824873692001,-0.34234520626062975,-10.962408594712528
421,6.656908798866139,73.17824873692001,-0.34444598077891986,-10.965823526671231
422,6.670196041977648,73.17824873692001,-0.34587833485376585,-10.982709082706586
423,6.6834832850891575,73.17824873692001,-0.34157096668203557,-10.996779488230382
424,6.696770528200667,73.17824873692001,-0.3470082471982907,-11.00876376331699
425,6.710057771312176,73.17824873692001,-0.3456388686615806,-11.027639792924077
426,6.7233450144236855,73.17824873692001,-0.3471062274833307,-11.030543018800783
427,6.736632257535194,73.17824873692001,-0.3457975201533934,-10.999878200586465
428,6.749919500646704,73.17824873692001,-0.34414005644452483,-11.004351908807529
429,6.763206743758213,73.17824873692001,-0.3428695980312435,-10.98890060647757
430,6.776493986869722,73.17824873692001,-0.3417070529272351,-10.992035723337352
431,6.789781229981232,73.17824873692001,-0.34274110951025627,-10.97907897716202
432,6.803068473092741,73.17824873692001,-0.34147063049352777,-10.975142942888686
433,6.81635571620425,73.17824873692001,-0.3385899704027594,-10.972826699973632
434,6.829642959315759,73.17824873692001,-0.3337583206374977,-10.939561360525804
435,6.842930202427269,73.17824873692001,-0.3358070621982605,-10.919847302079011
436,6.856217445538777,73.17824873692001,-0.33295559914343886,-10.899098941659602
437,6.869504688650287,73.17824873692001,-0.33437181943140537,-10.899228900006776
438,6.882791931761797,73.17824873692001,-0.33378526927354796,-10.885166443591357
439,6.8960791748733055,73.17824873692001,-0.3366789887787065,-10.876560192990484
440,6.909366417984815,73.17824873692001,-0.34101425219832754,-10.896106267295945
441,6.922653661096324,73.17824873692001,-0.34262334588137466,-10.914763300629076
442,6.9359409042078335,73.17824873692001,-0.34254259466882697,-10.927888952578664
443,6.949228147319342,73.17824873692001,-0.34322412994618307,-10.930795354713934
444,6.962515390430852,73.17824873692001,-0.34376821731776297,-10.88949958638428
445,6.9758026335423615,73.17824873692001,-0.3430937410819847,-10.903433783966127
446,6.98908987665387,73.17824873692001,-0.34231675101466613,-10.912089773244878
447,7.00237711976538,73.17824873692001,-0.3413823902962166,-10.924896145014353
448,7.015664362876889,73.17824873692001,-0.33823819261030774,-10.933752372308113
449,7.028951605988398,73.17824873692001,-0.34477291992317344,-10.948445092615472
450,7.042238849099908,73.17824873692001,-0.34118594515378986,-10.974178137508694
451,7.055526092211417,73.17824873692001,-0.3420607722026532,-11.022182526158907
452,7.068813335322926,73.17824873692001,-0.34214275884020995,-10.98229378277158
453,7.082100578434435,73.17824873692001,-0.3393252779661752,-10.953175021995726
454,7.095387821545945,73.17824873692001,-0.33737857644664837,-10.94944186132167
455,7.1086750646574535,73.17824873692001,-0.3409170540179422,-10.932172029186455
456,7.121962307768963,73.17824873692001,-0.34252389991972065,-10.929190513775984
457,7.135249550880473,73.17824873692001,-0.34100817792848626,-10.929092011849106
458,7.1485367939919815,73.17824873692001,-0.34449740522213035,-10.943073523766692
459,7.161824037103491,73.17824873692001,-0.34120454745633405,-10.974467114508604
460,7.175111280215,73.17824873692001,-0.3411913319655536,-10.992525889016726
461,7.1883985233265095,73.17824873692001,-0.343717450939986,-10.987926045390255
462,7.201685766438018,73.17824873692001,-0.3436457315630271,-10.99917360064718
463,7.214973009549528,73.17824873692001,-0.3434192602146179,-11.003264699287426
464,7.228260252661037,73.17824873692001,-0.3436984234334988,-10.980398413571312
465,7.241547495772546,73.17824873692001,-0.34498842377557776,-11.001059134284041
466,7.254834738884056,73.17824873692001,-0.3454259851642608,-10.989524870926953
467,7.268121981995565,73.17824873692001,-0.34506188984904934,-10.977358685391897
468,7.281409225107074,73.17824873692001,-0.3458601276514704,-10.98483057144685
469,7.294696468218583,73.17824873692001,-0.3473130142217495,-10.992240910842808
470,7.307983711330093,73.17824873692001,-0.3460636503528419,-11.023028757398809
471,7.321270954441602,73.17824873692001,-0.3432593578583723,-11.004192067479766
472,7.334558197553111,73.17824873692001,-0.34309763616694716,-10.989822688664741
473,7.347845440664621,73.17824873692001,-0.3433903697070952,-10.998894042353431
474,7.3611326837761295,73.17824873692001,-0.3439545651717549,-10.943788995419439
475,7.374419926887639,73.17824873692001,-0.3437043032677738,-10.937278943947062
476,7.387707169999148,73.17824873692001,-0.3447805221968152,-10.910166846948641
477,7.4009944131106575,73.17824873692001,-0.3421256367253996,-10.916195809298463
478,7.414281656222167,73.17824873692001,-0.34435369134084387,-10.921895432808112
479,7.427568899333676,73.17824873692001,-0.34314617925780705,-10.935927786377773
480,7.440856142445186,73.17824873692001,-0.3438063098578147,-10.946489724971142
481,7.454143385556694,73.17824873692001,-0.3442100968023429,-10.943012455846109
482,7.467430628668204,73.17824873692001,-0.34530096243897546,-10.932494550512377
483,7.480717871779713,73.17824873692001,-0.3459955416387453,-10.940165300925221
484,7.494005114891222,73.17824873692001,-0.34275834814151335,-10.942527266015464
485,7.507292358002732,73.17824873692001,-0.34341253237602437,-10.961562487449378
486,7.520579601114241,73.17824873692001,-0.34605065759227766,-10.955571272949678
487,7.53386684422575,73.17824873692001,-0.344796300998107,-11.00323802567616
488,7.547154087337259,73.17824873692001,-0.344848563418725,-10.984415654339797
489,7.560441330448769,73.17824873692001,-0.3428063392418285,-11.012193530114867
490,7.573728573560277,73.17824873692001,-0.34083390497148486,-11.00788098282493
491,7.587015816671787,73.17824873692001,-0.34089031886964255,-10.9729273164978
492,7.600303059783297,73.17824873692001,-0.34047152163809546,-10.981171692024393
493,7.613590302894805,73.17824873692001,-0.34044676076153885,-11.000343295365209
494,7.626877546006315,73.17824873692001,-0.3397210265127429,-11.002418880670517
495,7.640164789117824,73.17824873692001,-0.3379251724981396,-10.976851192626745
496,7.653452032229334,73.17824873692001,-0.33566216241062236,-10.95331324717293
497,7.666739275340842,73.17824873692001,-0.33116632126824147,-10.900857333873333
498,7.680026518452352,73.17824873692001,-0.32876245880498217,-10.875095510648332
499,7.693313761563862,73.17824873692001,-0.3320962254013362,-10.878944969820296
500,7.70660100467537,73.17824873692001,-0.3364224333695856,-10.880894004077188
501,7.71988824778688,73.17824873692001,-0.3377599044699935,-10.893374235606908
502,7.733175490898389,73.17824873692001,-0.34122025759942604,-10.915338446228425
503,7.746462734009898,73.17824873692001,-0.34043314007479103,-10.928917853390553
504,7.759749977121407,73.17824873692001,-0.3430603492337204,-10.911777036423967
505,7.773037220232917,73.17824873692001,-0.3416466181875742,-10.920500286183692
506,7.786324463344426,73.17824873692001,-0.3454575767848557,-10.94528228809218
507,7.799611706455935,73.17824873692001,-0.3441494877293287,-10.957359553490056
508,7.812898949567445,73.17824873692001,-0.34583012900553123,-10.967318616979824
509,7.8261861926789535,73.17824873692001,-0.34340417433807013,-10.972460716134057
510,7.839473435790463,73.17824873692001,-0.34328080728611254,-10.981621256144189
511,7.852760678901972,73.17824873692001,-0.341992860171136,-10.98207743529433
512,7.866047922013482,73.17824873692001,-0.3424175295847504,-11.001916874323646
513,7.879335165124991,73.17824873692001,-0.34373956642534753,-10.986905797336327
514,7.8926224082365,73.17824873692001,-0.3401168038549975,-11.013902710073152
515,7.90590965134801,73.17824873692001,-0.34251058144589086,-11.006326261957103
516,7.919196894459518,73.17824873692001,-0.3398100390276067,-10.989033953673706
517,7.932484137571028,73.17824873692001,-0.342013371588805,-11.000259494310216
518,7.945771380682537,73.17824873692001,-0.3410350368593887,-10.992660874123905
519,7.959058623794046,73.17824873692001,-0.3439945820794253,-10.97483959300179
520,7.972345866905556,73.17824873692001,-0.34349094474814085,-10.972615992614827
521,7.985633110017065,73.17824873692001,-0.34234759487287764,-10.963752549970762
522,7.998920353128574,73.17824873692001,-0.3442406717851765,-10.970954978014866
523,8.012207596240083,73.17824873692001,-0.3428267114077861,-10.970508092230954
524,8.025494839351593,73.17824873692001,-0.3436362139752065,-10.983095908788092
525,8.038782082463102,73.17824873692001,-0.3429624771592165,-10.956591949990264
526,8.052069325574612,73.17824873692001,-0.34416371221458325,-10.966040349797582
527,8.06535656868612,73.17824873692001,-0.3418547128153026,-10.95959735450073
528,8.07864381179763,73.17824873692001,-0.3434498184072403,-10.94885225903092
529,8.09193105490914,73.17824873692001,-0.34483999084171363,-10.956948358717202
530,8.105218298020649,73.17824873692001,-0.3439496049986507,-10.978822864035125
531,8.118505541132157,73.17824873692001,-0.34147982386854414,-10.962506428270661
532,8.131792784243666,73.17824873692001,-0.34569466895717604,-10.98896292642852
533,8.145080027355176,73.17824873692001,-0.34669306308002806,-10.946576822085698
534,8.158367270466686,73.17824873692001,-0.34448715383495326,-10.944531077222125
535,8.171654513578195,73.17824873692001,-0.34374177293840086,-10.92582541467737
536,8.184941756689703,73.17824873692001,-0.3449908540192327,-10.939584834628445
537,8.198228999801213,73.17824873692001,-0.34480134063900497,-10.936269411658072
538,8.211516242912722,73.17824873692001,-0.3440834804829454,-10.956835487714526
539,8.224803486024232,73.17824873692001,-0.3452612597777833,-10.96599043193023
540,8.238090729135742,73.17824873692001,-0.3477701328181067,-10.971074106606899
541,8.25137797224725,73.17824873692001,-0.344365868199336,-10.97906656021557
542,8.26466521535876,73.17824873692001,-0.34334880247466776,-10.971325344812044
543,8.277952458470269,73.17824873692001,-0.34407714618230195,-10.990062854771308
544,8.291239701581778,73.17824873692001,-0.34260937180546336,-10.957057299568666
545,8.304526944693286,73.17824873692001,-0.34403598016056747,-10.96360513108928
546,8.317814187804796,73.17824873692001,-0.3456493519032638,-10.976754561586874
547,8.331101430916306,73.17824873692001,-0.34596375105720795,-11.003142268845545
548,8.344388674027815,73.17824873692001,-0.34499551501862086,-11.003476874863821
549,8.357675917139325,73.17824873692001,-0.34507147842854907,-10.977279075952856
550,8.370963160250833,73.17824873692001,-0.34354363227305246,-10.991600546842395
551,8.384250403362342,73.17824873692001,-0.34428218674230393,-10.986994437355795
552,8.397537646473852,73.17824873692001,-0.34243325009513736,-10.989085059112558
553,8.410824889585362,73.17824873692001,-0.343003972551947,-10.99457976094028
554,8.424112132696871,73.17824873692001,-0.3460380969703714,-11.0026338713734
555,8.43739937580838,73.17824873692001,-0.3430289337138599,-10.974644100278526
556,8.450686618919889,73.17824873692001,-0.34381370945597545,-10.998724290540792
557,8.463973862031398,73.17824873692001,-0.3439315317327082,-11.01015926763428
558,8.477261105142908,73.17824873692001,-0.3430990129099965,-11.001578270953
559,8.490548348254416,73.17824873692001,-0.34260583970144476,-10.98047668956356
560,8.503835591365926,73.17824873692001,-0.334951575322551,-10.951739283867244
561,8.517122834477435,73.17824873692001,-0.33243615414633715,-10.929192885953116
562,8.530410077588945,73.17824873692001,-0.33354327191001903,-10.920838487717496
563,8.543697320700455,73.17824873692001,-0.33569342253756024,-10.903735672559502
564,8.556984563811962,73.17824873692001,-0.3342706357857793,-10.89857637767146
565,8.570271806923472,73.17824873692001,-0.3355781186016277,-10.890294430532084
566,8.583559050034982,73.17824873692001,-0.34003165501173516,-10.887297780655407
567,8.596846293146491,73.17824873692001,-0.3413479941897671,-10.898462344397526
568,8.610133536258001,73.17824873692001,-0.3421371875847058,-10.925277789476793
569,8.623420779369509,73.17824873692001,-0.34216310556915125,-10.916947481280744
570,8.636708022481018,73.17824873692001,-0.3409052951074248,-10.92343284104678
571,8.649995265592528,73.17824873692001,-0.33923308480162767,-10.94926552904334
572,8.663282508704038,73.17824873692001,-0.33987208558222,-10.95662412116813
573,8.676569751815546,73.17824873692001,-0.3385175384278854,-10.94489373885615
574,8.689856994927055,73.17824873692001,-0.3403847911901476,-10.95238180262259
575,8.703144238038565,73.17824873692001,-0.3388574765030723,-10.981262052776156
576,8.716431481150074,73.17824873692001,-0.3425297576322778,-10.98616960258047
577,8.729718724261584,73.17824873692001,-0.34164300139721154,-10.99837120900691
578,8.743005967373092,73.17824873692001,-0.34180451941744655,-10.993570548895663
579,8.756293210484602,73.17824873692001,-0.33821177475950853,-11.037728241072049
580,8.769580453596111,73.17824873692001,-0.34017930158161835,-11.026326509495412
581,8.782867696707621,73.17824873692001,-0.3405916117291725,-11.027756587502626
582,8.79615493981913,73.17824873692001,-0.3400852227596582,-11.010029644036871
583,8.809442182930638,73.17824873692001,-0.3406387611689241,-11.018945198059619
584,8.822729426042148,73.17824873692001,-0.3390940740673769,-10.996974281938668
585,8.836016669153658,73.17824873692001,-0.339498769573907,-10.99520844017502
586,8.849303912265167,73.17824873692001,-0.3392055570823843,-10.98219030000288
587,8.862591155376675,73.17824873692001,-0.3411745113085106,-10.980031329202582
588,8.875878398488185,73.17824873692001,-0.3396471468147723,-10.968765001363483
589,8.889165641599694,73.17824873692001,-0.34037098540438326,-10.975610107558385
590,8.902452884711204,73.17824873692001,-0.34009165953724285,-10.956205732732895
591,8.915740127822714,73.17824873692001,-0.3414554736390556,-10.978727562867402
592,8.929027370934222,73.17824873692001,-0.3411049228989147,-10.969407551127825
593,8.942314614045731,73.17824873692001,-0.3406403105945993,-10.972983836263124
594,8.95560185715724,73.17824873692001,-0.33926942422526946,-10.963675419054459
595,8.96888910026875,73.17824873692001,-0.3406044102510276,-10.976755874890317
596,8.98217634338026,73.17824873692001,-0.3409061273079106,-10.96641701595874
597,8.995463586491768,73.17824873692001,-0.3393586841898809,-10.95943417117655
598,9.008750829603278,73.17824873692001,-0.3406584413573076,-10.943793701350467
599,9.022038072714787,73.17824873692001,-0.3444768227082225,-10.975731295894864
600,9.035325315826295,73.17824873692001,-0.3445119648113485,-10.967030352967193
601,9.048612558937805,73.17824873692001,-0.344335051866511,-10.983054720882162
602,9.061899802049314,73.17824873692001,-0.34298833695034475,-10.960242622111615
603,9.075187045160824,73.17824873692001,-0.3424890318817641,-10.954096255190958
604,9.088474288272334,73.17824873692001,-0.3411641388286588,-10.956490849169823
605,9.101761531383843,73.17824873692001,-0.3419497205887498,-10.949727902101797
606,9.115048774495351,73.17824873692001,-0.3454239304389572,-10.973630206190535
607,9.12833601760686,73.17824873692001,-0.34589514214131123,-10.973528180281672
608,9.14162326071837,73.17824873692001,-0.34523134262291355,-10.969691045051698
609,9.15491050382988,73.17824873692001,-0.3452928668427007,-10.97194526437497
610,9.16819774694139,73.17824873692001,-0.3422912710468648,-10.979965208540259
611,9.181484990052898,73.17824873692001,-0.3440582434613741,-10.983625390327333
612,9.194772233164407,73.17824873692001,-0.343764329857737,-10.988938268521657
613,9.208059476275915,73.17824873692001,-0.34469410686762586,-10.973604572573993
614,9.221346719387428,73.17824873692001,-0.3426596844918517,-11.003704194569648
615,9.234633962498934,73.17824873692001,-0.34461345238821783,-10.995512859536298
616,9.247921205610444,73.17824873692001,-0.34660512755961986,-10.997411228469582
617,9.261208448721954,73.17824873692001,-0.3435601805029757,-10.98259784722221
618,9.274495691833463,73.17824873692001,-0.3454266653936661,-10.997942939265846
619,9.287782934944971,73.17824873692001,-0.34617173299050996,-10.999713004746239
620,9.30107017805648,73.17824873692001,-0.34600587066666966,-11.001562703794349
621,9.31435742116799,73.17824873692001,-0.3426775521286589,-11.000510071628025
622,9.3276446642795,73.17824873692001,-0.3456767797436734,-10.999276039922043
623,9.34093190739101,73.17824873692001,-0.339840852302902,-10.992369366822917
624,9.35421915050252,73.17824873692001,-0.33400769339636127,-10.958218040566065
625,9.367506393614027,73.17824873692001,-0.33297774447349077,-10.933386013936255
626,9.380793636725535,73.17824873692001,-0.3348087520987824,-10.930030083093571
627,9.394080879837048,73.17824873692001,-0.333352719087719,-10.913717929928605
628,9.407368122948556,73.17824873692001,-0.3332385385886096,-10.91830547587713
629,9.420655366060066,73.17824873692001,-0.3386197856310319,-10.911908488191008
630,9.433942609171574,73.17824873692001,-0.3415537055019773,-10.906071116252198
631,9.447229852283083,73.17824873692001,-0.34065894350660814,-10.94395724826829
632,9.460517095394591,73.17824873692001,-0.3416612412218249,-10.974350171049267
633,9.473804338506104,73.17824873692001,-0.3400899660440387,-11.015900257470419
634,9.48709158161761,73.17824873692001,-0.3399475288681708,-11.002892039528838
635,9.50037882472912,73.17824873692001,-0.3395657662907899,-11.009779538007447
636,9.51366606784063,73.17824873692001,-0.3418923115768362,-10.95485047789467
637,9.52695331095214,73.17824873692001,-0.33894166593339276,-10.947058929093343
638,9.540240554063647,73.17824873692001,-0.3408491127708188,-10.966621336971746
639,9.553527797175157,73.17824873692001,-0.33942768030792203,-10.960482885607075
640,9.566815040286668,73.17824873692001,-0.33894502008560323,-11.009212232432816
641,9.580102283398176,73.17824873692001,-0.34091949215323447,-11.025183814763096
642,9.593389526509686,73.17824873692001,-0.33996418200238565,-11.01058009721
643,9.606676769621195,73.17824873692001,-0.3409428934008555,-11.00690233859877
644,9.619964012732703,73.17824873692001,-0.3359329329864031,-10.996454685113623
645,9.633251255844211,73.17824873692001,-0.3382670161701922,-10.967942540320287
646,9.646538498955724,73.17824873692001,-0.3407145853792493,-10.962816694182685
647,9.659825742067232,73.17824873692001,-0.3393131504783004,-10.955426613022428
648,9.67311298517874,73.17824873692001,-0.33800923588771786,-10.913140104963091
649,9.68640022829025,73.17824873692001,-0.3379345810504306,-10.964470399984151
650,9.69968747140176,73.17824873692001,-0.34332848786671627,-10.98578765479222
651,9.712974714513267,73.17824873692001,-0.3409985766149891,-10.967873947584279
652,9.72626195762478,73.17824873692001,-0.3395839312242472,-10.976523787658351
653,9.739549200736286,73.17824873692001,-0.34064152201988024,-10.969189540832495
654,9.752836443847796,73.17824873692001,-0.3411524815021016,-10.962689143168685
655,9.766123686959306,73.17824873692001,-0.34052428945579727,-10.977534601244141
656,9.779410930070815,73.17824873692001,-0.3416843616019303,-10.977766964449502
657,9.792698173182323,73.17824873692001,-0.3403964243663379,-10.97219506234759
658,9.805985416293831,73.17824873692001,-0.3423796911631455,-10.968079236623629
659,9.819272659405344,73.17824873692001,-0.34193729969476405,-10.969799083037026
660,9.832559902516852,73.17824873692001,-0.3409409393359521,-10.975962890207603
661,9.845847145628362,73.17824873692001,-0.34404993487837315,-10.962446630417856
662,9.85913438873987,73.17824873692001,-0.342162865286782,-10.967498261795955
663,9.87242163185138,73.17824873692001,-0.3453495837794039,-10.941697282376161
664,9.885708874962887,73.17824873692001,-0.3442886184921212,-10.998356730173148
665,9.8989961180744,73.17824873692001,-0.3443851473924604,-11.036769601831121
666,9.912283361185908,73.17824873692001,-0.34135562713259104,-11.03095099446164
667,9.925570604297416,73.17824873692001,-0.3419657861140848,-11.004501442094638
668,9.938857847408926,73.17824873692001,-0.344108525479471,-10.998402837711076
669,9.952145090520435,73.17824873692001,-0.34577741339428836,-11.007035355484316
670,9.965432333631943,73.17824873692001,-0.3447879099750871,-11.037602123077791
671,9.978719576743456,73.17824873692001,-0.3457152845279803,-11.027232739557988
672,9.992006819854964,73.17824873692001,-0.34744780926657304,-11.026355668536093
673,10.005294062966472,73.17824873692001,-0.3474543749592652,-11.02428088222241
674,10.018581306077982,73.17824873692001,-0.3459742242365776,-11.013466089468618
675,10.031868549189491,73.17824873692001,-0.3447429812149637,-11.022051018502346
676,10.045155792301,73.17824873692001,-0.3430486800638682,-11.014424039582538
677,10.058443035412507,73.17824873692001,-0.3451991608425913,-10.98002484116828
678,10.07173027852402,73.17824873692001,-0.343767414585569,-10.948379491712867
679,10.085017521635528,73.17824873692001,-0.3431982756119243,-10.993832751354345
680,10.098304764747038,73.17824873692001,-0.3427836760236805,-11.04672994356626
681,10.111592007858546,73.17824873692001,-0.34521064386609573,-10.988487084363165
682,10.124879250970055,73.17824873692001,-0.340802901116444,-10.979769183857723
683,10.138166494081563,73.17824873692001,-0.34288103636118183,-10.945623608551768
684,10.151453737193076,73.17824873692001,-0.338586170052159,-10.959581166250322
685,10.164740980304584,73.17824873692001,-0.33526885198169587,-10.918871185822043
686,10.178028223416092,73.17824873692001,-0.33525689952862014,-10.913101405309618
687,10.191315466527602,73.17824873692001,-0.3331024090318827,-10.892109134560405
688,10.204602709639111,73.17824873692001,-0.3312350174006566,-10.899023120092956
689,10.21788995275062,73.17824873692001,-0.3409535279574596,-10.887677910910455
690,10.231177195862127,73.17824873692001,-0.33977295389122414,-10.888304076368643
691,10.24446443897364,73.17824873692001,-0.342652639529552,-10.905705005682625
692,10.257751682085148,73.17824873692001,-0.3444802749205253,-10.919519091619556
693,10.271038925196658,73.17824873692001,-0.3434224205112252,-10.939412848714502
694,10.284326168308167,73.17824873692001,-0.34642169201660966,-10.954176077944782
695,10.297613411419675,73.17824873692001,-0.3436728103761611,-10.959488341194973
696,10.310900654531183,73.17824873692001,-0.3440359460801413,-10.967672735082607
697,10.324187897642696,73.17824873692001,-0.34400186725756676,-10.989549627290746
698,10.337475140754204,73.17824873692001,-0.3432178919442597,-10.985101804540616
699,10.350762383865714,73.17824873692001,-0.34643266456239186,-11.004584527242294
700,10.364049626977222,73.17824873692001,-0.34304990694825693,-10.995658265782886
701,10.377336870088731,73.17824873692001,-0.3453467115137442,-11.024178409374246
702,10.39062411320024,73.17824873692001,-0.3448536822147123,-11.04459381372257
703,10.40391135631175,73.17824873692001,-0.3473634444221564,-11.038615862069147
704,10.41719859942326,73.17824873692001,-0.34538079667576355,-11.056127732551092
705,10.430485842534768,73.17824873692001,-0.34635395370358796,-11.040118479806925
706,10.443773085646278,73.17824873692001,-0.34698565384611596,-11.025052441201359
707,10.457060328757787,73.17824873692001,-0.3416910164977567,-11.040029363949243
708,10.470347571869295,73.17824873692001,-0.3419534218947892,-11.004049468154433
709,10.483634814980803,73.17824873692001,-0.34165398491734444,-10.983830479946088
710,10.496922058092316,73.17824873692001,-0.34449252275813835,-10.987600648746744
711,10.510209301203824,73.17824873692001,-0.3429046666163905,-10.997019821064278
712,10.523496544315334,73.17824873692001,-0.3465568700632059,-10.97964952617284
713,10.536783787426844,73.17824873692001,-0.34509494268856256,-10.999384733468608
714,10.550071030538351,73.17824873692001,-0.342618889348677,-11.008992246709427
715,10.56335827364986,73.17824873692001,-0.3442076110470388,-10.990483820556943
716,10.57664551676137,73.17824873692001,-0.3435501303997847,-10.98841943055437
717,10.58993275987288,73.17824873692001,-0.34368352750144093,-11.001003329645123
718,10.603220002984388,73.17824873692001,-0.34417730333125457,-11.016443329134026
719,10.616507246095898,73.17824873692001,-0.3439076689452564,-11.026755435272184
720,10.629794489207407,73.17824873692001,-0.34140688995840474,-11.024090045906384
721,10.643081732318915,73.17824873692001,-0.34559373015311956,-10.987600415401454
722,10.656368975430428,73.17824873692001,-0.34360403655099786,-10.932771060407577
723,10.669656218541936,73.17824873692001,-0.34261158534162717,-10.938168704220027
724,10.682943461653444,73.17824873692001,-0.3394754059205039,-10.965614828792535
725,10.696230704764954,73.17824873692001,-0.3449898761458223,-10.961190480780386
726,10.709517947876463,73.17824873692001,-0.3408477414874027,-10.963617954726935
727,10.722805190987971,73.17824873692001,-0.34176455391156746,-10.965440194706694
728,10.73609243409948,73.17824873692001,-0.342171437714602,-10.971751945836315
729,10.74937967721099,73.17824873692001,-0.3415363650733295,-10.99760775800326
730,10.7626669203225,73.17824873692001,-0.33990658989432604,-10.967957146197222
731,10.77595416343401,73.17824873692001,-0.34131906486676244,-10.958183670114545
732,10.789241406545518,73.17824873692001,-0.33973258643831045,-10.969898846092072
733,10.802528649657027,73.17824873692001,-0.34333447996830246,-10.962134156187792
734,10.815815892768535,73.17824873692001,-0.34385499789554286,-11.017244988040142
735,10.829103135880048,73.17824873692001,-0.34266101885452566,-10.996023908524498
736,10.842390378991556,73.17824873692001,-0.34466787547777106,-11.023984780873734
737,10.855677622103064,73.17824873692001,-0.3459608644289586,-11.029896500117966
738,10.868964865214574,73.17824873692001,-0.34686501943638137,-10.991454409652015
739,10.882252108326083,73.17824873692001,-0.342350674810527,-11.008565312574618
740,10.895539351437591,73.17824873692001,-0.3405665154841736,-10.997377323062965
741,10.908826594549105,73.17824873692001,-0.3402449030685958,-10.977829972528545
742,10.92211383766061,73.17824873692001,-0.3355390034233325,-11.003849483168773
743,10.93540108077212,73.17824873692001,-0.3359805151792598,-11.000105083637804
744,10.94868832388363,73.17824873692001,-0.33487995728558917,-10.972057317935594
745,10.96197556699514,73.17824873692001,-0.33595882834370455,-10.949249450456358
746,10.97526281010665,73.17824873692001,-0.33542741076429355,-10.93419007518349
747,10.988550053218155,73.17824873692001,-0.33512629461135446,-10.922193327795556
748,11.001837296329668,73.17824873692001,-0.33651732440753823,-10.906556815280865
749,11.015124539441176,73.17824873692001,-0.34229289547250963,-10.912108061603995
750,11.028411782552686,73.17824873692001,-0.34376872123585606,-10.942911930631261
751,11.041699025664194,73.17824873692001,-0.34532501083156075,-10.967822258542093
752,11.054986268775703,73.17824873692001,-0.34596578588490123,-10.982674898482152
753,11.068273511887211,73.17824873692001,-0.3428333079172146,-10.979898600154216
754,11.081560754998725,73.17824873692001,-0.34509473543223584,-10.999481590299954
755,11.094847998110232,73.17824873692001,-0.34493278370059954,-11.00281314549272
756,11.10813524122174,73.17824873692001,-0.34643538533473023,-10.99596960257136
757,11.12142248433325,73.17824873692001,-0.3463716722891473,-11.02254006462905
758,11.13470972744476,73.17824873692001,-0.34711834618663306,-11.030806707901561
759,11.14799697055627,73.17824873692001,-0.3459001239005554,-11.034647407089592
760,11.16128421366778,73.17824873692001,-0.34409407170992934,-11.017869448723127
761,11.174571456779288,73.17824873692001,-0.34370987296882927,-10.99748726144776
762,11.187858699890796,73.17824873692001,-0.3429082594513656,-11.000633372829483
763,11.201145943002306,73.17824873692001,-0.3418268691357337,-10.976724144031074
764,11.214433186113816,73.17824873692001,-0.339805724603981,-10.983152045815995
765,11.227720429225323,73.17824873692001,-0.34310651336970976,-10.981688326538567
766,11.241007672336831,73.17824873692001,-0.34352467538893866,-10.992069843279017
767,11.254294915448344,73.17824873692001,-0.34339718053603663,-11.0022243909872
768,11.267582158559852,73.17824873692001,-0.3417895766469179,-10.98772730745675
769,11.280869401671362,73.17824873692001,-0.3425026488368162,-11.018989411291763
770,11.29415664478287,73.17824873692001,-0.3437176421439527,-11.026098335832321
771,11.30744388789438,73.17824873692001,-0.3435247909411283,-11.011341158971291
772,11.32073113100589,73.17824873692001,-0.34402143537428337,-10.986335879822741
773,11.3340183741174,73.17824873692001,-0.3474395945879853,-11.003019005235142
774,11.347305617228908,73.17824873692001,-0.34284283807727695,-10.99393956079157
775,11.360592860340416,73.17824873692001,-0.34361991385381685,-11.012766494212421
776,11.373880103451926,73.17824873692001,-0.3433678341983122,-11.015965537252056
777,11.387167346563436,73.17824873692001,-0.3423731313436544,-11.001745855256505
778,11.400454589674943,73.17824873692001,-0.3416177963517604,-10.997079660503253
779,11.413741832786451,73.17824873692001,-0.34198093528412676,-11.01140825009408
780,11.427029075897964,73.17824873692001,-0.34126000062569656,-10.997873376531157
781,11.440316319009472,73.17824873692001,-0.3399153880143435,-11.002445695637304
782,11.453603562120982,73.17824873692001,-0.3414728099317007,-10.975920997914798
783,11.466890805232492,73.17824873692001,-0.3424897403339195,-10.979104891065168
784,11.480178048344,73.17824873692001,-0.34273214295649185,-10.97857382121273
785,11.493465291455507,73.17824873692001,-0.34268734891214375,-10.992390397670965
786,11.50675253456702,73.17824873692001,-0.3404282983179745,-10.993846486088104
787,11.520039777678528,73.17824873692001,-0.3419182591505839,-11.008052459859037
788,11.533327020790038,73.17824873692001,-0.3411596854700743,-10.999582403735864
789,11.546614263901546,73.17824873692001,-0.3406366933232754,-11.008343443222271
790,11.559901507013056,73.17824873692001,-0.34317530928349294,-10.984744121423468
791,11.573188750124563,73.17824873692001,-0.3420734574900476,-10.977519891924421
792,11.586475993236077,73.17824873692001,-0.3433496154684536,-10.986551064853458
793,11.599763236347584,73.17824873692001,-0.34448296986635274,-11.011032154148936
794,11.613050479459092,73.17824873692001,-0.3409184280633817,-10.980929493777674
795,11.626337722570602,73.17824873692001,-0.33812511171104687,-10.994347775824838
796,11.639624965682112,73.17824873692001,-0.3348816859392359,-10.97382590194115
797,11.65291220879362,73.17824873692001,-0.33371036856599634,-10.950529421211082
798,11.666199451905127,73.17824873692001,-0.33134228165213236,-10.928039975935725
799,11.67948669501664,73.17824873692001,-0.33273870272664247,-10.938003574512939
800,11.692773938128148,73.17824873692001,-0.3355135968952245,-10.892256052370781
801,11.706061181239658,73.17824873692001,-0.33546316692165107,-10.929927580943055
802,11.719348424351168,73.17824873692001,-0.3409139765506658,-10.947044358291077
803,11.732635667462675,73.17824873692001,-0.3421933660543693,-10.981180524479043
804,11.745922910574183,73.17824873692001,-0.34427396287337764,-11.000788856357767
805,11.759210153685697,73.17824873692001,-0.34354575953216565,-11.00020116017825
806,11.772497396797204,73.17824873692001,-0.3474546260764114,-10.994311874428963
807,11.785784639908712,73.17824873692001,-0.34612460143971086,-11.028789362315415
808,11.799071883020222,73.17824873692001,-0.34543482672310083,-11.043162564437054
809,11.812359126131732,73.17824873692001,-0.3461972785549123,-11.036824800633898
810,11.82564636924324,73.17824873692001,-0.345144877367897,-11.052076398033591
811,11.83893361235475,73.17824873692001,-0.34629568792983934,-11.057573647658279
812,11.85222085546626,73.17824873692001,-0.34502065938741355,-11.053733582021824
813,11.865508098577768,73.17824873692001,-0.3442330928471644,-11.062263286041224
814,11.878795341689278,73.17824873692001,-0.3467323840864511,-11.062093812308055
815,11.892082584800788,73.17824873692001,-0.34374025586142704,-11.00305402820328
816,11.905369827912295,73.17824873692001,-0.3444212633758112,-10.985734756167705
817,11.918657071023803,73.17824873692001,-0.34313747613260653,-10.985894562428566
818,11.931944314135317,73.17824873692001,-0.34558772838684493,-10.959048645465273
819,11.945231557246824,73.17824873692001,-0.34369480244101347,-10.959159349330244
820,11.958518800358334,73.17824873692001,-0.3443858820468905,-10.95169477223536
821,11.971806043469842,73.17824873692001,-0.3436223136652146,-10.958459842186224
822,11.985093286581352,73.17824873692001,-0.345643438985615,-10.934618545802058
823,11.99838052969286,73.17824873692001,-0.3472406350279444,-10.937505556431352
824,12.01166777280437,73.17824873692001,-0.3448785478072275,-11.000674028769316
825,12.02495501591588,73.17824873692001,-0.347529473843493,-11.009435247030744
826,12.038242259027388,73.17824873692001,-0.34591468394567576,-10.968815188540345
827,12.051529502138898,73.17824873692001,-0.34383720555589703,-10.97094258352082
828,12.064816745250408,73.17824873692001,-0.34390758028759166,-10.957123348700826
829,12.078103988361915,73.17824873692001,-0.3453206321558614,-11.003411168684238
830,12.091391231473429,73.17824873692001,-0.3461798012597219,-10.99786418694522
831,12.104678474584937,73.17824873692001,-0.3453935685610748,-10.982089547711483
832,12.117965717696444,73.17824873692001,-0.34619357339987816,-11.003265415236122
833,12.131252960807954,73.17824873692001,-0.34391214755484145,-11.028370006358895
834,12.144540203919464,73.17824873692001,-0.34582279425920115,-11.041233230198374
835,12.157827447030972,73.17824873692001,-0.34596551771544715,-11.024559857135507
836,12.17111469014248,73.17824873692001,-0.34340086099803113,-11.007587607799753
837,12.18440193325399,73.17824873692001,-0.3439416808657976,-11.005606922445612
838,12.1976891763655,73.17824873692001,-0.3434496634126345,-11.026772280001298
839,12.21097641947701,73.17824873692001,-0.3438486198404691,-11.030137714122505
840,12.224263662588518,73.17824873692001,-0.34340899286949816,-11.02820873574656
841,12.237550905700028,73.17824873692001,-0.34509379727653816,-11.035369499031846
842,12.250838148811535,73.17824873692001,-0.3426592298719942,-11.013978912394286
843,12.264125391923049,73.17824873692001,-0.3425229481125035,-11.027888534275482
844,12.277412635034556,73.17824873692001,-0.3474230220392449,-11.032993398101288
845,12.290699878146064,73.17824873692001,-0.3447155895713969,-11.03395698460664
846,12.303987121257574,73.17824873692001,-0.3442850953821763,-11.016683671768261
847,12.317274364369084,73.17824873692001,-0.34381031500725245,-11.034690507131538
848,12.330561607480591,73.17824873692001,-0.344055290312231,-11.03539794096256
849,12.3438488505921,73.17824873692001,-0.33696153873730067,-11.015405180291733
850,12.35713609370361,73.17824873692001,-0.3351556292619283,-11.006052506908208
851,12.37042333681512,73.17824873692001,-0.33118161333749113,-11.002009305730612
852,12.38371057992663,73.17824873692001,-0.3347038054874048,-10.960817083715861
853,12.39699782303814,73.17824873692001,-0.33640948708297885,-10.958739263267566
854,12.410285066149648,73.17824873692001,-0.3348579229645407,-10.929468358516706
855,12.423572309261155,73.17824873692001,-0.33712248864242017,-10.940912085387072
856,12.436859552372669,73.17824873692001,-0.34308582808257954,-10.959185464381525
857,12.450146795484176,73.17824873692001,-0.34289392184833584,-10.919268259823523
858,12.463434038595686,73.17824873692001,-0.34426768092757587,-10.928439080775407
859,12.476721281707194,73.17824873692001,-0.3444832004632361,-10.94784354688361
860,12.490008524818704,73.17824873692001,-0.3431897261809307,-10.965501411773179
861,12.503295767930211,73.17824873692001,-0.34003770367981323,-10.976576843812595
862,12.516583011041725,73.17824873692001,-0.340060739863183,-11.012624051689082
863,12.529870254153233,73.17824873692001,-0.3425948540973505,-10.989469334988014
864,12.54315749726474,73.17824873692001,-0.3406436468828435,-10.996674516701443
865,12.55644474037625,73.17824873692001,-0.3426035731688549,-10.993616593677089
866,12.56973198348776,73.17824873692001,-0.3418017301981442,-11.014761317811493
867,12.58301922659927,73.17824873692001,-0.3430734073910878,-11.021274852554356
868,12.596306469710775,73.17824873692001,-0.34073079501853243,-11.00673784399041
869,12.609593712822289,73.17824873692001,-0.3389722617695407,-11.03037359431317
870,12.622880955933796,73.17824873692001,-0.340825187453127,-11.023121041295074
871,12.636168199045306,73.17824873692001,-0.34095867901008625,-11.002528802911609
872,12.649455442156816,73.17824873692001,-0.3404252894699119,-10.98783616078903
873,12.662742685268324,73.17824873692001,-0.342232708297556,-10.974025097673533
874,12.676029928379831,73.17824873692001,-0.3383068778491759,-10.995070299331562
875,12.689317171491345,73.17824873692001,-0.3393236669442342,-11.009946232428735
876,12.702604414602853,73.17824873692001,-0.3422425500381172,-11.01788945035513
877,12.715891657714362,73.17824873692001,-0.3409198423402233,-11.003440626839357
878,12.72917890082587,73.17824873692001,-0.34027196057243014,-10.988887016640648
879,12.74246614393738,73.17824873692001,-0.3408350121206194,-10.995923750933503
880,12.75575338704889,73.17824873692001,-0.340773021729121,-10.993436629790391
881,12.7690406301604,73.17824873692001,-0.34100184040204257,-10.987372319432486
882,12.782327873271909,73.17824873692001,-0.3430567546347997,-11.00610578400724
883,12.795615116383416,73.17824873692001,-0.34415339454888294,-11.010487665417443
884,12.808902359494926,73.17824873692001,-0.34149976967757606,-11.023896958509608
885,12.822189602606436,73.17824873692001,-0.34023590304729034,-11.030249478002817
886,12.835476845717944,73.17824873692001,-0.34234203566042715,-11.048040420927643
887,12.848764088829451,73.17824873692001,-0.3420858924305651,-11.02733098969815
888,12.862051331940965,73.17824873692001,-0.34361268433997155,-11.016782126342507
889,12.875338575052472,73.17824873692001,-0.3415558389901974,-11.03881500125293
890,12.888625818163982,73.17824873692001,-0.33984910401362506,-11.014329364869312
891,12.901913061275492,73.17824873692001,-0.3447959555742581,-11.039973758765143
892,12.915200304387,73.17824873692001,-0.3444836049272062,-11.046471732411808
893,12.92848754749851,73.17824873692001,-0.3435813168055659,-11.028760086890758
894,12.94177479061002,73.17824873692001,-0.3401901506454369,-11.023765278509266
895,12.955062033721529,73.17824873692001,-0.34108610379931187,-11.017304294226646
896,12.968349276833036,73.17824873692001,-0.34274548636501107,-11.038788388169268
897,12.981636519944546,73.17824873692001,-0.3456234345435476,-11.02471392099213
898,12.994923763056056,73.17824873692001,-0.34310032315844224,-11.020228333446727
899,13.008211006167564,73.17824873692001,-0.34528300356450287,-11.03540325471233
900,13.021498249279077,73.17824873692001,-0.34290777100415026,-11.024729766339066
901,13.034785492390585,73.17824873692001,-0.34190111084030095,-11.011685640600616
902,13.048072735502092,73.17824873692001,-0.34237284457465383,-11.010488998327085
903,13.061359978613602,73.17824873692001,-0.33768500718765104,-10.985627552361818
904,13.074647221725112,73.17824873692001,-0.3357234818724698,-10.978646595547218
905,13.08793446483662,73.17824873692001,-0.3339912312765493,-10.9440462049228
906,13.10122170794813,73.17824873692001,-0.33529714343842165,-10.900762664655689
907,13.11450895105964,73.17824873692001,-0.3333189910504162,-10.94231458715745
908,13.127796194171149,73.17824873692001,-0.3337699286620737,-10.948384370298628
909,13.141083437282658,73.17824873692001,-0.33541712826813297,-10.934267471724864
910,13.154370680394166,73.17824873692001,-0.33680076966816425,-10.945578847500938
911,13.167657923505676,73.17824873692001,-0.3357891248294822,-10.943048014069104
912,13.180945166617184,73.17824873692001,-0.3365025822962553,-10.943313267527913
913,13.194232409728697,73.17824873692001,-0.3348975625360602,-10.980123845390985
914,13.207519652840205,73.17824873692001,-0.33854641383030626,-10.975611386015037
915,13.220806895951712,73.17824873692001,-0.33783197660091224,-11.0154606392763
916,13.234094139063222,73.17824873692001,-0.33825993742781524,-11.036669117660194
917,13.247381382174732,73.17824873692001,-0.33639091041571195,-11.033381442071729
918,13.26066862528624,73.17824873692001,-0.33548908069954303,-11.037166583460445
919,13.273955868397753,73.17824873692001,-0.33878287149691955,-10.983784203337569
920,13.28724311150926,73.17824873692001,-0.335536884726618,-10.983831527346153
921,13.300530354620768,73.17824873692001,-0.33464461978519183,-11.040337629574605
922,13.313817597732278,73.17824873692001,-0.3366573894285306,-11.072141730387061
923,13.327104840843788,73.17824873692001,-0.3354467652415718,-11.07184675284752
924,13.340392083955296,73.17824873692001,-0.33352142557713504,-11.027967262772039
925,13.353679327066803,73.17824873692001,-0.333430132838982,-11.043056198981226
926,13.366966570178317,73.17824873692001,-0.33576308270867755,-11.03419624481088
927,13.380253813289825,73.17824873692001,-0.3367701490213571,-11.036503420740173
928,13.393541056401334,73.17824873692001,-0.33634701340017825,-11.035111322603402
929,13.406828299512842,73.17824873692001,-0.3365931309371955,-10.9934540701403
930,13.420115542624352,73.17824873692001,-0.33737702694821603,-11.00134680068648
931,13.43340278573586,73.17824873692001,-0.3340089541305169,-10.995336553595008
932,13.446690028847373,73.17824873692001,-0.33202054893316585,-11.001382477589955
933,13.45997727195888,73.17824873692001,-0.3348080098607987,-10.980450373559664
934,13.473264515070388,73.17824873692001,-0.33599010178224564,-10.981699729873066
935,13.486551758181898,73.17824873692001,-0.33624502767796244,-10.970226478488042
936,13.499839001293408,73.17824873692001,-0.3358299871977017,-11.010400461732191
937,13.513126244404916,73.17824873692001,-0.33483726654040663,-11.032331163261683
938,13.526413487516423,73.17824873692001,-0.3365764386075978,-11.00609896556785
939,13.539700730627937,73.17824873692001,-0.3360801572645141,-10.989928278637464
940,13.552987973739445,73.17824873692001,-0.3355403795799902,-11.010518282422131
941,13.566275216850954,73.17824873692001,-0.3374507617698461,-11.012233385398622
942,13.579562459962464,73.17824873692001,-0.33872455469592755,-11.021516620050251
943,13.592849703073972,73.17824873692001,-0.3369391108615164,-11.02526527538643
944,13.60613694618548,73.17824873692001,-0.33607906051137765,-11.025844175792315
945,13.619424189296993,73.17824873692001,-0.3367718329993344,-11.009568959014358
946,13.6327114324085,73.17824873692001,-0.336780307559739,-11.021897569326748
947,13.64599867552001,73.17824873692001,-0.3368359622415595,-11.027817239079509
948,13.659285918631518,73.17824873692001,-0.3383384960735166,-11.03785740962898
949,13.672573161743028,73.17824873692001,-0.3367695133476692,-11.037731087149446
950,13.685860404854536,73.17824873692001,-0.337642988776515,-11.017600045195739
951,13.699147647966049,73.17824873692001,-0.3373331832537552,-11.025777123636486
952,13.712434891077557,73.17824873692001,-0.33762015574652166,-11.032851519491585
953,13.725722134189065,73.17824873692001,-0.33770038321657647,-11.038921516654913
954,13.739009377300574,73.17824873692001,-0.33569519411081644,-11.061340858683039
955,13.752296620412084,73.17824873692001,-0.33997122178242345,-11.039237973369769
956,13.765583863523592,73.17824873692001,-0.3363486762943617,-11.051796308142778
957,13.7788711066351,73.17824873692001,-0.3371094059857102,-11.023200068395962
958,13.792158349746613,73.17824873692001,-0.3355207741027053,-11.012775884193749
959,13.80544559285812,73.17824873692001,-0.33491312660141603,-11.011505941111038
960,13.81873283596963,73.17824873692001,-0.3309258768630496,-10.98822045235231
961,13.83202007908114,73.17824873692001,-0.3293158422613967,-10.96422017092911
962,13.845307322192648,73.17824873692001,-0.32594824228047775,-10.957394300504046
963,13.858594565304156,73.17824873692001,-0.3276552781163226,-10.95059720127569
964,13.871881808415669,73.17824873692001,-0.33001901030637676,-10.919646780634618
965,13.885169051527177,73.17824873692001,-0.3312852536424339,-10.921903003710668
966,13.898456294638684,73.17824873692001,-0.33225280732822027,-10.956683104592559
967,13.911743537750194,73.17824873692001,-0.3339524554514212,-10.960873344008688
968,13.925030780861704,73.17824873692001,-0.3327478290913733,-10.978715821854754
969,13.938318023973212,73.17824873692001,-0.33370131262129865,-10.980364454980245
970,13.951605267084725,73.17824873692001,-0.3327627903573961,-10.977706772248185
971,13.964892510196233,73.17824873692001,-0.32850139110350696,-10.985296919690539
972,13.97817975330774,73.17824873692001,-0.3293095295320737,-10.991933508406786
973,13.99146699641925,73.17824873692001,-0.3302800502795418,-11.011356509855753
974,14.00475423953076,73.17824873692001,-0.3316113546846129,-11.011282611367848
975,14.01804148264227,73.17824873692001,-0.3314478951106914,-11.035664891453894
976,14.031328725753776,73.17824873692001,-0.3285040909798316,-11.026664857213062
977,14.044615968865289,73.17824873692001,-0.32644446443493325,-11.047226576639067
978,14.057903211976797,73.17824873692001,-0.32985805025577364,-11.036766993543853
979,14.071190455088306,73.17824873692001,-0.3262949219388214,-11.046354064297681
980,14.084477698199816,73.17824873692001,-0.32766825979470776,-11.03101165841233
981,14.097764941311324,73.17824873692001,-0.3269447956269226,-11.027886272398046
982,14.111052184422832,73.17824873692001,-0.32764464358902035,-11.04516184819269
983,14.124339427534345,73.17824873692001,-0.327503495581843,-11.026331298417588
984,14.137626670645853,73.17824873692001,-0.33208030672956795,-11.00187632487452
985,14.15091391375736,73.17824873692001,-0.3298638006700421,-10.995090881694182
986,14.16420115686887,73.17824873692001,-0.3286817922129761,-10.984224698711463
987,14.17748839998038,73.17824873692001,-0.32869064096752404,-11.024737632003395
988,14.19077564309189,73.17824873692001,-0.3287249546286709,-11.040987712013585
989,14.2040628862034,73.17824873692001,-0.33055447050969566,-11.014234382571907
990,14.217350129314909,73.17824873692001,-0.3272748683316844,-11.01909785783556
991,14.230637372426417,73.17824873692001,-0.33145433760597415,-11.044160138510273
992,14.243924615537926,73.17824873692001,-0.3325719581251784,-11.037252133002537
993,14.257211858649436,73.17824873692001,-0.3313946670811772,-11.051575397130286
994,14.270499101760944,73.17824873692001,-0.33126111603240804,-11.024645058410972
995,14.283786344872452,73.17824873692001,-0.3310959393451834,-11.055088437435048
996,14.297073587983965,73.17824873692001,-0.3318300219809866,-11.032594803472474
997,14.310360831095473,73.17824873692001,-0.3316025440220581,-11.041882812654777
998,14.323648074206982,73.17824873692001,-0.3322299782578119,-11.040348540168935
999,14.33693531731849,73.17824873692001,-0.33044317614237173,-11.034968386209275
1000,14.35022256043,73.17824873692001,-0.3300607285354846,-10.999514226343118
1001,14.36350980354151,73.17824873692001,-0.33121952432244456,-11.014366056427447
1002,14.37679704665302,73.17824873692001,-0.3318722991296607,-10.999135327195308
1003,14.390084289764529,73.17824873692001,-0.3315852320742093,-11.022542263511822
1004,14.403371532876037,73.17824873692001,-0.3341930118169213,-11.01221462159162
1005,14.416658775987546,73.17824873692001,-0.33171068919803326,-11.003455418055845
1006,14.429946019099056,73.17824873692001,-0.3339102333039479,-11.015779039352745
1007,14.443233262210564,73.17824873692001,-0.3322041302816867,-11.01713687343137
1008,14.456520505322077,73.17824873692001,-0.3316993806988971,-11.020503403937305
1009,14.469807748433585,73.17824873692001,-0.32947670282320846,-11.005809566572475
1010,14.483094991545093,73.17824873692001,-0.33231081577019184,-11.006403974063709
1011,14.496382234656602,73.17824873692001,-0.33267421268013025,-11.011441448369109
1012,14.509669477768112,73.17824873692001,-0.33474099390309076,-11.059731227550747
1013,14.52295672087962,73.17824873692001,-0.3349651948177128,-11.0551101948583
1014,14.53624396399113,73.17824873692001,-0.3353207301041237,-11.037591564880373
1015,14.54953120710264,73.17824873692001,-0.3328597574055653,-11.04670267357005
1016,14.562818450214149,73.17824873692001,-0.3378007815530147,-11.04188978379981
1017,14.576105693325658,73.17824873692001,-0.33323332000457906,-11.048040234283764
1018,14.589392936437166,73.17824873692001,-0.330043079188286,-11.014948723539135
1019,14.602680179548676,73.17824873692001,-0.32585295298432226,-11.007545547100447
1020,14.615967422660184,73.17824873692001,-0.32446522137251593,-10.97045715493028
1021,14.629254665771697,73.17824873692001,-0.32510095063368055,-10.97697297325449
1022,14.642541908883205,73.17824873692001,-0.3228765159699065,-10.948241295329172
1023,14.655829151994713,73.17824873692001,-0.32556649531284254,-10.946292105181593
1024,14.669116395106222,73.17824873692001,-0.3273669599313517,-10.902522847530433
1025,14.682403638217732,73.17824873692001,-0.3253807129546141,-10.910032285058316
1026,14.695690881329242,73.17824873692001,-0.32998292716729105,-10.926446687387196
1027,14.70897812444075,73.17824873692001,-0.32512823798592067,-10.95697780256017
1028,14.72226536755226,73.17824873692001,-0.32666135801742724,-10.958532303086098
1029,14.735552610663769,73.17824873692001,-0.32726819355604336,-10.975324366366564
1030,14.748839853775278,73.17824873692001,-0.3270608605863721,-11.014640661413136
1031,14.762127096886788,73.17824873692001,-0.3295164465225891,-11.027346531445833
1032,14.775414339998296,73.17824873692001,-0.32855918053430033,-11.014644786825569
1033,14.788701583109804,73.17824873692001,-0.33102172100831184,-11.030130259425656
1034,14.801988826221317,73.17824873692001,-0.3308745773751566,-11.077120062371742
1035,14.815276069332825,73.17824873692001,-0.32998990029344855,-11.083321296710196
1036,14.828563312444334,73.17824873692001,-0.3291832676641211,-11.06111388391242
1037,14.841850555555842,73.17824873692001,-0.33389052448712314,-11.06725460163553
1038,14.855137798667352,73.17824873692001,-0.33027237552126487,-11.085864307540875
1039,14.86842504177886,73.17824873692001,-0.3302522210550654,-11.062858292283337
1040,14.881712284890371,73.17824873692001,-0.33181451609023915,-11.040970115456858
1041,14.89499952800188,73.17824873692001,-0.33071581728026117,-11.051639040263872
1042,14.908286771113389,73.17824873692001,-0.33025924039593774,-11.04107880816956
1043,14.921574014224898,73.17824873692001,-0.3306724837791769,-11.031151387271496
1044,14.934861257336408,73.17824873692001,-0.33206053605794456,-11.018554280234513
1045,14.948148500447918,73.17824873692001,-0.32990269273148437,-11.036716695568197
1046,14.961435743559424,73.17824873692001,-0.33140229592339693,-11.0276035167056
1047,14.974722986670937,73.17824873692001,-0.3307375309375439,-11.044359880820574
1048,14.988010229782445,73.17824873692001,-0.32800893527140523,-11.014710313371477
1049,15.001297472893954,73.17824873692001,-0.3323079776320648,-11.026212978603034
1050,15.014584716005464,73.17824873692001,-0.3313384440596704,-11.036566521365426
1051,15.027871959116972,73.17824873692001,-0.3309670796055405,-11.00198366151219
1052,15.04115920222848,73.17824873692001,-0.3294685598942328,-11.022464295096658
1053,15.054446445339993,73.17824873692001,-0.33224107853623125,-11.013422679585723
1054,15.0677336884515,73.17824873692001,-0.3308655730808399,-10.999947477998894
1055,15.081020931563009,73.17824873692001,-0.33302220649312253,-11.011706804397098
1056,15.094308174674518,73.17824873692001,-0.33079874693136563,-11.019008681955691
1057,15.107595417786028,73.17824873692001,-0.32997227814872404,-11.020575917541992
1058,15.120882660897538,73.17824873692001,-0.33049095326676614,-10.994480451367036
1059,15.134169904009047,73.17824873692001,-0.3293256966260096,-11.0108523527351
1060,15.147457147120557,73.17824873692001,-0.33069248631816367,-11.013232703907175
1061,15.160744390232065,73.17824873692001,-0.33050978524633345,-11.00298867054944
1062,15.174031633343574,73.17824873692001,-0.32736850437391196,-11.00870732012816
1063,15.187318876455084,73.17824873692001,-0.3268972343249091,-11.03176711711615
1064,15.200606119566594,73.17824873692001,-0.3291415448656946,-10.99761099285887
1065,15.2138933626781,73.17824873692001,-0.32775351320376034,-11.05837126114151
1066,15.227180605789613,73.17824873692001,-0.3282199475843198,-11.043358952841539
1067,15.24046784890112,73.17824873692001,-0.32725350069573894,-11.036141970934356
1068,15.25375509201263,73.17824873692001,-0.3280165365211266,-11.034255747230484
1069,15.267042335124138,73.17824873692001,-0.32785226890792935,-11.055021447866338
1070,15.280329578235648,73.17824873692001,-0.32904219157161235,-11.044813089691587
1071,15.293616821347156,73.17824873692001,-0.33079623628949056,-11.056377033431264
1072,15.306904064458667,73.17824873692001,-0.32964103024639535,-11.048387989772346
1073,15.320191307570177,73.17824873692001,-0.3280570930060479,-11.047453039880239
1074,15.333478550681685,73.17824873692001,-0.3298000168932621,-11.037950156238233
1075,15.346765793793194,73.17824873692001,-0.32702593207922476,-11.066035578472935
1076,15.360053036904704,73.17824873692001,-0.3284915412590837,-11.071014597294118
1077,15.373340280016214,73.17824873692001,-0.3296645909530305,-11.040845662069165
1078,15.386627523127723,73.17824873692001,-0.3222651387232517,-11.015608191030257
1079,15.399914766239233,73.17824873692001,-0.3165320550043852,-11.008538981829394
1080,15.41320200935074,73.17824873692001,-0.3191766028988399,-10.975310498186055
1081,15.42648925246225,73.17824873692001,-0.31722920714770253,-10.96274943277176
1082,15.43977649557376,73.17824873692001,-0.32131816469642804,-10.93424143480511
1083,15.453063738685268,73.17824873692001,-0.32341188441067503,-10.934615751056933
1084,15.466350981796776,73.17824873692001,-0.32495356013309784,-10.908075216681501
1085,15.479638224908287,73.17824873692001,-0.32876560243700303,-10.94192476205866
1086,15.492925468019797,73.17824873692001,-0.3284418019683823,-10.954760450194183
1087,15.506212711131306,73.17824873692001,-0.3329092430550648,-10.99497376512446
1088,15.519499954242814,73.17824873692001,-0.33403005952916526,-11.00347749786962
1089,15.532787197354324,73.17824873692001,-0.3325422630766439,-11.009598561305108
1090,15.546074440465834,73.17824873692001,-0.3310685264210472,-11.017938417902151
1091,15.559361683577343,73.17824873692001,-0.32913346255058734,-11.035735108818441
1092,15.572648926688853,73.17824873692001,-0.33219796458837203,-11.055783019564064
1093,15.58593616980036,73.17824873692001,-0.3315223732073285,-11.04560469573297
1094,15.59922341291187,73.17824873692001,-0.33206489246599363,-11.041748205749933
1095,15.61251065602338,73.17824873692001,-0.3298806994499552,-11.062459525331167
1096,15.62579789913489,73.17824873692001,-0.3304869212280896,-11.08172018005502
1097,15.639085142246396,73.17824873692001,-0.3308233504145316,-11.071098093268379
1098,15.652372385357909,73.17824873692001,-0.32954442193997247,-11.084331314581368
1099,15.665659628469417,73.17824873692001,-0.3319216068550948,-11.055084047845902
1100,15.678946871580926,73.17824873692001,-0.3308274275076011,-11.034461207699684
1101,15.692234114692436,73.17824873692001,-0.32858443749161986,-11.022224689865391
1102,15.705521357803944,73.17824873692001,-0.3288586198069976,-11.020582711392553
1103,15.718808600915454,73.17824873692001,-0.3320292060897539,-11.030851990144427
1104,15.732095844026963,73.17824873692001,-0.3296136139681249,-11.032727082369249
1105,15.745383087138473,73.17824873692001,-0.3297176354678837,-11.024874577954026
1106,15.758670330249982,73.17824873692001,-0.32823116423532533,-11.017101849672029
1107,15.77195757336149,73.17824873692001,-0.3294749064967025,-11.039132837672609
1108,15.785244816473,73.17824873692001,-0.3320273004549281,-11.022193137955336
1109,15.79853205958451,73.17824873692001,-0.33089131521876014,-11.021767450317936
1110,15.81181930269602,73.17824873692001,-0.3312261461260001,-11.055247329834529
1111,15.825106545807529,73.17824873692001,-0.33273960305932065,-11.033889304188364
1112,15.838393788919037,73.17824873692001,-0.3321479681439744,-11.023951547936813
1113,15.851681032030546,73.17824873692001,-0.3322613876837732,-10.984993239788793
1114,15.864968275142056,73.17824873692001,-0.33064376839234877,-10.999087639797834
1115,15.878255518253566,73.17824873692001,-0.33051783164962273,-11.0136779313516
1116,15.891542761365072,73.17824873692001,-0.32718210361657973,-11.006986861843783
1117,15.904830004476583,73.17824873692001,-0.33016804219066914,-11.04991414537199
1118,15.918117247588093,73.17824873692001,-0.33134881817113865,-11.08116346155194
1119,15.931404490699602,73.17824873692001,-0.3327885308378743,-11.082072160479333
1120,15.944691733811112,73.17824873692001,-0.33397645607794024,-11.045126632604633
1121,15.95797897692262,73.17824873692001,-0.33171405270827614,-11.014999447995885
1122,15.97126622003413,73.17824873692001,-0.3304274261504794,-11.01595069152889
1123,15.98455346314564,73.17824873692001,-0.33006768442577616,-11.013697107038336
1124,15.997840706257149,73.17824873692001,-0.3293953229679088,-11.022662674190697
1125,16.011127949368657,73.17824873692001,-0.3301730575519205,-10.988087361167118
1126,16.024415192480166,73.17824873692001,-0.32936963711004263,-10.990723184673342
1127,16.037702435591676,73.17824873692001,-0.33275358492232665,-11.03199955018683
1128,16.050989678703186,73.17824873692001,-0.33086571388053276,-11.034878660012698
1129,16.064276921814695,73.17824873692001,-0.3307562878769252,-11.029426062045218
1130,16.077564164926205,73.17824873692001,-0.3328559148782909,-11.058950184931165
1131,16.090851408037715,73.17824873692001,-0.3320693335289269,-11.05841631976471
1132,16.104138651149224,73.17824873692001,-0.3282059537991184,-11.054029371469547
1133,16.11742589426073,73.17824873692001,-0.32885550772647515,-11.04863975466404
1134,16.13071313737224,73.17824873692001,-0.3312040121107466,-11.045561133245721
1135,16.14400038048375,73.17824873692001,-0.3296748382498458,-11.03720724044025
1136,16.15728762359526,73.17824873692001,-0.32931089366846544,-11.036951669256867
1137,16.17057486670677,73.17824873692001,-0.33124621659151887,-11.055930176902578
1138,16.18386210981828,73.17824873692001,-0.3326305393717999,-11.052611873300094
1139,16.197149352929788,73.17824873692001,-0.33425586773698596,-11.070727915394082
1140,16.210436596041298,73.17824873692001,-0.32998586807682484,-11.059402685945768
1141,16.223723839152807,73.17824873692001,-0.3296391606645688,-11.048508829235073
1142,16.237011082264313,73.17824873692001,-0.32689596613059546,-11.064407307119343
1143,16.250298325375823,73.17824873692001,-0.3221325985048813,-11.023651812208659
1144,16.263585568487333,73.17824873692001,-0.3216670859403042,-11.007923005055575
1145,16.276872811598842,73.17824873692001,-0.3212502153009197,-10.974610876601771
1146,16.290160054710352,73.17824873692001,-0.3230638920639327,-10.960622361420079
1147,16.30344729782186,73.17824873692001,-0.32308893995781335,-10.94738796478776
1148,16.31673454093337,73.17824873692001,-0.3235747372287731,-10.943003472333137
1149,16.33002178404488,73.17824873692001,-0.32675429533400635,-10.920016920895797
1150,16.34330902715639,73.17824873692001,-0.32390045396530853,-10.943361803826983
1151,16.356596270267897,73.17824873692001,-0.32888581686257895,-10.971962648545206
1152,16.369883513379406,73.17824873692001,-0.32963147838685053,-11.005252933841765
1153,16.383170756490916,73.17824873692001,-0.33107030006349275,-11.007469422356937
1154,16.396457999602426,73.17824873692001,-0.32753621595378546,-11.019061212275432
1155,16.409745242713935,73.17824873692001,-0.3288396474191781,-11.011612037327097
1156,16.423032485825445,73.17824873692001,-0.33017830724699665,-11.044497575607615
1157,16.436319728936954,73.17824873692001,-0.33013656078474135,-11.029685731013078
1158,16.449606972048464,73.17824873692001,-0.32845632642083505,-11.07252797464169
1159,16.462894215159974,73.17824873692001,-0.3282908612749941,-11.082878354787509
1160,16.476181458271483,73.17824873692001,-0.3290910347005788,-11.072685673456245
1161,16.48946870138299,73.17824873692001,-0.32837709774602747,-11.087780130633197
1162,16.5027559444945,73.17824873692001,-0.32975193957474075,-11.074124535603172
1163,16.51604318760601,73.17824873692001,-0.32818886768237376,-11.091747924618847
1164,16.52933043071752,73.17824873692001,-0.32980585898779136,-11.071016067950225
1165,16.542617673829028,73.17824873692001,-0.32827864482416963,-11.063833137913488
1166,16.555904916940538,73.17824873692001,-0.3273418489592389,-11.07241397874816
1167,16.569192160052047,73.17824873692001,-0.3284006882781698,-11.050023768433483
1168,16.582479403163557,73.17824873692001,-0.3291921541768879,-11.025996104673531
1169,16.595766646275067,73.17824873692001,-0.32684895385738716,-11.037570736014208
1170,16.609053889386573,73.17824873692001,-0.32975603609009624,-11.046953269945169
1171,16.622341132498082,73.17824873692001,-0.3290727249625757,-11.02323793270661
1172,16.635628375609592,73.17824873692001,-0.33196733582642396,-11.01520491397124
1173,16.6489156187211,73.17824873692001,-0.3285149503013774,-11.021829579235908
1174,16.66220286183261,73.17824873692001,-0.32981484205562567,-11.056700132049334
1175,16.67549010494412,73.17824873692001,-0.3280024055500122,-11.0399567622569
1176,16.68877734805563,73.17824873692001,-0.32899131282197136,-11.051753528149897
1177,16.70206459116714,73.17824873692001,-0.3281981651887628,-11.023733291064675
1178,16.71535183427865,73.17824873692001,-0.32875110658190854,-11.028651245893228
1179,16.728639077390156,73.17824873692001,-0.3300272421896446,-11.02010186705122
1180,16.741926320501666,73.17824873692001,-0.33206772061883055,-10.99474697707994
1181,16.755213563613175,73.17824873692001,-0.32749183284784217,-11.018215163878125
1182,16.768500806724685,73.17824873692001,-0.33014288640258926,-11.009755425747395
1183,16.781788049836194,73.17824873692001,-0.33154652735412543,-11.016634336744957
1184,16.795075292947704,73.17824873692001,-0.33144903285343236,-11.02961692463682
1185,16.808362536059214,73.17824873692001,-0.32500680216006017,-11.043365299450212
1186,16.821649779170723,73.17824873692001,-0.32861860319779074,-11.030833082288723
1187,16.834937022282233,73.17824873692001,-0.32964886723004444,-11.01252292542572
1188,16.848224265393743,73.17824873692001,-0.326542724037009,-11.021438746188027
1189,16.86151150850525,73.17824873692001,-0.33313669212845437,-10.988738655458771
1190,16.87479875161676,73.17824873692001,-0.3302376394638744,-11.026277816089493
1191,16.888085994728268,73.17824873692001,-0.3294205846546986,-11.029464322732457
1192,16.901373237839778,73.17824873692001,-0.3292548455762962,-11.027145693007238
1193,16.914660480951287,73.17824873692001,-0.33059391245332836,-11.021748102719943
1194,16.927947724062797,73.17824873692001,-0.3293673397694994,-11.01549578361586
1195,16.941234967174307,73.17824873692001,-0.3317491017037856,-11.036614967374216
1196,16.954522210285816,73.17824873692001,-0.3303304871033491,-11.052437847972051
1197,16.967809453397326,73.17824873692001,-0.33148332867225283,-11.074171128001836
1198,16.981096696508832,73.17824873692001,-0.33334060685085165,-11.067606673833202
1199,16.99438393962034,73.17824873692001,-0.33053174447169803,-11.067062251002818
1200,17.00767118273185,73.17824873692001,-0.3320047059566564,-11.082452464733096
1201,17.02095842584336,73.17824873692001,-0.3285423236906784,-11.070735433475008
1202,17.03424566895487,73.17824873692001,-0.3305105385677427,-11.058887760839477
1203,17.04753291206638,73.17824873692001,-0.33249940959640484,-11.066560737188007
1204,17.06082015517789,73.17824873692001,-0.3311214374708933,-11.08604165671788
1205,17.0741073982894,73.17824873692001,-0.3313710499867727,-11.086237852814207
1206,17.08739464140091,73.17824873692001,-0.33127102710572787,-11.090720813248984
1207,17.100681884512415,73.17824873692001,-0.3306193172034872,-11.072027621513396
1208,17.113969127623925,73.17824873692001,-0.33164862779359194,-11.077920937418154
1209,17.127256370735434,73.17824873692001,-0.331080622951133,-11.052047635360806
1210,17.140543613846944,73.17824873692001,-0.3291287832465408,-11.03959397080422
1211,17.153830856958454,73.17824873692001,-0.3247218452231363,-11.049639828328832
1212,17.167118100069963,73.17824873692001,-0.3242094635470839,-11.002318336342022
1213,17.180405343181473,73.17824873692001,-0.3189100028536204,-10.985266982377867
1214,17.193692586292983,73.17824873692001,-0.32070282821150137,-10.971015458420702
1215,17.206979829404492,73.17824873692001,-0.32239192899425106,-10.935829951421615
1216,17.220267072516002,73.17824873692001,-0.32443863561792247,-10.935170256880603
1217,17.233554315627508,73.17824873692001,-0.32613033333250174,-10.934929447205885
1218,17.246841558739018,73.17824873692001,-0.3287705076772914,-10.967597699970959
1219,17.260128801850527,73.17824873692001,-0.3332600418808608,-10.96971849261456
1220,17.273416044962037,73.17824873692001,-0.3291630083254047,-10.977292049973817
1221,17.286703288073547,73.17824873692001,-0.331298582393229,-10.990242946818924
1222,17.299990531185056,73.17824873692001,-0.32946189223999456,-11.017855887017353
1223,17.313277774296566,73.17824873692001,-0.3297425181153047,-11.014020531611422
1224,17.326565017408075,73.17824873692001,-0.33003213420743444,-11.04387205186789
1225,17.339852260519585,73.17824873692001,-0.329816242792548,-11.050208241614165
1226,17.35313950363109,73.17824873692001,-0.330590668534874,-11.071843428007243
1227,17.3664267467426,73.17824873692001,-0.3308064694856183,-11.086499676446577
1228,17.37971398985411,73.17824873692001,-0.33057796114518384,-11.063432688823056
1229,17.39300123296562,73.17824873692001,-0.3280988209807985,-11.073292580300773
1230,17.40628847607713,73.17824873692001,-0.3302988506369007,-11.082825701545206
1231,17.41957571918864,73.17824873692001,-0.3310220049979402,-11.086424611716131
1232,17.43286296230015,73.17824873692001,-0.32980046784099093,-11.099777880016884
1233,17.44615020541166,73.17824873692001,-0.33050907566927445,-11.058171908348344
1234,17.45943744852317,73.17824873692001,-0.3286408370574437,-11.08356687989055
1235,17.472724691634678,73.17824873692001,-0.32738518135235817,-11.076850263209066
1236,17.486011934746184,73.17824873692001,-0.3306914704265559,-11.04143674258992
1237,17.499299177857694,73.17824873692001,-0.33179596078652296,-11.08086871933314
1238,17.512586420969203,73.17824873692001,-0.32855860418114063,-11.072107616790737
1239,17.525873664080713,73.17824873692001,-0.3290474205363772,-11.033925306610016
1240,17.539160907192223,73.17824873692001,-0.3290505433970959,-11.037365174645322
1241,17.552448150303732,73.17824873692001,-0.33092813909949453,-11.024154596420752
1242,17.565735393415242,73.17824873692001,-0.3299655632797769,-11.029545618977611
1243,17.57902263652675,73.17824873692001,-0.33207071046068637,-11.04200024745626
1244,17.59230987963826,73.17824873692001,-0.33121141567876505,-11.065346151840298
1245,17.605597122749767,73.17824873692001,-0.32773671495393225,-11.04699422883372
1246,17.618884365861277,73.17824873692001,-0.3319240003587454,-11.015349363464283
1247,17.632171608972786,73.17824873692001,-0.3316061270152484,-11.02091184322231
1248,17.645458852084296,73.17824873692001,-0.3305079249935473,-11.017120038254932
1249,17.658746095195806,73.17824873692001,-0.33049022132342704,-11.017655029432225
1250,17.672033338307315,73.17824873692001,-0.3315183095109629,-11.039289959233708
1251,17.685320581418825,73.17824873692001,-0.33150356511355866,-11.012910178625567
1252,17.698607824530335,73.17824873692001,-0.3327031624811767,-11.014928544433074
1253,17.711895067641844,73.17824873692001,-0.3331316715389394,-11.053490205365051
1254,17.72518231075335,73.17824873692001,-0.33074508208702924,-11.023746128454475
1255,17.73846955386486,73.17824873692001,-0.3316677657693159,-11.050986829103602
1256,17.75175679697637,73.17824873692001,-0.3313869622209668,-11.0316121665573
1257,17.76504404008788,73.17824873692001,-0.3308650253912443,-11.034552192003112
1258,17.77833128319939,73.17824873692001,-0.3345428423774374,-11.005918132928914
1259,17.7916185263109,73.17824873692001,-0.3312915114027395,-11.014947931663137
1260,17.804905769422408,73.17824873692001,-0.327709809171386,-11.023441289491918
1261,17.818193012533918,73.17824873692001,-0.3285889796967971,-11.00999501465347
1262,17.831480255645427,73.17824873692001,-0.3345014556787208,-11.012393482224565
1263,17.844767498756937,73.17824873692001,-0.3331575755006157,-11.085365026021831
1264,17.858054741868443,73.17824873692001,-0.33384881834942653,-11.104134481900315
1265,17.871341984979953,73.17824873692001,-0.33303384577361256,-11.102899021761292
1266,17.884629228091462,73.17824873692001,-0.33334665412352843,-11.100811607340729
1267,17.897916471202972,73.17824873692001,-0.33406954027686997,-11.090349855461062
1268,17.91120371431448,73.17824873692001,-0.3324685951516604,-11.076015666328923
1269,17.92449095742599,73.17824873692001,-0.3301305370073902,-11.094562347640355
1270,17.9377782005375,73.17824873692001,-0.3322042341177378,-11.080924911728664
1271,17.95106544364901,73.17824873692001,-0.33389042776475525,-11.042164894921937
1272,17.96435268676052,73.17824873692001,-0.3347007864129976,-11.05363942476856
1273,17.977639929872026,73.17824873692001,-0.3334425871401843,-11.028165451041176
1274,17.990927172983536,73.17824873692001,-0.3313135798419063,-11.04210368405051
1275,18.004214416095046,73.17824873692001,-0.33074192584220674,-11.08016462508334
1276,18.017501659206555,73.17824873692001,-0.32692169862956477,-11.018984807552512
1277,18.030788902318065,73.17824873692001,-0.32170164615792085,-11.046601148220077
1278,18.04407614542957,73.17824873692001,-0.3177704490980777,-11.061765127797058
1279,18.057363388541084,73.17824873692001,-0.325053111373664,-11.012643399163014
1280,18.070650631652597,73.17824873692001,-0.3211462348284534,-10.977923397283682
1281,18.083937874764104,73.17824873692001,-0.32054953080720133,-10.94267666359021
1282,18.09722511787561,73.17824873692001,-0.3247616704909249,-10.954971893106999
1283,18.11051236098712,73.17824873692001,-0.3285104134459448,-10.97020988473014
1284,18.12379960409863,73.17824873692001,-0.33021612339301315,-10.987400437412024
1285,18.13708684721014,73.17824873692001,-0.32786724432795267,-10.9860230872569
1286,18.150374090321648,73.17824873692001,-0.33119589626423757,-11.037925741165648
1287,18.16366133343316,73.17824873692001,-0.334771227153219,-11.034096553598195
1288,18.176948576544667,73.17824873692001,-0.33322412216246855,-11.058077489657853
1289,18.190235819656177,73.17824873692001,-0.333154717591819,-11.093269892549351
1290,18.203523062767687,73.17824873692001,-0.3345711788472853,-11.061251092085453
1291,18.2168103058792,73.17824873692001,-0.3316320653315902,-11.047608723593505
1292,18.230097548990702,73.17824873692001,-0.3323556254589697,-11.06471921991853
1293,18.24338479210221,73.17824873692001,-0.33005005848703917,-11.057117045873344
1294,18.25667203521372,73.17824873692001,-0.33075162283804405,-11.038038508501936
1295,18.26995927832523,73.17824873692001,-0.330409886373756,-11.047452161783635
1296,18.28324652143674,73.17824873692001,-0.32725784713925954,-11.04386376058571
1297,18.29653376454825,73.17824873692001,-0.3312016782001273,-11.039651437539455
1298,18.30982100765976,73.17824873692001,-0.33144129814313583,-11.067356627299487
1299,18.32310825077127,73.17824873692001,-0.3300117319650946,-11.102984483434396
1300,18.33639549388278,73.17824873692001,-0.3306602380331452,-11.07772289291286
1301,18.34968273699429,73.17824873692001,-0.32966751311738807,-11.07585492188294
1302,18.362969980105795,73.17824873692001,-0.3303289243633771,-11.06976461327231
1303,18.376257223217305,73.17824873692001,-0.330428657589922,-11.082928061373034
1304,18.38954446632881,73.17824873692001,-0.33344300333100557,-11.082112724616277
1305,18.402831709440324,73.17824873692001,-0.33265286496969104,-11.10365306033261
1306,18.416118952551837,73.17824873692001,-0.33271603100568997,-11.041619629243165
1307,18.429406195663343,73.17824873692001,-0.33173761483567127,-11.04403967497577
1308,18.442693438774853,73.17824873692001,-0.3325644580433291,-11.035359739113906
1309,18.455980681886363,73.17824873692001,-0.3317381752779667,-11.025635679239649
1310,18.46926792499787,73.17824873692001,-0.3341208350357806,-11.031201944343733
1311,18.48255516810938,73.17824873692001,-0.3331043486893348,-11.027711005257407
1312,18.495842411220888,73.17824873692001,-0.33322331475962663,-11.0158502653454
1313,18.5091296543324,73.17824873692001,-0.3325629726893514,-11.024185281102675
1314,18.522416897443907,73.17824873692001,-0.3321294873987056,-11.02175771646841
1315,18.535704140555417,73.17824873692001,-0.3340077463376206,-11.040621037196093
1316,18.548991383666927,73.17824873692001,-0.3358521817888045,-11.05309002420528
1317,18.56227862677844,73.17824873692001,-0.33246236799172524,-11.040313584152504
1318,18.575565869889942,73.17824873692001,-0.33240617183672505,-11.014149613853983
1319,18.588853113001456,73.17824873692001,-0.3298916027175009,-11.019428355113126
1320,18.60214035611296,73.17824873692001,-0.33164610262280203,-11.053969740558204
1321,18.61542759922447,73.17824873692001,-0.3344729204531936,-11.065315422560161
1322,18.62871484233598,73.17824873692001,-0.3319015949110946,-11.060457336976471
1323,18.64200208544749,73.17824873692001,-0.3312884485849602,-11.059284795554467
1324,18.655289328559,73.17824873692001,-0.33060275475025624,-11.066311303197216
1325,18.66857657167051,73.17824873692001,-0.3309691430445543,-11.057713530321399
1326,18.68186381478202,73.17824873692001,-0.3299813549676158,-11.05979100580497
1327,18.69515105789353,73.17824873692001,-0.33049479121766273,-11.079831982609743
1328,18.70843830100504,73.17824873692001,-0.329891868532677,-11.078594561531862
1329,18.721725544116545,73.17824873692001,-0.3274173217772025,-11.075397773393846
1330,18.73501278722805,73.17824873692001,-0.3272987263126035,-11.106880999571825
1331,18.748300030339564,73.17824873692001,-0.3286118775972917,-11.08066977267243
1332,18.761587273451077,73.17824873692001,-0.32661554492491024,-11.074792903209591
1333,18.774874516562583,73.17824873692001,-0.3283013500857037,-11.087063289791454
1334,18.788161759674093,73.17824873692001,-0.32939349487007313,-11.082941460529591
1335,18.801449002785603,73.17824873692001,-0.3289418685317926,-11.093508469228407
1336,18.814736245897112,73.17824873692001,-0.3270324556665275,-11.072887052003734
1337,18.828023489008626,73.17824873692001,-0.3274165384836815,-11.05107903636924
1338,18.84131073212013,73.17824873692001,-0.3224247964796898,-11.038000948737944
1339,18.85459797523164,73.17824873692001,-0.32087557331255395,-11.02552341934533
1340,18.867885218343147,73.17824873692001,-0.31982599753924723,-10.99194043189855
1341,18.881172461454657,73.17824873692001,-0.3197630974966024,-10.990038042627631
1342,18.894459704566167,73.17824873692001,-0.3197373726743554,-10.97650889509075
1343,18.90774694767768,73.17824873692001,-0.32054736425436303,-10.97426165389108
1344,18.921034190789182,73.17824873692001,-0.32523131355303425,-10.970193573105226
1345,18.934321433900696,73.17824873692001,-0.3270314320556267,-10.967112728976147
1346,18.947608677012205,73.17824873692001,-0.3296099265065741,-10.992492761089961
1347,18.960895920123715,73.17824873692001,-0.328406296643981,-10.99756431444697
1348,18.97418316323522,73.17824873692001,-0.3334051999007623,-10.99411473191858
1349,18.98747040634673,73.17824873692001,-0.3333998312051667,-11.02007674930852
1350,19.00075764945824,73.17824873692001,-0.3297514773671727,-11.031781985900164
1351,19.01404489256975,73.17824873692001,-0.3321721617180183,-11.045766924105639
1352,19.02733213568126,73.17824873692001,-0.3314480836373784,-11.069617796672908
1353,19.04061937879277,73.17824873692001,-0.3292304013971465,-11.077450454728936
1354,19.05390662190428,73.17824873692001,-0.3337883216080025,-11.117628998534029
1355,19.06719386501579,73.17824873692001,-0.3313578424875658,-11.129681682605755
1356,19.080481108127294,73.17824873692001,-0.3330188688697388,-11.108917325208186
1357,19.093768351238804,73.17824873692001,-0.3305816302510451,-11.080360173466879
1358,19.107055594350317,73.17824873692001,-0.33292034683203625,-11.074209997850716
1359,19.120342837461823,73.17824873692001,-0.3318833631619077,-11.081518405812668
1360,19.133630080573333,73.17824873692001,-0.33060602428480146,-11.059877090855874
1361,19.146917323684843,73.17824873692001,-0.3302855869014103,-11.074215577322873
1362,19.160204566796352,73.17824873692001,-0.33117083873417497,-11.061695476542019
1363,19.173491809907866,73.17824873692001,-0.3331860519578955,-11.083220218551944
1364,19.18677905301937,73.17824873692001,-0.33402761359577776,-11.060047972528137
1365,19.20006629613088,73.17824873692001,-0.3360055529487164,-11.065170336210327
1366,19.21335353924239,73.17824873692001,-0.3327753216312256,-11.041453321687479
1367,19.226640782353897,73.17824873692001,-0.33179756833052554,-11.05651500070256
1368,19.239928025465407,73.17824873692001,-0.33227780801463375,-11.046706825267119
1369,19.25321526857692,73.17824873692001,-0.33199687311555065,-11.039679202768646
1370,19.266502511688422,73.17824873692001,-0.33153067525948693,-11.060477705840665
1371,19.279789754799936,73.17824873692001,-0.3323417591402711,-11.057636587240994
1372,19.293076997911445,73.17824873692001,-0.3317942948137829,-11.050299741497582
1373,19.306364241022955,73.17824873692001,-0.33429682968390634,-11.050181328159503
1374,19.319651484134464,73.17824873692001,-0.3321593925752083,-11.044389862136857
1375,19.33293872724597,73.17824873692001,-0.33312072591906894,-11.04369316339167
1376,19.34622597035748,73.17824873692001,-0.3344042010235261,-11.04578447308888
1377,19.35951321346899,73.17824873692001,-0.332855790654615,-11.050380207697403
1378,19.3728004565805,73.17824873692001,-0.3305448911644701,-11.038918164194152
1379,19.38608769969201,73.17824873692001,-0.3307019966740663,-11.05168843335425
1380,19.39937494280352,73.17824873692001,-0.33071761262560423,-11.081674547154226
1381,19.41266218591503,73.17824873692001,-0.330204466779058,-11.058234409691021
1382,19.425949429026534,73.17824873692001,-0.32892604359541716,-11.059602531906389
1383,19.439236672138048,73.17824873692001,-0.3276537917438321,-11.072697004275103
1384,19.45252391524956,73.17824873692001,-0.3292575234088175,-11.052850451892551
1385,19.465811158361063,73.17824873692001,-0.32828565275325844,-11.091174052439143
1386,19.479098401472573,73.17824873692001,-0.32672775779336594,-11.07926663034925
1387,19.492385644584083,73.17824873692001,-0.3271343498697575,-11.058112849663617
1388,19.505672887695592,73.17824873692001,-0.3280867105349992,-11.061594499683748
1389,19.518960130807105,73.17824873692001,-0.32791326836215573,-11.08446967537053
1390,19.53224737391861,73.17824873692001,-0.3297322680260732,-11.080725444076705
1391,19.54553461703012,73.17824873692001,-0.32761369879483027,-11.069160549761236
1392,19.55882186014163,73.17824873692001,-0.3291999070639075,-11.083328745986389
1393,19.57210910325314,73.17824873692001,-0.3298863443127468,-11.07903137813622
1394,19.58539634636465,73.17824873692001,-0.329688808277997,-11.083350906072567
1395,19.59868358947616,73.17824873692001,-0.32913630209458505,-11.08747118252255
1396,19.611970832587662,73.17824873692001,-0.33160493144294173,-11.074365441987316
1397,19.625258075699172,73.17824873692001,-0.3282939780994012,-11.061130086199011
1398,19.638545318810685,73.17824873692001,-0.32838429576006517,-11.03780146339636
1399,19.651832561922195,73.17824873692001,-0.3240047212415518,-11.040478889903412
1400,19.665119805033704,73.17824873692001,-0.3218336517144373,-11.035064115228321
1401,19.67840704814521,73.17824873692001,-0.3190475776139722,-11.022737363200283
1402,19.691694291256724,73.17824873692001,-0.320735322187022,-10.989102070757681
1403,19.704981534368237,73.17824873692001,-0.32213331333621786,-10.965399485392545
1404,19.71826877747974,73.17824873692001,-0.3259749499024734,-10.965019399102701
1405,19.73155602059125,73.17824873692001,-0.3278398431002807,-10.9584279575914
1406,19.74484326370276,73.17824873692001,-0.32649987407327047,-10.964483518829894
1407,19.75813050681427,73.17824873692001,-0.32639003369448966,-10.978020315340828
1408,19.771417749925774,73.17824873692001,-0.3304662168454149,-11.017588755899363
1409,19.784704993037288,73.17824873692001,-0.3305047164257773,-11.050760893752228
1410,19.7979922361488,73.17824873692001,-0.3348323317848535,-11.066406730077865
1411,19.811279479260307,73.17824873692001,-0.33387844253551496,-11.051411557197962
1412,19.824566722371816,73.17824873692001,-0.3307469158331962,-11.086766012589234
1413,19.837853965483323,73.17824873692001,-0.3309266398802702,-11.090219973392
1414,19.851141208594832,73.17824873692001,-0.3337247621949841,-11.098850846823963
1415,19.864428451706345,73.17824873692001,-0.3304439383347426,-11.09995211004999
1416,19.87771569481785,73.17824873692001,-0.33116203000912653,-11.106660032792636
1417,19.89100293792936,73.17824873692001,-0.33275938035014846,-11.088407392936404
1418,19.90429018104087,73.17824873692001,-0.3337735034965041,-11.10912200748809
1419,19.91757742415238,73.17824873692001,-0.33150296032956117,-11.101646100838488
1420,19.93086466726389,73.17824873692001,-0.331919412510295,-11.109105071800492
1421,19.9441519103754,73.17824873692001,-0.3321197508487583,-11.095571065964323
1422,19.95743915348691,73.17824873692001,-0.32892098840240763,-11.070377592504483
1423,19.970726396598412,73.17824873692001,-0.32930276667041664,-11.07249174472396
1424,19.984013639709925,73.17824873692001,-0.33082839496851063,-11.061157228058281
1425,19.997300882821435,73.17824873692001,-0.33006717657512896,-11.050571803261588
1426,20.010588125932944,73.17824873692001,-0.33327792268516643,-11.061722295285474
1427,20.02387536904445,73.17824873692001,-0.33358224676611875,-11.075747004809491
1428,20.037162612155964,73.17824873692001,-0.33144117811007995,-11.054791226928115
1429,20.050449855267477,73.17824873692001,-0.33083760328923245,-11.056871626780179
1430,20.063737098378983,73.17824873692001,-0.3285507128919741,-11.075403277516347
1431,20.077024341490493,73.17824873692001,-0.32911995747586464,-11.047829223992848
1432,20.090311584602,73.17824873692001,-0.3288850502148769,-11.064566514736176
1433,20.10359882771351,73.17824873692001,-0.32981931891039323,-11.024771619987057
1434,20.116886070825014,73.17824873692001,-0.3295863030388485,-11.043125087968718
1435,20.130173313936528,73.17824873692001,-0.3319207119595062,-11.061076342786984
1436,20.14346055704804,73.17824873692001,-0.33155776837183354,-11.076038654219369
1437,20.156747800159547,73.17824873692001,-0.33238436608452715,-11.048468382624613
1438,20.170035043271056,73.17824873692001,-0.3282593062493524,-11.061871440446032
1439,20.18332228638257,73.17824873692001,-0.32626959801186695,-11.070725523890625
1440,20.19660952949408,73.17824873692001,-0.32696802042155104,-11.06033049731537
1441,20.209896772605585,73.17824873692001,-0.32847461562160163,-11.056544586299088
1442,20.22318401571709,73.17824873692001,-0.3324346873451105,-11.059964400864246
1443,20.2364712588286,73.17824873692001,-0.3303447497345694,-11.053893053032587
1444,20.24975850194011,73.17824873692001,-0.33135083172098284,-11.073363879878396
1445,20.26304574505162,73.17824873692001,-0.3270976844481433,-11.051922456142451
1446,20.27633298816313,73.17824873692001,-0.3279211971447655,-11.069664485177128
1447,20.28962023127464,73.17824873692001,-0.32844097899166913,-11.076430896756541
1448,20.30290747438615,73.17824873692001,-0.3290956774875428,-11.066839240193042
1449,20.31619471749766,73.17824873692001,-0.3262930871828901,-11.066226239994442
1450,20.32948196060917,73.17824873692001,-0.3316386247392088,-11.070990189955033
1451,20.342769203720675,73.17824873692001,-0.3281169469662717,-11.060655815564957
1452,20.356056446832184,73.17824873692001,-0.32942287223656347,-11.091567324386247
1453,20.36934368994369,73.17824873692001,-0.32754555014701503,-11.086812397350212
1454,20.382630933055204,73.17824873692001,-0.33228262919254514,-11.091879733248806
1455,20.395918176166717,73.17824873692001,-0.332203396970753,-11.111228086098095
1456,20.409205419278223,73.17824873692001,-0.33054624819815576,-11.089611751263995
1457,20.42249266238973,73.17824873692001,-0.33382305171752735,-11.09756169276714
1458,20.43577990550124,73.17824873692001,-0.33220014220637556,-11.068856876174417
1459,20.44906714861275,73.17824873692001,-0.33260375834629413,-11.107504785274706
1460,20.462354391724254,73.17824873692001,-0.327542670969398,-11.085603868410281
1461,20.475641634835767,73.17824873692001,-0.3264819592244602,-11.055441632029599
1462,20.48892887794728,73.17824873692001,-0.322166946404307,-10.993818332327242
1463,20.502216121058787,73.17824873692001,-0.32060234684539474,-10.969978371188207
1464,20.515503364170296,73.17824873692001,-0.31957907673657954,-10.980597239584219
1465,20.52879060728181,73.17824873692001,-0.3231607999369526,-10.945916737506241
1466,20.54207785039332,73.17824873692001,-0.32504122246538086,-10.944080220983869
1467,20.555365093504825,73.17824873692001,-0.3282271370407476,-10.930398849118841
1468,20.56865233661633,73.17824873692001,-0.3261298395984068,-10.986708714893354
1469,20.581939579727845,73.17824873692001,-0.3287090693993109,-11.012727067396545
1470,20.59522682283935,73.17824873692001,-0.33202122746335194,-11.080222330596635
1471,20.60851406595086,73.17824873692001,-0.3283824056469334,-11.078045316316508
1472,20.62180130906237,73.17824873692001,-0.328376824146807,-11.072092511049556
1473,20.63508855217388,73.17824873692001,-0.3277841185856232,-11.102218722415088
1474,20.64837579528539,73.17824873692001,-0.33287237824455923,-11.092302026431604
1475,20.6616630383969,73.17824873692001,-0.33270187483735203,-11.084278063031746
1476,20.67495028150841,73.17824873692001,-0.331412124005385,-11.113275515909528
1477,20.68823752461992,73.17824873692001,-0.3308328718006474,-11.117606787276587
1478,20.701524767731428,73.17824873692001,-0.32961898118089067,-11.099090041369505
1479,20.71481201084293,73.17824873692001,-0.33126902670763086,-11.120574079520859
1480,20.728099253954444,73.17824873692001,-0.3318272027523058,-11.109982818569042
1481,20.741386497065957,73.17824873692001,-0.329432864656297,-11.116606379234065
1482,20.754673740177463,73.17824873692001,-0.3283354571010232,-11.113899401033363
1483,20.76796098328897,73.17824873692001,-0.3281781895711399,-11.104955574075221
