,time,sample_rate,Red,Green,Blue
0,1.7053438001202718e-15,75.24274393143878,-10.082919066257714,-0.04293666276742553,-1.7826538862931731
1,1.7009884776361696e-15,75.24274393143878,-10.11986904168805,-0.04252111929254108,-1.707585647202666
2,1.6968643759794133e-15,75.24274393143878,-10.154178180115123,-0.04212393512620243,-1.633868602679601
3,1.6932219543037468e-15,75.24274393143878,-10.183231230089513,-0.041766260358615664,-1.5633510245323785
4,1.690218004188384e-15,75.24274393143878,-10.205532933439986,-0.041464448382206406,-1.4977815844193036
5,1.6879187669588375e-15,75.24274393143878,-10.220650749654927,-0.04122967101453,-1.4387307569541805
6,1.6863154375687536e-15,75.24274393143878,-10.229080168754354,-0.041067827156888274,-1.3875409897421218
7,1.6853452007877198e-15,75.24274393143878,-10.232007852207156,-0.0409789937019131,-1.345290473825874
8,1.68491210321907e-15,75.24274393143878,-10.23102329942964,-0.04095687912909407,-1.312763134569733
9,1.6849035676618261e-15,75.24274393143878,-10.22789065511606,-0.040989769896835344,-1.2904280718295016
10,1.6852021260096754e-15,75.24274393143878,-10.224383737818064,-0.0410632238812313,-1.2784253005077326
11,1.6856946906863941e-15,75.24274393143878,-10.222150703459505,-0.04116289181304159,-1.2765507229904525
12,1.6862813065501969e-15,75.24274393143878,-10.222564214151967,-0.04127637777805407,-1.284234401661082
13,1.6868832753770948e-15,75.24274393143878,-10.226525388784525,-0.04139399945514911,-1.3005135052653793
14,1.6874481496293967e-15,75.24274393143878,-10.234303830338193,-0.04150833658304953,-1.3240193924454324
15,1.6879487924652534e-15,75.24274393143878,-10.245492372730531,-0.04161326064834973,-1.3530062880379299
16,1.6883772156453854e-15,75.24274393143878,-10.259073801866341,-0.0417035677893035,-1.3854390827846363
17,1.6887357903245002e-15,75.24274393143878,-10.273622923676857,-0.041775360802200366,-1.4191438578497377
18,1.6890258644707729e-15,75.24274393143878,-10.287609411475088,-0.041826557791242606,-1.4520042161812128
19,1.689235492720658e-15,75.24274393143878,-10.299668785388132,-0.04185690413026238,-1.482164862716274
20,1.6893364437269388e-15,75.24274393143878,-10.308784953568102,-0.04186755886509866,-1.5082001689499918
21,1.6893004436506566e-15,75.24274393143878,-10.314383838557916,-0.04186094369614871,-1.5292164917126747
22,1.6891255073297006e-15,75.24274393143878,-10.3163328827062,-0.04184070901475809,-1.5448763407839552
23,1.6888471780301661e-15,75.24274393143878,-10.3149001698742,-0.04181105758879852,-1.5553552837673947
24,1.6885239249120867e-15,75.24274393143878,-10.310689701161834,-0.04177585791345509,-1.56125077490724
25,1.6882137133121165e-15,75.24274393143878,-10.304512808624127,-0.041738395102949515,-1.5634596889151204
26,1.6879626508162916e-15,75.24274393143878,-10.297242655362039,-0.0417014492417313,-1.5630438290929174
27,1.6878054835830874e-15,75.24274393143878,-10.28970523602688,-0.04166723117423413,-1.561101438489813
28,1.6877626493766977e-15,75.24274393143878,-10.282599134231347,-0.04163732613017616,-1.5586568953432487
29,1.6878310060658433e-15,75.24274393143878,-10.27646579467477,-0.04161276528279628,-1.5565791718079598
30,1.6879826038671437e-15,75.24274393143878,-10.271693570727754,-0.04159423926223258,-1.555534971476887
31,1.6881750920735493e-15,75.24274393143878,-10.268508644306186,-0.04158232568567669,-1.5559759250183396
32,1.6883611547463651e-15,75.24274393143878,-10.266997774673118,-0.041577508714577716,-1.5581541844952778
33,1.6884962415649821e-15,75.24274393143878,-10.267173589003033,-0.041580176158598464,-1.562150033167768
34,1.6885542443516595e-15,75.24274393143878,-10.269003026514639,-0.04159057844601809,-1.5678918569704878
35,1.6885422305323251e-15,75.24274393143878,-10.272380972494567,-0.041608329583467205,-1.5751627726730568
36,1.6884977465029178e-15,75.24274393143878,-10.27707534086028,-0.04163191710595279,-1.5836023444306673
37,1.6884725710373232e-15,75.24274393143878,-10.282678300967696,-0.04165902549495204,-1.592718945742308
38,1.6885147980176967e-15,75.24274393143878,-10.288623261688068,-0.04168723549703556,-1.6019243176931472
39,1.6886535005538167e-15,75.24274393143878,-10.294234816870862,-0.041714192661950665,-1.6105827064147658
40,1.6888886164233174e-15,75.24274393143878,-10.29873610854338,-0.04173715453653458,-1.6180613528350472
41,1.689191126288588e-15,75.24274393143878,-10.30125759544966,-0.04175253123379824,-1.6237900845350464
42,1.6895187798440723e-15,75.24274393143878,-10.300898981813742,-0.04175608701978984,-1.6273476886809284
43,1.6898376692482506e-15,75.24274393143878,-10.296827071837448,-0.04174386426527489,-1.6285751094915701
44,1.6901267932239113e-15,75.24274393143878,-10.288399403559165,-0.04171330383296043,-1.6276935574385634
45,1.6903661978334438e-15,75.24274393143878,-10.275271685243954,-0.04166401349007444,-1.625398860513946
46,1.6905311606547639e-15,75.24274393143878,-10.257476788208304,-0.04159786557509147,-1.6229179334434416
47,1.690596242323464e-15,75.24274393143878,-10.235559907921237,-0.04151864782760769,-1.6220254550254214
48,1.6905404291365665e-15,75.24274393143878,-10.210762014814609,-0.04143195269149757,-1.625002675193975
49,1.6903554464160995e-15,75.24274393143878,-10.185135549344349,-0.04134542422023169,-1.6345049552112119
50,1.6900540988086401e-15,75.24274393143878,-10.161533944985761,-0.04126886285721936,-1.6533201513419657
51,1.6896683760997638e-15,75.24274393143878,-10.143440702491658,-0.04121399470135354,-1.684026345379042
52,1.6892420185833763e-15,75.24274393143878,-10.134622075677225,-0.04119369533184393,-1.7285785833763454
53,1.6888270774672798e-15,75.24274393143878,-10.138632138601752,-0.041220182058050045,-1.7878708206124907
54,1.6884796860118175e-15,75.24274393143878,-10.15814346552299,-0.04130226895871334,-1.861332357929338
55,1.6882486457877437e-15,75.24274393143878,-10.194131006184456,-0.041442255439784664,-1.9466392396586403
56,1.6881621970096415e-15,75.24274393143878,-10.245168541507697,-0.04163321405564563,-2.0396400267089936
57,1.688219510260455e-15,75.24274393143878,-10.307180175532157,-0.0418581582367792,-2.1345777055602135
58,1.688391544098628e-15,75.24274393143878,-10.373869261556035,-0.04209230616536396,-2.2246280024669725
59,1.6886384507480954e-15,75.24274393143878,-10.437795914865145,-0.04230770356128159,-2.3026857569345403
60,1.6889344256313116e-15,75.24274393143878,-10.491751037280196,-0.04247821986775131,-2.3622492174860072
61,1.6892751066602426e-15,75.24274393143878,-10.529991362687541,-0.042583671961203724,-2.3982250552226487
62,1.6896665940864254e-15,75.24274393143878,-10.549055033787338,-0.04261269870324395,-2.4075090941012482
63,1.6901175364556586e-15,75.24274393143878,-10.548009248605771,-0.04256381011096196,-2.3892609677127314
64,1.6906358343206114e-15,75.24274393143878,-10.528204762385077,-0.04244439008057357,-2.344872946647183
65,1.6912171709079115e-15,75.24274393143878,-10.492808242611236,-0.04226871499834996,-2.2776963757990734
66,1.691830158160807e-15,75.24274393143878,-10.446237032120612,-0.04205596763690573,-2.1925954210213567
67,1.6924114879569289e-15,75.24274393143878,-10.393479417969433,-0.041827990902902866,-2.095389214302626
68,1.6928746821711063e-15,75.24274393143878,-10.339396493005633,-0.04160662277101514,-1.9922596574189413
69,1.6931319880403058e-15,75.24274393143878,-10.288161790099435,-0.04141124106158263,-1.889211167317423
70,1.6931232511777739e-15,75.24274393143878,-10.24295880206029,-0.04125687706818281,-1.79164790549451
71,1.692831462893119e-15,75.24274393143878,-10.205962952778306,-0.04115288783934504,-1.7040908064081541
72,1.6922747163884336e-15,75.24274393143878,-10.178467584165821,-0.041102358725849664,-1.6300101357735164
73,1.6914960809224763e-15,75.24274393143878,-10.161022712934972,-0.041102361345128964,-1.5717363016290882
74,1.6905667759643945e-15,75.24274393143878,-10.153570368536792,-0.041145130289615424,-1.5304308846356
75,1.6895839513553453e-15,75.24274393143878,-10.155538681147208,-0.041220056759829496,-1.506115480611198
76,1.6886545109417186e-15,75.24274393143878,-10.165884956124186,-0.0413157397672055,-1.4977614990219033
77,1.6878846184805885e-15,75.24274393143878,-10.183152544990955,-0.04142137587843399,-1.5034396276628126
78,1.6873758209751157e-15,75.24274393143878,-10.205546753548852,-0.041527495184029775,-1.5205140048552734
79,1.6872099394851494e-15,75.24274393143878,-10.231023535557776,-0.04162619120738661,-1.5458651821945844
80,1.687428513162929e-15,75.24274393143878,-10.257425723607028,-0.04171110861266461,-1.576133675129729
81,1.688020983994301e-15,75.24274393143878,-10.282646887621512,-0.04177763643816123,-1.6079720771382318
82,1.6889126165835337e-15,75.24274393143878,-10.304807739678868,-0.04182328574194355,-1.6382901931772462
83,1.6899473553762956e-15,75.24274393143878,-10.32244964565454,-0.04184798640186025,-1.664476713586577
84,1.690895845928911e-15,75.24274393143878,-10.334663077647992,-0.041854073870093676,-1.6845718300370178
85,1.6915177259085754e-15,75.24274393143878,-10.341097724551812,-0.04184554343053592,-1.6973672052544104
86,1.6916527150089994e-15,75.24274393143878,-10.341906448702138,-0.041826738840451634,-1.7024278982496834
87,1.691279039290535e-15,75.24274393143878,-10.337655193794424,-0.04180135344092832,-1.7000435181475964
88,1.6905091334067679e-15,75.24274393143878,-10.329225482178423,-0.04177203480835836,-1.69112281933118
89,1.6895418087541397e-15,75.24274393143878,-10.317738213038723,-0.041740327714183734,-1.6770492213959394
90,1.688602824702598e-15,75.24274393143878,-10.304455164491063,-0.04170695304577391,-1.659512298149952
91,1.687894409735161e-15,75.24274393143878,-10.29065460297665,-0.04167254254041431,-1.6403327698690124
92,1.6875589078203493e-15,75.24274393143878,-10.27754095278123,-0.04163863420166413,-1.6212976278125242
93,1.6876578775142907e-15,75.24274393143878,-10.26617565977562,-0.04160804700230011,-1.6040109942163554
94,1.688172317926583e-15,75.24274393143878,-10.257405777766486,-0.041583925833091485,-1.5897650663630576
95,1.689013957231882e-15,75.24274393143878,-10.251803134725545,-0.0415683744281018,-1.5794414746473968
96,1.6900378961791766e-15,75.24274393143878,-10.249605492207097,-0.04156197041424747,-1.5734543766008788
97,1.6910769803476723e-15,75.24274393143878,-10.250703743081203,-0.041564115928811936,-1.5717479710448032
98,1.6919990736665196e-15,75.24274393143878,-10.254717937694318,-0.041573737673621616,-1.573850423659876
99,1.6927374387773487e-15,75.24274393143878,-10.26107583506256,-0.04158987351815715,-1.5789639118043024
100,1.6932624622402979e-15,75.24274393143878,-10.269030296843404,-0.04161156778290079,-1.5860695150190796
101,1.693536091773163e-15,75.24274393143878,-10.277659645899307,-0.04163739842806969,-1.5940409253600816
102,1.6935133360162135e-15,75.24274393143878,-10.285885719115894,-0.04166530516161438,-1.6017643265507726
103,1.6931911122213016e-15,75.24274393143878,-10.292535807007289,-0.041692520772955724,-1.6082593861148642
104,1.6926405032708383e-15,75.24274393143878,-10.296442314096229,-0.0417154723510943,-1.6127949511356308
105,1.6919791738248795e-15,75.24274393143878,-10.29651657230489,-0.04172989651660602,-1.6149925294310807
106,1.6913124628735182e-15,75.24274393143878,-10.291826673794269,-0.04173112605892693,-1.6149176092875728
107,1.6907073797251442e-15,75.24274393143878,-10.28175409057491,-0.04171471279600807,-1.6131565431560775
108,1.6902233787360057e-15,75.24274393143878,-10.266177964396503,-0.041677548334784986,-1.6108592863786377
109,1.6899464863880601e-15,75.24274393143878,-10.24561471673697,-0.041619006766328986,-1.6097259277084581
110,1.6899635629905627e-15,75.24274393143878,-10.221288059754569,-0.04154176652069609,-1.611929421487146
111,1.6902998575707493e-15,75.24274393143878,-10.19511434477578,-0.041452207181916736,-1.6199771310329283
112,1.6908906644773477e-15,75.24274393143878,-10.169658502899146,-0.0413600978766257,-1.6365155419847812
113,1.6916004218727022e-15,75.24274393143878,-10.148080479178866,-0.041277780108435885,-1.6640738406370796
114,1.6922587435432278e-15,75.24274393143878,-10.133954041847591,-0.041219155191771495,-1.7047387565462404
115,1.6927053415704378e-15,75.24274393143878,-10.130883332958767,-0.04119806332176574,-1.759776337437279
116,1.692843071861133e-15,75.24274393143878,-10.141941718509084,-0.04122605011948012,-1.829246914850909
117,1.6926711637768857e-15,75.24274393143878,-10.168981340674152,-0.041310282695639605,-1.9116786340623257
118,1.6922762827589123e-15,75.24274393143878,-10.211955718325878,-0.04145165691951807,-2.003879326676751
119,1.6917970691419615e-15,75.24274393143878,-10.268465638955076,-0.04164271787227699,-2.100968046818971
120,1.6913786344343372e-15,75.24274393143878,-10.333731345341539,-0.041866473603828,-2.1966853513980937
121,1.691114812893651e-15,75.24274393143878,-10.401163705785004,-0.04209813018009543,-2.283989582852892
122,1.69099969278331e-15,75.24274393143878,-10.463452421451416,-0.042309840268865945,-2.355859676827641
123,1.6909299724401222e-15,75.24274393143878,-10.513791195990784,-0.04247608820045284,-2.406149527940855
124,1.6907670502042154e-15,75.24274393143878,-10.546923130708432,-0.042577636204213044,-2.430332133161033
125,1.690427128728601e-15,75.24274393143878,-10.559855691274178,-0.04260361782111521,-2.4260138382368894
126,1.6899445196165294e-15,75.24274393143878,-10.552128948230195,-0.04255217743673624,-2.3931525088680266
127,1.6894667076649672e-15,75.24274393143878,-10.525620422370004,-0.04243027181068873,-2.333973168546843
128,1.68919918549865e-15,75.24274393143878,-10.48398328520285,-0.042252669697300606,-2.2526280333282793
129,1.689340806507727e-15,75.24274393143878,-10.43190019034576,-0.042039552578381274,-2.1546861183517647
130,1.6900186456791957e-15,75.24274393143878,-10.374415387615151,-0.04181318359755555,-2.0465530318251393
131,1.6912260448422686e-15,75.24274393143878,-10.316448297908563,-0.041595164022639755,-1.9348975511001658
132,1.6927939720649272e-15,75.24274393143878,-10.262386684738761,-0.041404671623619334,-1.8261264076140273
133,1.6944301041526993e-15,75.24274393143878,-10.215755310335767,-0.04125692267450414,-1.7259401700382329
134,1.6958090709665325e-15,75.24274393143878,-10.17904541564308,-0.041161676680654465,-1.6389990916438755
135,1.6966512693518106e-15,75.24274393143878,-10.153707774177594,-0.041122169757367044,-1.5687089589767482
136,1.6967667204483345e-15,75.24274393143878,-10.140263915641201,-0.04113487603041997,-1.5171190647135289
137,1.6960835914281093e-15,75.24274393143878,-10.138436599067566,-0.0411906217725638,-1.4849135585421673
138,1.694664956450966e-15,75.24274393143878,-10.147217310912922,-0.04127681482516949,-1.4714778144123801
139,1.6927132263563572e-15,75.24274393143878,-10.164931873499638,-0.0413796079041862,-1.4750315749330227
140,1.6905567133113302e-15,75.24274393143878,-10.189362743488227,-0.041485571376024974,-1.4928237689952326
141,1.688594342204206e-15,75.24274393143878,-10.217911930924698,-0.04158324022427315,-1.5213844715640972
142,1.6872093973488298e-15,75.24274393143878,-10.247829386467373,-0.04166434413175257,-1.556830704830281
143,1.6866885631772318e-15,75.24274393143878,-10.276490745289976,-0.04172433667753315,-1.5952066462670833
144,1.6871502347037206e-15,75.24274393143878,-10.301639463541132,-0.041762270160488245,-1.6328206829961933
145,1.6884887568906288e-15,75.24274393143878,-10.321572131467569,-0.04178022717266584,-1.6665427161572683
146,1.6903746112245131e-15,75.24274393143878,-10.335250978381598,-0.04178249669710279,-1.6940260294833984
147,1.6923456967166224e-15,75.24274393143878,-10.342312327010147,-0.041774465226175506,-1.713821949654507
148,1.693964004490458e-15,75.24274393143878,-10.343017978746127,-0.04176134092648204,-1.7253806182220588
149,1.6949425278901612e-15,75.24274393143878,-10.338172992132241,-0.04174732415543556,-1.728956467039407
150,1.6951878350006057e-15,75.24274393143878,-10.328987852931638,-0.04173532819392016,-1.7254490850500293
151,1.6947970869973974e-15,75.24274393143878,-10.316928082113597,-0.04172679665382743,-1.7162126162474753
152,1.6940296859624946e-15,75.24274393143878,-10.303568199501209,-0.04172176289112402,-1.7028547925873385
153,1.6932217967892286e-15,75.24274393143878,-10.290423331612933,-0.04171922717721391,-1.6870366470976872
154,1.6926546806695527e-15,75.24274393143878,-10.278796461111067,-0.04171741020619048,-1.67028795479285
155,1.6924462255874925e-15,75.24274393143878,-10.269660961261431,-0.04171410284436415,-1.6538576953261703
156,1.6925190730978585e-15,75.24274393143878,-10.263572154842908,-0.041707414414088775,-1.6386231250968957
157,1.6926591870167648e-15,75.24274393143878,-10.26065859491619,-0.04169640099842455,-1.6250765996680365
158,1.6926489281894487e-15,75.24274393143878,-10.26068327566382,-0.041681311553061394,-1.6133805545266076
159,1.692395310115615e-15,75.24274393143878,-10.263103780144784,-0.0416635853360011,-1.6034581078514056
160,1.6919490705046239e-15,75.24274393143878,-10.267129112895253,-0.041645423994958804,-1.5950917180383375
161,1.691421797213718e-15,75.24274393143878,-10.271775628382768,-0.041628917538706206,-1.5880125522077062
162,1.690920653633374e-15,75.24274393143878,-10.275921528425263,-0.04161511048155129,-1.5819738323004078
163,1.690560594222681e-15,75.24274393143878,-10.278404341685222,-0.04160354789789007,-1.576815364545024
164,1.6904836578964925e-15,75.24274393143878,-10.278135709368668,-0.04159260052901809,-1.5725285324641238
165,1.6908169316157876e-15,75.24274393143878,-10.27418217721204,-0.04158002950655464,-1.5693256855284796
166,1.6916023115738308e-15,75.24274393143878,-10.265860213522698,-0.04156326914308471,-1.5677105736342336
167,1.6927637380701364e-15,75.24274393143878,-10.252874902542006,-0.04153980575128358,-1.5685306737703462
168,1.6941363367474178e-15,75.24274393143878,-10.235477136599725,-0.04150784074653517,-1.5729889948843538
169,1.695534161486616e-15,75.24274393143878,-10.214625151608024,-0.04146704194749096,-1.5826107191583878
170,1.6967914357242418e-15,75.24274393143878,-10.19207984287821,-0.04141946953099185,-1.5991662559694995
171,1.6977438702629464e-15,75.24274393143878,-10.17037613588744,-0.04137037598428391,-1.6245410536537792
172,1.698213290271999e-15,75.24274393143878,-10.152698454009995,-0.041328283937708495,-1.6605344674555615
173,1.6980583707507847e-15,75.24274393143878,-10.142623851128269,-0.041304273785215825,-1.7085737442569882
174,1.6972566303384867e-15,75.24274393143878,-10.143663317223579,-0.04131050066747436,-1.7693560261779442
175,1.6959490993249132e-15,75.24274393143878,-10.158630334932205,-0.04135795911420971,-1.8424731248654198
176,1.694417432590954e-15,75.24274393143878,-10.188910366592994,-0.04145388106775011,-1.9261008182719843
177,1.6929983896797962e-15,75.24274393143878,-10.23379692416748,-0.04159904963724814,-2.0168430385639167
178,1.6919657812660219e-15,75.24274393143878,-10.290176740278369,-0.041785465787512896,-2.109813075268053
179,1.6914284942825758e-15,75.24274393143878,-10.352756247543514,-0.04199579780811651,-2.1989958984946996
180,1.6913018116291168e-15,75.24274393143878,-10.414844164877257,-0.04220599014382613,-2.277870545407194
181,1.6913728504239366e-15,75.24274393143878,-10.469517905099726,-0.04239006788380789,-2.340193097434439
182,1.6914061199335335e-15,75.24274393143878,-10.510796897542354,-0.04252445776803139,-2.3807819255144227
183,1.6912246195849014e-15,75.24274393143878,-10.534504135461958,-0.042590996767256355,-2.396152585501022
184,1.690756322221591e-15,75.24274393143878,-10.53875016273058,-0.04257969402070895,-2.38490718866947
185,1.6900607922340568e-15,75.24274393143878,-10.524051109566567,-0.04249089805613531,-2.3478396805170014
186,1.6893398624997755e-15,75.24274393143878,-10.493075887581183,-0.04233528061787386,-2.287762606692872
187,1.688921270977808e-15,75.24274393143878,-10.450056798232533,-0.04213137968227544,-2.2091010701795515
188,1.6891863873658885e-15,75.24274393143878,-10.399965149937247,-0.04190193945744729,-2.117332862804538
189,1.6904231660990544e-15,75.24274393143878,-10.347696709426362,-0.041670436708214735,-2.018379213431096
190,1.6926554809838326e-15,75.24274393143878,-10.297525176923472,-0.04145856573924372,-1.918048253906791
191,1.6955610607366668e-15,75.24274393143878,-10.252827159957425,-0.04128440068408812,-1.8215912584881513
192,1.6985419824327784e-15,75.24274393143878,-10.215958829539373,-0.041160450250996586,-1.733390627120708
193,1.7008939137305997e-15,75.24274393143878,-10.188262236347937,-0.04109205631915514,-1.6567807660834142
194,1.70197795737583e-15,75.24274393143878,-10.17018554876369,-0.04107744579724152,-1.5939868907628871
195,1.7013720558927759e-15,75.24274393143878,-10.161474403582613,-0.04110933381957396,-1.5461544972959413
196,1.6990278394839074e-15,75.24274393143878,-10.161383531061505,-0.041177015640400105,-1.5134406907011346
197,1.6953806747819944e-15,75.24274393143878,-10.168814991516344,-0.041268455232170785,-1.4951393855608135
198,1.6912897628363081e-15,75.24274393143878,-10.182378233327645,-0.041371960047528286,-1.4898236002893015
199,1.687784248544473e-15,75.24274393143878,-10.200459947978551,-0.04147720370405943,-1.4955038471831745
200,1.6857458911945888e-15,75.24274393143878,-10.221308341954348,-0.04157590300711311,-1.5098038127976285
201,1.6856596891315321e-15,75.24274393143878,-10.243120788303685,-0.041662089626860306,-1.5301509522146068
202,1.6874781591459532e-15,75.24274393143878,-10.264170911444392,-0.04173185463054278,-1.553973396880141
203,1.690639925861057e-15,75.24274393143878,-10.282952556183629,-0.04178304419626559,-1.5788839234478587
204,1.6942678284156437e-15,75.24274393143878,-10.298309274549085,-0.0418151530041558,-1.6028302789748938
205,1.6974592441593034e-15,75.24274393143878,-10.309536419875272,-0.04182929385095657,-1.6241957678713845
206,1.6995409258197e-15,75.24274393143878,-10.316400457309282,-0.04182806997528972,-1.6418410629918236
207,1.7002325901982896e-15,75.24274393143878,-10.319079718268659,-0.04181496563676333,-1.655096739784272
208,1.699688761648654e-15,75.24274393143878,-10.318085678310622,-0.041793410466269235,-1.663726621478663
209,1.6983882528688734e-15,75.24274393143878,-10.314156373010835,-0.04176625870865297,-1.6678719036129843
210,1.6969097190276548e-15,75.24274393143878,-10.308129963067909,-0.041735841332201165,-1.6679799163129667
211,1.6957001575868416e-15,75.24274393143878,-10.300839891127062,-0.04170431365680643,-1.664724311460195
212,1.694935866754238e-15,75.24274393143878,-10.293021093095565,-0.04167394487350024,-1.6589242975324368
213,1.6945166478258161e-15,75.24274393143878,-10.285255291268607,-0.04164691303854777,-1.6514724435715666
214,1.6941648024379995e-15,75.24274393143878,-10.277996856125323,-0.04162486298605146,-1.6432750902393425
215,1.693562388048766e-15,75.24274393143878,-10.271616919034043,-0.04160873967672776,-1.6351975425928902
216,1.6924866510150317e-15,75.24274393143878,-10.266423320563486,-0.04159877358644278,-1.628010445519825
217,1.690929043747809e-15,75.24274393143878,-10.262680026010534,-0.04159464765322524,-1.6223446842237605
218,1.689144127995857e-15,75.24274393143878,-10.260613815927881,-0.041595959021583404,-1.6186592423657062
219,1.6875733128450812e-15,75.24274393143878,-10.260408117904998,-0.04160246714359704,-1.6172187764241184
220,1.6866845213398349e-15,75.24274393143878,-10.262184690204345,-0.04161398052271999,-1.618072688609583
221,1.6868280120991946e-15,75.24274393143878,-10.265927205619295,-0.041630243341112955,-1.6210306585848846
222,1.6881565390457314e-15,75.24274393143878,-10.27138020554757,-0.041650676321744205,-1.6256467825980074
223,1.6905936317120682e-15,75.24274393143878,-10.278004509381184,-0.04167391546586454,-1.6312338356726
224,1.6938340777686434e-15,75.24274393143878,-10.284984189407798,-0.04169761638478049,-1.636919319840872
225,1.6973950102298445e-15,75.24274393143878,-10.291271686657765,-0.04171860257218697,-1.641744756204038
226,1.7007366908057973e-15,75.24274393143878,-10.295665052811843,-0.041733094510323206,-1.6448019415023454
227,1.7034088357637343e-15,75.24274393143878,-10.296891021121114,-0.04173699423202064,-1.6453930651489685
228,1.7051286931473771e-15,75.24274393143878,-10.293740106362398,-0.04172642141933088,-1.6432014123701946
229,1.7057637540632317e-15,75.24274393143878,-10.285282824735058,-0.04169868084462463,-1.6384523868991594
230,1.705301793695047e-15,75.24274393143878,-10.271081963297572,-0.04165319865036534,-1.6320316805847952
231,1.7038706423235313e-15,75.24274393143878,-10.25135093994866,-0.041591697088119606,-1.6255305228762067
232,1.7017490583828372e-15,75.24274393143878,-10.227063555810892,-0.041517960975908916,-1.6212011330710294
233,1.6992902109142237e-15,75.24274393143878,-10.200002730290567,-0.04143791342670658,-1.621816298757771
234,1.6967899902957062e-15,75.24274393143878,-10.172762605760544,-0.0413598059982113,-1.6304370785840132
235,1.6944040892301068e-15,75.24274393143878,-10.148670104150684,-0.0412941375312408,-1.6500955873544099
236,1.692174102160976e-15,75.24274393143878,-10.131524015368216,-0.04125296757095521,-1.6834053816042536
237,1.6901303144992008e-15,75.24274393143878,-10.125155046797095,-0.041248254258576124,-1.7321349080716981
238,1.6883758849799704e-15,75.24274393143878,-10.132867350406341,-0.0412897604000128,-1.7967970553381658
239,1.6870902011800023e-15,75.24274393143878,-10.156772507030256,-0.041383202365360375,-1.8763098697362792
240,1.6864772836198841e-15,75.24274393143878,-10.197101854498804,-0.04152820926127611,-1.9677919412307634
241,1.6866980583198023e-15,75.24274393143878,-10.251688519076591,-0.04171614659200609,-2.066568187578418
242,1.6877996929998355e-15,75.24274393143878,-10.31586680064834,-0.041929470156205476,-2.166455230922708
243,1.6896841300539048e-15,75.24274393143878,-10.383016186011792,-0.0421439874763988,-2.260345994466215
244,1.692149528328996e-15,75.24274393143878,-10.44568335180293,-0.042333420849522164,-2.3410169933289673
245,1.6949606097365433e-15,75.24274393143878,-10.496912217126589,-0.04247453706101422,-2.40200238218743
246,1.6978886142651933e-15,75.24274393143878,-10.531427350648132,-0.042551328923974854,-2.4383691470880158
247,1.7007159832311373e-15,75.24274393143878,-10.546385178790398,-0.04255698452087259,-2.447257837482476
248,1.7032269289197735e-15,75.24274393143878,-10.541509380435972,-0.04249326697920471,-2.4281060792216214
249,1.705197328514722e-15,75.24274393143878,-10.518719459363403,-0.04236866632317418,-2.382558711775154
250,1.7063917982060542e-15,75.24274393143878,-10.481527007705646,-0.04219680567806221,-2.3141440734905503
251,1.7065751510076589e-15,75.24274393143878,-10.434406002554194,-0.04199514638127404,-2.22781298912504
252,1.7055495732720698e-15,75.24274393143878,-10.382225551483693,-0.041783464951144406,-2.1294091516799454
253,1.7032343461571955e-15,75.24274393143878,-10.329699708093719,-0.04158184550460463,-2.0251102818001954
254,1.6997751657662512e-15,75.24274393143878,-10.280843957519595,-0.0414081739534359,-1.9208841983072669
255,1.6956059407996666e-15,75.24274393143878,-10.23861259304431,-0.04127562371202426,-1.822027915734142
256,1.6913836901657316e-15,75.24274393143878,-10.204837910157575,-0.04119102658398071,-1.7328497788743904
257,1.687803631428701e-15,75.24274393143878,-10.180385774031114,-0.041154541827150795,-1.6565101911201552
258,1.685373450953673e-15,75.24274393143878,-10.16539404334545,-0.04116056209197141,-1.5949948529357223
259,1.6842486938862277e-15,75.24274393143878,-10.159478061084709,-0.04119986067756157,-1.5491751384235708
260,1.6842318113975486e-15,75.24274393143878,-10.161843477576317,-0.04126229536512284,-1.5189142099072246
261,1.6849526716383065e-15,75.24274393143878,-10.171357857072737,-0.041338741570643614,-1.5031965751284693
262,1.6860876918559877e-15,75.24274393143878,-10.186612956851073,-0.04142187064532719,-1.5002756576224707
263,1.6874502417764775e-15,75.24274393143878,-10.205970285616335,-0.041506176865890365,-1.507843381422504
264,1.688966416569609e-15,75.24274393143878,-10.227643246812594,-0.04158742019032696,-1.5232254403140695
265,1.6906657038951679e-15,75.24274393143878,-10.249822752744949,-0.04166174258491189,-1.5435934024993445
266,1.6926974699152268e-15,75.24274393143878,-10.270798252954032,-0.04172500779587916,-1.5661783854686602
267,1.695267436797863e-15,75.24274393143878,-10.289090960810451,-0.04177301905605621,-1.5884727918302164
268,1.6984765170299923e-15,75.24274393143878,-10.303585376790137,-0.04180284474128091,-1.6083988539967757
269,1.7021711056239278e-15,75.24274393143878,-10.313602977369515,-0.04181418302397408,-1.6244228569333778
270,1.705905576262964e-15,75.24274393143878,-10.318929928752922,-0.041809521864800706,-1.6356124273688826
271,1.7090365354754663e-15,75.24274393143878,-10.31979637088331,-0.04179328076636438,-1.6416417554748721
272,1.7108984681804433e-15,75.24274393143878,-10.316792790683213,-0.041770592756432884,-1.642745346576749
273,1.7109903720674882e-15,75.24274393143878,-10.310775358991599,-0.041746066287846745,-1.6396243141573983
274,1.7091262205667472e-15,75.24274393143878,-10.302765246953761,-0.041723022731963245,-1.6333136030487498
275,1.7055081395891414e-15,75.24274393143878,-10.293812975860602,-0.041703318425086004,-1.6250228076913806
276,1.7006966389215443e-15,75.24274393143878,-10.284866320044001,-0.04168732960452338,-1.615971661163546
277,1.6955037225009217e-15,75.24274393143878,-10.276663031504935,-0.04167409467093803,-1.6072453561433093
278,1.6908451752051606e-15,75.24274393143878,-10.26966837685803,-0.04166191778845652,-1.5996947630456793
279,1.6875503307876726e-15,75.24274393143878,-10.26411082325411,-0.04164932109884112,-1.5938977471617988
280,1.6861412583415444e-15,75.24274393143878,-10.260060397984795,-0.04163570990277389,-1.590174075364459
281,1.6866836391580959e-15,75.24274393143878,-10.25746449942003,-0.041621258860958944,-1.5886312974258703
282,1.688810043192014e-15,75.24274393143878,-10.256180464006198,-0.04160650601557392,-1.5892231972531756
283,1.6918673648583002e-15,75.24274393143878,-10.256033274328269,-0.041592385573701644,-1.591806815955006
284,1.695082977125928e-15,75.24274393143878,-10.256871250488324,-0.04158039976508617,-1.5961887541820874
285,1.6977191872942872e-15,75.24274393143878,-10.258609201612733,-0.04157226891458309,-1.6021573509848046
286,1.6992114128993159e-15,75.24274393143878,-10.261212497762854,-0.041569257815529365,-1.6094954586241756
287,1.6992831933134068e-15,75.24274393143878,-10.264624088716143,-0.04157196802577845,-1.6179740972729562
288,1.6980338760040109e-15,75.24274393143878,-10.268737091077348,-0.0415808691832419,-1.6273386267332843
289,1.6959425480527304e-15,75.24274393143878,-10.273425137137146,-0.04159676768614394,-1.6372940410770096
290,1.6937175083893794e-15,75.24274393143878,-10.27855975385483,-0.04162024022537195,-1.647489266546393
291,1.6920352400739025e-15,75.24274393143878,-10.283991286129176,-0.04165037647538475,-1.6575039109584324
292,1.6913216228673786e-15,75.24274393143878,-10.289484198994954,-0.041684177550441966,-1.666842388159448
293,1.6916904432875956e-15,75.24274393143878,-10.294648980240082,-0.0417171780039844,-1.6749447652635245
294,1.6930340368702639e-15,75.24274393143878,-10.298943211502207,-0.04174467244004457,-1.6812247662606825
295,1.6951660979089303e-15,75.24274393143878,-10.301694560122478,-0.04176268456520724,-1.685130812700212
296,1.6978882892956257e-15,75.24274393143878,-10.302087314923597,-0.0417682461405012,-1.6862206801776964
297,1.7009306987887844e-15,75.24274393143878,-10.299174754525357,-0.041759258965703906,-1.6842505531390919
298,1.7038666226964043e-15,75.24274393143878,-10.291972109810391,-0.04173436771670656,-1.679280473574693
299,1.7061563147404906e-15,75.24274393143878,-10.279640985757036,-0.041692871419321036,-1.6717932013958194
300,1.7073297191157839e-15,75.24274393143878,-10.261746485491658,-0.04163491880018188,-1.6628144210127205
301,1.7071567215000672e-15,75.24274393143878,-10.238491656716203,-0.04156228866475941,-1.6540041346157073
302,1.7056982894796443e-15,75.24274393143878,-10.210892468926149,-0.04147929090146086,-1.6476837724360778
303,1.7032540191867821e-15,75.24274393143878,-10.180939731941997,-0.041393244983901824,-1.6467694055230084
304,1.700247612121061e-15,75.24274393143878,-10.151680057976442,-0.04131438183041449,-1.6545783947476633
305,1.6971076917688529e-15,75.24274393143878,-10.127089044478174,-0.04125490155234392,-1.6744844212021917
306,1.6942090312438105e-15,75.24274393143878,-10.111685412444023,-0.041227247954941454,-1.709426849355347
307,1.6918752527045134e-15,75.24274393143878,-10.109877417185208,-0.04124214697522029,-1.761325071920592
308,1.6903994525607105e-15,75.24274393143878,-10.12512551232237,-0.04130661755553502,-1.8305041698437767
309,1.6900402471293414e-15,75.24274393143878,-10.159082135802768,-0.04142212523857511,-1.915267450456114
310,1.6909468630059844e-15,75.24274393143878,-10.210853979323963,-0.04158348427290772,-2.011724231173262
311,1.6930124795778137e-15,75.24274393143878,-10.276629429423632,-0.04177868586543059,-2.113939856710656
312,1.6957609546401256e-15,75.24274393143878,-10.349964491692123,-0.0419893825038158,-2.2144371362957793
313,1.6984068276870787e-15,75.24274393143878,-10.422763691840768,-0.042192507000375766,-2.3050107886020883
314,1.700125209631365e-15,75.24274393143878,-10.486694731858833,-0.04236376878044335,-2.3777314515702113
315,1.700396934511105e-15,75.24274393143878,-10.534643729118153,-0.04248223499429902,-2.4259575681936307
316,1.6992071211241455e-15,75.24274393143878,-10.561828073650567,-0.04253406911109568,-2.445166246251036
317,1.697006003790091e-15,75.24274393143878,-10.566355700205632,-0.042514414868293215,-2.4334588092986205
318,1.6945350500590319e-15,75.24274393143878,-10.54918421022407,-0.042427461846657286,-2.3916690012539163
319,1.692617345014732e-15,75.24274393143878,-10.513546994514753,-0.04228476531708642,-2.3230901653439466
320,1.6919275728373525e-15,75.24274393143878,-10.46412546962158,-0.04210238956731692,-2.232932382799824
321,1.692790398708816e-15,75.24274393143878,-10.406291478254591,-0.04189836126696255,-2.1276600947304383
322,1.6950768088637036e-15,75.24274393143878,-10.345490050812087,-0.04169132348586429,-2.014320322815621
323,1.698213658839274e-15,75.24274393143878,-10.286711741447073,-0.041499618563474235,-1.8999221249389673
324,1.701323143101898e-15,75.24274393143878,-10.23408227789813,-0.04133975775038712,-1.7909106951697231
325,1.7035127037402558e-15,75.24274393143878,-10.190620642759722,-0.04122426335931953,-1.6927684309831812
326,1.7042156267114088e-15,75.24274393143878,-10.158208922230802,-0.04115967984907968,-1.609753282370867
327,1.7033791610718752e-15,75.24274393143878,-10.137731757881332,-0.04114591662103137,-1.5447549535230736
328,1.701415332864343e-15,75.24274393143878,-10.129230150104263,-0.041177326333764794,-1.4992380880591512
329,1.699020591742985e-15,75.24274393143878,-10.13200615854186,-0.04124453823295074,-1.4732636005182995
330,1.6969646212056165e-15,75.24274393143878,-10.144713209203273,-0.04133614007822196,-1.4655943409628487
331,1.6958642869220832e-15,75.24274393143878,-10.16543021869889,-0.04143998766548664,-1.473882492080991
332,1.6959916607922134e-15,75.24274393143878,-10.191765519430897,-0.04154409104564421,-1.4949326215677103
333,1.6971853326977837e-15,75.24274393143878,-10.221053959138114,-0.041637633750960544,-1.5250279577984267
334,1.698879255196111e-15,75.24274393143878,-10.250608267679445,-0.04171253169324465,-1.5602851239598368
335,1.7002638411416786e-15,75.24274393143878,-10.277978342320674,-0.0417646164486005,-1.5969896730261068
336,1.7005956930850629e-15,75.24274393143878,-10.301181090125374,-0.041793616229709174,-1.6318714306861546
337,1.699548455673596e-15,75.24274393143878,-10.318838717270449,-0.04180220492860934,-1.66229800793631
338,1.6973810713781284e-15,75.24274393143878,-10.33023902426182,-0.0417946109193955,-1.686388738391862
339,1.6948014517364132e-15,75.24274393143878,-10.33534148497583,-0.041775373549558424,-1.7030583239814068
340,1.6926450857277694e-15,75.24274393143878,-10.33469034585924,-0.04174874334364155,-1.7119949601295859
341,1.691588346973169e-15,75.24274393143878,-10.32926470539323,-0.04171852857771327,-1.7135841039198607
342,1.6919968775532894e-15,75.24274393143878,-10.320321980085657,-0.041688102309284214,-1.7087894957338614
343,1.693873078890071e-15,75.24274393143878,-10.30922522714999,-0.04166040874419827,-1.6989921159637096
344,1.6968520533377438e-15,75.24274393143878,-10.297285504595436,-0.04163771363130542,-1.685796892268055
345,1.700246551872855e-15,75.24274393143878,-10.285659656920922,-0.04162142926830403,-1.6708382758956948
346,1.703192693710276e-15,75.24274393143878,-10.275278349245832,-0.04161238042929527,-1.6556169897246498
347,1.7049335271439258e-15,75.24274393143878,-10.26681072861352,-0.041611036048504524,-1.6413843161523256
348,1.7051411180720967e-15,75.24274393143878,-10.260672363135686,-0.04161742313180099,-1.6290724911984615
349,1.7040583798265729e-15,75.24274393143878,-10.257034216202907,-0.041630896690696285,-1.6192635302135303
350,1.702341913725068e-15,75.24274393143878,-10.255839905905338,-0.041649855110202166,-1.6121974657244666
351,1.7007283047018674e-15,75.24274393143878,-10.256842893725544,-0.04167190806052195,-1.6078221627001255
352,1.6997474307249477e-15,75.24274393143878,-10.259640724144573,-0.04169474019106338,-1.605873853083921
353,1.699589070361342e-15,75.24274393143878,-10.263735257692227,-0.04171675278818472,-1.6059656569954306
354,1.7001027700965456e-15,75.24274393143878,-10.26861354811075,-0.04173682719812694,-1.6076571550154752
355,1.7009083341127513e-15,75.24274393143878,-10.273776882319305,-0.04175364175718979,-1.6104913983524123
356,1.7015801476248287e-15,75.24274393143878,-10.278720893357995,-0.04176529115203066,-1.614010202074542
357,1.7017936035822591e-15,75.24274393143878,-10.282900387244654,-0.04176972898243851,-1.6177651994885334
358,1.7013800457566078e-15,75.24274393143878,-10.285689897084941,-0.04176559317670479,-1.6213354131336106
359,1.7003589687518143e-15,75.24274393143878,-10.286394342217399,-0.04175235469571016,-1.6243606785695097
360,1.6989469963839203e-15,75.24274393143878,-10.284310451284544,-0.041729736728853314,-1.626596554343753
361,1.6974732258232331e-15,75.24274393143878,-10.278777546064996,-0.04169716439144395,-1.6279916884074432
362,1.696249929117671e-15,75.24274393143878,-10.269249385630763,-0.04165373672629713,-1.628785250273577
363,1.6954994649745868e-15,75.24274393143878,-10.255428416222585,-0.04159889825551987,-1.6296057447809202
364,1.695344895108091e-15,75.24274393143878,-10.237427828852756,-0.04153337811072318,-1.6315386648215817
365,1.6958237992567237e-15,75.24274393143878,-10.215940821129612,-0.04145970981558648,-1.6361399206331724
366,1.6969020288931022e-15,75.24274393143878,-10.19237278545283,-0.0413824490431761,-1.645384813450454
367,1.698468611095571e-15,75.24274393143878,-10.16888345227896,-0.04130833506688244,-1.6615442559019362
368,1.7002932252538673e-15,75.24274393143878,-10.148359501483846,-0.041246189152038724,-1.6869776282221256
369,1.7019970142982747e-15,75.24274393143878,-10.134276457222374,-0.041206597372574275,-1.7238313262270824
370,1.703143737790655e-15,75.24274393143878,-10.130338179457452,-0.041201144398947,-1.7736510355625417
371,1.7034172872246624e-15,75.24274393143878,-10.139881439519772,-0.041240496328636064,-1.8369525713291073
372,1.7027167593257633e-15,75.24274393143878,-10.165104003282721,-0.041331676946887934,-1.9128241509922024
373,1.7011334337141172e-15,75.24274393143878,-10.206255635833758,-0.04147564829620919,-1.9986528524385454
374,1.6989124303782414e-15,75.24274393143878,-10.261089887067294,-0.04166547025561477,-2.0900795842938016
375,1.6964417741316019e-15,75.24274393143878,-10.324855333622054,-0.041885326644905574,-2.1812584290631443
376,1.694229519315982e-15,75.24274393143878,-10.390921315645766,-0.042111933337368075,-2.265422377290651
377,1.6928131669024751e-15,75.24274393143878,-10.451917493313307,-0.04231882113682865,-2.335669354651868
378,1.6925925072121864e-15,75.24274393143878,-10.501017228551575,-0.042481230993882006,-2.3858174863368253
379,1.6936678783260706e-15,75.24274393143878,-10.532980055195983,-0.04257965645145605,-2.4111726334607453
380,1.6957823744883652e-15,75.24274393143878,-10.544827211773102,-0.042602403994500125,-2.4090943586558935
381,1.6984033578720295e-15,75.24274393143878,-10.53613728957875,-0.04254731297677999,-2.379289014992346
382,1.7009083868456779e-15,75.24274393143878,-10.508917599535351,-0.0424216264440703,-2.3237927980936663
383,1.7027768194737235e-15,75.24274393143878,-10.467072479282795,-0.04224009560891464,-2.246655945179468
384,1.703702816852151e-15,75.24274393143878,-10.41559107494081,-0.04202253681471699,-2.1533991827696797
385,1.7036324677979403e-15,75.24274393143878,-10.359698590270805,-0.04179133329829292,-2.050363703755425
386,1.7027612035362953e-15,75.24274393143878,-10.304242262813228,-0.04156881084746107,-1.9440805071425875
387,1.7014927524827936e-15,75.24274393143878,-10.253344171869498,-0.041374755784799266,-1.8407322511688573
388,1.7003258807074926e-15,75.24274393143878,-10.210193397213315,-0.0412242677152983,-1.7457267201427313
389,1.6996683467218106e-15,75.24274393143878,-10.176952677211547,-0.041126187325356126,-1.6633851421643118
390,1.6996640308828245e-15,75.24274393143878,-10.154781063790207,-0.04108271620367584,-1.596746397562226
391,1.700132954919588e-15,75.24274393143878,-10.143931391797356,-0.041090202872069416,-1.5474834612446986
392,1.7006589708879547e-15,75.24274393143878,-10.143887995896346,-0.041140512977296415,-1.515921580493619
393,1.7007879861238704e-15,75.24274393143878,-10.153472518517885,-0.04122289592847065,-1.5011411034385271
394,1.7002332045076619e-15,75.24274393143878,-10.17090469771184,-0.04132595156142013,-1.501155841979155
395,1.6989945242462012e-15,75.24274393143878,-10.193916843077172,-0.04143877938047798,-1.5131650984710188
396,1.6973734071531426e-15,75.24274393143878,-10.219949729809914,-0.04155134003106194,-1.5338624974354491
397,1.6958814845711926e-15,75.24274393143878,-10.246397124168247,-0.04165473473718263,-1.5597706251866397
398,1.6950570070694694e-15,75.24274393143878,-10.270891194560047,-0.041741670587658555,-1.5875651760637148
399,1.6952745951522066e-15,75.24274393143878,-10.291553527189444,-0.04180702587222844,-1.6143445019603966
400,1.696632343579604e-15,75.24274393143878,-10.307137227380359,-0.04184823295434136,-1.637811758142475
401,1.6989181230685247e-15,75.24274393143878,-10.317075474382495,-0.04186534021060601,-1.6563658873288574
402,1.7016370896149681e-15,75.24274393143878,-10.321433885159115,-0.041860887291507005,-1.6691119834883017
403,1.7041253135785149e-15,75.24274393143878,-10.320780993823885,-0.04183937823396383,-1.6758062538947276
404,1.705762595748881e-15,75.24274393143878,-10.316045869519387,-0.04180627107756489,-1.6767554667766638
405,1.706218721810683e-15,75.24274393143878,-10.308362612059604,-0.041767071184717966,-1.672687084674267
406,1.705598512362753e-15,75.24274393143878,-10.298900737783125,-0.041726770722963415,-1.6646072140081416
407,1.7043665511793287e-15,75.24274393143878,-10.288747191467017,-0.04168939818552153,-1.6536699518102294
408,1.703088981130669e-15,75.24274393143878,-10.278842609833607,-0.041657662630379025,-1.6410741268944717
409,1.7021803644200456e-15,75.24274393143878,-10.269952094630554,-0.041632763193668744,-1.6279891449126251
410,1.701782429189697e-15,75.24274393143878,-10.262680846972284,-0.041614516781130935,-1.6155001366115471
411,1.701768812909648e-15,75.24274393143878,-10.257478078804969,-0.04160189009523009,-1.6045541055102115
412,1.701855072927724e-15,75.24274393143878,-10.254601775658095,-0.04159367650296299,-1.5958977191375368
413,1.7017749943732843e-15,75.24274393143878,-10.25410511519155,-0.04158919895870251,-1.5900150581339956
414,1.7013970107530586e-15,75.24274393143878,-10.255841588388776,-0.04158882069507613,-1.5870775614478747
415,1.7007062467541772e-15,75.24274393143878,-10.259457937316482,-0.04159360354996706,-1.5869195707713968
416,1.6997560366195665e-15,75.24274393143878,-10.264390956856328,-0.041604193827153135,-1.5890561811247317
417,1.6986729470311722e-15,75.24274393143878,-10.269868158987652,-0.041619891454832594,-1.5927530987419596
418,1.6976445745913033e-15,75.24274393143878,-10.274944627384732,-0.0416383834842455,-1.5971452926100165
419,1.6968540603981208e-15,75.24274393143878,-10.278611212214257,-0.04165608518440389,-1.6013836163676352
420,1.6964268702868995e-15,75.24274393143878,-10.279897788196969,-0.04166886183925207,-1.6047754023988672
421,1.6964187598513955e-15,75.24274393143878,-10.277921338902745,-0.041672670978509206,-1.606901799102921
422,1.6968212813237048e-15,75.24274393143878,-10.271938230541483,-0.04166409371141998,-1.607721237534303
423,1.6975695466464513e-15,75.24274393143878,-10.261440300582946,-0.041640994301928684,-1.6076653304476627
424,1.6985499592512797e-15,75.24274393143878,-10.24630916041865,-0.0416029034482727,-1.607712855878721
425,1.6996101126855833e-15,75.24274393143878,-10.227005770784874,-0.041550968268581526,-1.6094131598807202
426,1.7005855235888358e-15,75.24274393143878,-10.204693802515632,-0.04148812842158545,-1.6148297254082917
427,1.7013644466417894e-15,75.24274393143878,-10.181268675055636,-0.04141966015224085,-1.6263927733240031
428,1.701956140497381e-15,75.24274393143878,-10.15933763636176,-0.041353581699249804,-1.646667027969376
429,1.7024787701575685e-15,75.24274393143878,-10.14210512625516,-0.04130056863522746,-1.678043515652655
430,1.7030683638560947e-15,75.24274393143878,-10.13309877082773,-0.04127313335004106,-1.7223720649460685
431,1.703795716420926e-15,75.24274393143878,-10.135715847563013,-0.041284020085980935,-1.7805660998172186
432,1.704630286996796e-15,75.24274393143878,-10.152582779315,-0.041343798025233865,-1.8522281495191015
433,1.7054367911525056e-15,75.24274393143878,-10.184836101136238,-0.041457548100874875,-1.935370802093687
434,1.706007329329585e-15,75.24274393143878,-10.231526647538072,-0.04162160469305074,-2.026321356242761
435,1.7061572057760469e-15,75.24274393143878,-10.28933497642951,-0.04182235287805843,-2.119878190270893
436,1.7058534016942577e-15,75.24274393143878,-10.352799956137972,-0.04203806106206922,-2.2097426456492193
437,1.7052343126553325e-15,75.24274393143878,-10.415125675166863,-0.04224293180198251,-2.289182055488084
438,1.704471346852161e-15,75.24274393143878,-10.469333452924428,-0.04241187604503213,-2.351809195191448
439,1.7036422016007479e-15,75.24274393143878,-10.50942938755759,-0.042524608612721844,-2.3923421617281098
440,1.7027359262888868e-15,75.24274393143878,-10.53133938536101,-0.04256812207657094,-2.4072316244785017
441,1.7017187297214118e-15,75.24274393143878,-10.533446407084092,-0.0425377335467314,-2.3950670992242715
442,1.7005876685106554e-15,75.24274393143878,-10.516667406781226,-0.04243741930336359,-2.356697143931503
443,1.6994100910582643e-15,75.24274393143878,-10.484058286725737,-0.04227907937770521,-2.2950408980351438
444,1.6983496471905953e-15,75.24274393143878,-10.440030501522372,-0.042080147542995855,-2.21463944236824
445,1.6976583492046031e-15,75.24274393143878,-10.389484874287861,-0.04186064137117574,-2.1210652757469446
446,1.6975956420995973e-15,75.24274393143878,-10.33715497692894,-0.04164116227948117,-2.0203187238745217
447,1.698274594434871e-15,75.24274393143878,-10.287177350533836,-0.04144152162625111,-1.9182923777015999
448,1.6995352765789653e-15,75.24274393143878,-10.242810587378901,-0.04127882991677448,-1.8203394899299588
449,1.7009662610040081e-15,75.24274393143878,-10.206292407817058,-0.04116514661520297,-1.7309618711963977
450,1.70207461717074e-15,75.24274393143878,-10.178843666101178,-0.04110565566742805,-1.6536214278967327
451,1.7024836682804668e-15,75.24274393143878,-10.160832877851137,-0.04109816670439788,-1.590668669776751
452,1.7020563118884892e-15,75.24274393143878,-10.152028506352632,-0.04113455424713417,-1.5433633650770913
453,1.700937167480169e-15,75.24274393143878,-10.15178449717611,-0.04120371977928813,-1.51194812233214
454,1.6995314320993144e-15,75.24274393143878,-10.159126943984097,-0.04129434274954901,-1.495746117990252
455,1.6983990161045967e-15,75.24274393143878,-10.172798754073751,-0.04139627271002693,-1.4932749394579758
456,1.6980645342965652e-15,75.24274393143878,-10.19128430790966,-0.04150084179306466,-1.5023828067422054
457,1.6988270408297312e-15,75.24274393143878,-10.212864344622043,-0.041600706269969444,-1.5204207403988454
458,1.7006556950440787e-15,75.24274393143878,-10.23572409312933,-0.041689644641560705,-1.5444529622181251
459,1.7031871008754418e-15,75.24274393143878,-10.258069995492853,-0.04176259805490088,-1.5714884454384175
460,1.7058253500808886e-15,75.24274393143878,-10.278263144248559,-0.041815997667171416,-1.59871290613872
461,1.707931030559624e-15,75.24274393143878,-10.294966687080215,-0.04184812452504119,-1.623701539462493
462,1.7090148334260247e-15,75.24274393143878,-10.307246737954316,-0.041859097112655515,-1.6445917043553187
463,1.7088533458356758e-15,75.24274393143878,-10.314634810454885,-0.04185059194269999,-1.6601994573704437
464,1.7075272981594608e-15,75.24274393143878,-10.317160602464075,-0.04182582286921797,-1.6700637630262536
465,1.705403454644217e-15,75.24274393143878,-10.315307982813602,-0.04178949134670145,-1.6744029194773726
466,1.7030395553128704e-15,75.24274393143878,-10.30991143479069,-0.04174704165056737,-1.6739863041741632
467,1.7010119985473192e-15,75.24274393143878,-10.30202456134067,-0.04170370675848308,-1.6699477028920073
468,1.6997466313084077e-15,75.24274393143878,-10.29276499145393,-0.04166400231837792,-1.6635816242404766
469,1.6994312872604865e-15,75.24274393143878,-10.283193769210957,-0.04163134345445434,-1.656166369890365
470,1.700004936096524e-15,75.24274393143878,-10.274242906558936,-0.04160771424923648,-1.6488361317448976
471,1.7011861615062505e-15,75.24274393143878,-10.266641911539734,-0.04159373381808089,-1.6424993489819544
472,1.7025374802417777e-15,75.24274393143878,-10.260873655485113,-0.041588999036794694,-1.637796153862342
473,1.7035939515570846e-15,75.24274393143878,-10.257187427342055,-0.041592600362778655,-1.6350870000185136
474,1.7040387122513779e-15,75.24274393143878,-10.255633482659315,-0.04160362344004374,-1.6344626340729136
475,1.7038047679064532e-15,75.24274393143878,-10.256116922241722,-0.04162111922349585,-1.6357725041332822
476,1.7030186199397534e-15,75.24274393143878,-10.258443507917093,-0.04164365766536907,-1.6386698449862087
477,1.701871263359341e-15,75.24274393143878,-10.26231682487312,-0.04166898310981723,-1.6426664926760746
478,1.7005373051624518e-15,75.24274393143878,-10.267340348166208,-0.04169400403633797,-1.6471904650797844
479,1.6991568020934824e-15,75.24274393143878,-10.273044468946145,-0.0417154046930338,-1.651638012735479
480,1.6978435747924875e-15,75.24274393143878,-10.278886534336994,-0.04173061791808205,-1.6554156838440852
481,1.6966999582178184e-15,75.24274393143878,-10.284236418713583,-0.04173820154464277,-1.6579793380864865
482,1.6958303264455838e-15,75.24274393143878,-10.288372081912975,-0.04173749301895379,-1.6588769596741868
483,1.6953489912497726e-15,75.24274393143878,-10.290493567386667,-0.041728216013877835,-1.6577965835370083
484,1.695379998286452e-15,75.24274393143878,-10.289797883594881,-0.04171038424586768,-1.654620335799316
485,1.6960473168438727e-15,75.24274393143878,-10.285583113833482,-0.04168442535676054,-1.6494800241943404
486,1.6974548241028278e-15,75.24274393143878,-10.27731133763362,-0.04165100536188945,-1.6428073994130266
487,1.6996565823119909e-15,75.24274393143878,-10.264668360547748,-0.04161036070319727,-1.6353809919840951
488,1.7026194544214075e-15,75.24274393143878,-10.24766218219924,-0.04156213311463547,-1.6283720070639887
489,1.70618303926887e-15,75.24274393143878,-10.226744272990924,-0.041506317848414416,-1.623379432958465
490,1.710026673533388e-15,75.24274393143878,-10.202946180254411,-0.04144454402173359,-1.622429426674405
491,1.7136683587110879e-15,75.24274393143878,-10.177974596413492,-0.041380955154951014,-1.6279038607233358
492,1.7165408565711142e-15,75.24274393143878,-10.154211836297437,-0.041322430413513564,-1.6423740792859458
493,1.718152595126367e-15,75.24274393143878,-10.134648460538921,-0.04127797925449618,-1.6683412689282358
494,1.7182516949605463e-15,75.24274393143878,-10.122704223501938,-0.041257612188261225,-1.7078974862531333
495,1.7168959716202867e-15,75.24274393143878,-10.121841908639446,-0.04127107872113599,-1.7623322800159296
496,1.7143950257574056e-15,75.24274393143878,-10.134980899009792,-0.04132645167456177,-1.8317336778837647
497,1.7111604173993127e-15,75.24274393143878,-10.163775359910698,-0.04142848715958442,-1.9146535502121915
498,1.7075628078639169e-15,75.24274393143878,-10.207910033447142,-0.04157670313679325,-2.0079234317726398
499,1.703878668909466e-15,75.24274393143878,-10.264696202146993,-0.04176329002889673,-2.1067100718077247
500,1.700318342818355e-15,75.24274393143878,-10.329187469230607,-0.0419720014919605,-2.20486162572624
501,1.6970865842080372e-15,75.24274393143878,-10.394867533985531,-0.04217988460177302,-2.295519431374598
502,1.6944413636101154e-15,75.24274393143878,-10.45476818444111,-0.04236184164944853,-2.3718901589438515
503,1.6927153769835257e-15,75.24274393143878,-10.502639427641563,-0.042495421400922294,-2.42802541662234
504,1.6922399512026968e-15,75.24274393143878,-10.533824260883373,-0.042564117036911625,-2.459471484896703
505,1.6931476547309856e-15,75.24274393143878,-10.545772242611784,-0.04255970010519208,-2.463709561638547
506,1.6951875908358522e-15,75.24274393143878,-10.53822978011277,-0.04248353079101161,-2.440352347874777
507,1.697758682313285e-15,75.24274393143878,-10.513098331855069,-0.04234582542295424,-2.3910889404804427
508,1.7001614717046915e-15,75.24274393143878,-10.473967391085411,-0.042163206623864975,-2.3194009884330082
509,1.7018634380934131e-15,75.24274393143878,-10.425395463934123,-0.04195582720744169,-2.2301119666761005
510,1.7026411210693203e-15,75.24274393143878,-10.372153304875326,-0.04174463843930322,-2.128861459218057
511,1.702614196654778e-15,75.24274393143878,-10.31868044105465,-0.041548991467443494,-2.0215897065516155
512,1.702205337873164e-15,75.24274393143878,-10.268771665785149,-0.04138475026887044,-1.9140767491704742
513,1.702008913854341e-15,75.24274393143878,-10.22537693115423,-0.041262773527349625,-1.8115551652472859
514,1.7025714144134986e-15,75.24274393143878,-10.190506991288972,-0.04118800835908625,-1.7184173750658607
515,1.7041609180146218e-15,75.24274393143878,-10.165265175201602,-0.04115969009466507,-1.6380310953664194
516,1.7066113500295151e-15,75.24274393143878,-10.14998415372543,-0.0411723881681355,-1.5726567811287213
517,1.7093292505742168e-15,75.24274393143878,-10.144408890834212,-0.04121765267908704,-1.523444090100379
518,1.7115347255184618e-15,75.24274393143878,-10.147804821250466,-0.04128617318088866,-1.4904785312516422
519,1.7126024447313392e-15,75.24274393143878,-10.158967152412426,-0.041369341392322956,-1.4728669854024914
520,1.7122480576746255e-15,75.24274393143878,-10.17623917816987,-0.04145937423889537,-1.4688714249629142
521,1.7105261695970434e-15,75.24274393143878,-10.197585680931185,-0.041548794156799206,-1.4760976272560755
522,1.7077799849249735e-15,75.24274393143878,-10.220733267418403,-0.04163026876363133,-1.491735633219173
523,1.7045915301196872e-15,75.24274393143878,-10.243403556055958,-0.04169714469055993,-1.5128370602216508
524,1.7016773847820036e-15,75.24274393143878,-10.263575736406363,-0.041744543448460306,-1.5365975450186473
525,1.6997086053597904e-15,75.24274393143878,-10.279709200823737,-0.04177028744142539,-1.5606079179888193
526,1.6991168646341664e-15,75.24274393143878,-10.290911738547843,-0.04177507220092503,-1.583040779705315
527,1.6999478891686764e-15,75.24274393143878,-10.297004362471526,-0.04176201161388451,-1.6027428309365843
528,1.701810452122407e-15,75.24274393143878,-10.298473374882528,-0.04173589285113846,-1.6192230148304316
529,1.7040039976919645e-15,75.24274393143878,-10.296351863383844,-0.04170257471564067,-1.6325488484795747
530,1.7058070020964343e-15,75.24274393143878,-10.292011469778403,-0.0416685839011151,-1.6431724724870669
531,1.7067496934309823e-15,75.24274393143878,-10.286884861281996,-0.041640256416817505,-1.651721086891946
532,1.7067338681805739e-15,75.24274393143878,-10.282218971464884,-0.04162250588290168,-1.658797348698146
533,1.7059852487831e-15,75.24274393143878,-10.278902853564707,-0.04161809568953201,-1.6648258137805567
534,1.7048895314117804e-15,75.24274393143878,-10.277388280452662,-0.041627357242612816,-1.6699635894599167
535,1.7038167918957962e-15,75.24274393143878,-10.277704332105332,-0.04164800088545151,-1.674075166307546
536,1.703022030203747e-15,75.24274393143878,-10.279496753808491,-0.04167545631054372,-1.6767615097294881
537,1.7026192365953846e-15,75.24274393143878,-10.282089596446987,-0.04170392454154759,-1.6774438925209993
538,1.7025894169221022e-15,75.24274393143878,-10.284626155934692,-0.04172772647205223,-1.6755039991404361
539,1.702804631445339e-15,75.24274393143878,-10.286246801263232,-0.04174242134680745,-1.670455181006971
540,1.703075225244872e-15,75.24274393143878,-10.286247923961216,-0.041745260486607885,-1.6621016189337057
541,1.7032374169662099e-15,75.24274393143878,-10.284206269690497,-0.04173523112631269,-1.6506460947186745
542,1.7032443898295219e-15,75.24274393143878,-10.280032818375782,-0.041713242966275745,-1.636719233485358
543,1.703175491331595e-15,75.24274393143878,-10.273987285568015,-0.041682386951763795,-1.6213266590625417
544,1.7031635444126574e-15,75.24274393143878,-10.266700524249881,-0.04164786515982463,-1.6057326920066597
545,1.7033254546652426e-15,75.24274393143878,-10.259138654609398,-0.041616050211329775,-1.5913021916809806
546,1.7037320892684772e-15,75.24274393143878,-10.252467000397843,-0.04159264587304935,-1.5793204998754378
547,1.704397459076314e-15,75.24274393143878,-10.247860798928315,-0.04158127241999069,-1.5708142757168677
548,1.705273683404125e-15,75.24274393143878,-10.246298600109217,-0.04158325057736729,-1.5663973989068574
549,1.7062504462134596e-15,75.24274393143878,-10.24838534631956,-0.04159779683791505,-1.5661653433785352
550,1.7071616758328916e-15,75.24274393143878,-10.25422342267394,-0.04162240239936318,-1.5696515704183311
551,1.707814351602405e-15,75.24274393143878,-10.263289772125196,-0.04165347711420612,-1.5758500404670979
552,1.7080606640660643e-15,75.24274393143878,-10.274378509485594,-0.041686526535074236,-1.5833158350882102
553,1.707878601309206e-15,75.24274393143878,-10.285714151535108,-0.041716068704028234,-1.5903524701077265
554,1.7073764988956495e-15,75.24274393143878,-10.295197898807409,-0.04173617154502631,-1.5952619227109373
555,1.7067217793665336e-15,75.24274393143878,-10.300695853358222,-0.04174121195960052,-1.5966111016527027
556,1.7060787066807409e-15,75.24274393143878,-10.300304684755877,-0.0417264364637834,-1.5934755501121458
557,1.7055901047253474e-15,75.24274393143878,-10.29255995698691,-0.04168880440874359,-1.5856402414561541
558,1.7053810624047276e-15,75.24274393143878,-10.27664872362234,-0.04162803755316125,-1.5737528807081618
559,1.7055669229386932e-15,75.24274393143878,-10.25265540485481,-0.04154725142974778,-1.5594179390267835
560,1.7062556630664024e-15,75.24274393143878,-10.221733810931518,-0.0414528288370679,-1.5451980519588848
561,1.7075248463874124e-15,75.24274393143878,-10.186143300958655,-0.04135362437311625,-1.5344916041667023
562,1.7093398661925393e-15,75.24274393143878,-10.149174581881844,-0.04126021824577058,-1.5312803657393594
563,1.7114330942877272e-15,75.24274393143878,-10.114976870277399,-0.04118461711710651,-1.5397601833565286
564,1.7132793236089752e-15,75.24274393143878,-10.088295162843885,-0.041139739314648135,-1.5638729693318798
565,1.7142718121754058e-15,75.24274393143878,-10.074058382343468,-0.04113812313732617,-1.6067568263213405
566,1.7139671442126924e-15,75.24274393143878,-10.076707054364968,-0.041189673468699554,-1.6701496105861564
567,1.7121764109489699e-15,75.24274393143878,-10.099311885701436,-0.041298555409836915,-1.7538334339863062
568,1.708933595728911e-15,75.24274393143878,-10.142682724715453,-0.04146065100050788,-1.855250556792788
569,1.7045539391359178e-15,75.24274393143878,-10.2047042118395,-0.04166336178762792,-1.9694176494573619
570,1.6997653124379418e-15,75.24274393143878,-10.280199394168324,-0.041887785353825736,-2.0892208969530133
571,1.6956456008167661e-15,75.24274393143878,-10.361516172004892,-0.042111802831855116,-2.20609483157236
572,1.6932382010117307e-15,75.24274393143878,-10.439741720668897,-0.042312919706483786,-2.310991399076601
573,1.6930543360711567e-15,75.24274393143878,-10.506235054149386,-0.04247065159652333,-2.3954671907002574
574,1.694831050735999e-15,75.24274393143878,-10.55403463131579,-0.042568498235275774,-2.4526846453813764
575,1.6976976795484442e-15,75.24274393143878,-10.578782624058165,-0.042595809831276074,-2.4781627084129036
576,1.7005490215209366e-15,75.24274393143878,-10.579117273089855,-0.042549935931759084,-2.4701970823655017
577,1.7024117396137154e-15,75.24274393143878,-10.556581040874885,-0.04243750353989521,-2.4299308249386993
578,1.702782040847668e-15,75.24274393143878,-10.515055603917652,-0.04227297447574415,-2.361093722875574
579,1.7018577501340878e-15,75.24274393143878,-10.45989852169693,-0.04207506043469305,-2.269477426955312
580,1.7004644379895231e-15,75.24274393143878,-10.397055787636173,-0.04186350125894942,-2.1622469933269954
581,1.6996339942469881e-15,75.24274393143878,-10.332335013621389,-0.04165737433495633,-2.047190853875854
582,1.7001077455523036e-15,75.24274393143878,-10.270915435153034,-0.041474095810556194,-1.931999375318464
583,1.7021133495779848e-15,75.24274393143878,-10.217034380351414,-0.04132813446283835,-1.8236404662117178
584,1.705419625379347e-15,75.24274393143878,-10.173776535444576,-0.04122936047642782,-1.727878224677621
585,1.7094021291808566e-15,75.24274393143878,-10.14301650071634,-0.04118162686311993,-1.6489641180169947
586,1.7131165307185193e-15,75.24274393143878,-10.125510305494869,-0.0411824693430483,-1.589498882792849
587,1.7155731562890526e-15,75.24274393143878,-10.12102165350959,-0.041224201717964384,-1.5504284745162829
588,1.716085374403409e-15,75.24274393143878,-10.128441641563315,-0.04129573023313415,-1.531135842341238
589,1.7143929002500493e-15,75.24274393143878,-10.145908121202364,-0.041384524581308466,-1.529613784860107
590,1.7105921079667014e-15,75.24274393143878,-10.170930103522819,-0.04147854044929298,-1.5427233087680912
591,1.7051308108384195e-15,75.24274393143878,-10.200576534994902,-0.041567771643738316,-1.5665412085860166
592,1.6988776773001894e-15,75.24274393143878,-10.23174267256655,-0.04164526155976596,-1.5967744474589696
593,1.693025938729588e-15,75.24274393143878,-10.261445302374831,-0.0417074593950736,-1.6291907742600413
594,1.6887453846848297e-15,75.24274393143878,-10.287133224783425,-0.04175376039906961,-1.6600099220096898
595,1.686793040970296e-15,75.24274393143878,-10.30695043187643,-0.04178546961399038,-1.686209152837257
596,1.6873633770115033e-15,75.24274393143878,-10.31986096840177,-0.0418046280017916,-1.7057136195113614
597,1.6902286391916064e-15,75.24274393143878,-10.325653868031504,-0.04181310099318562,-1.7174629684244402
598,1.6949319376643063e-15,75.24274393143878,-10.324859778714483,-0.04181227440792122,-1.7213606888799264
599,1.7008606341352511e-15,75.24274393143878,-10.318580422161926,-0.04180311902786677,-1.7181286742570905
600,1.7072953154412486e-15,75.24274393143878,-10.308284006975153,-0.04178619964362266,-1.7091036019162358
601,1.7134889687926562e-15,75.24274393143878,-10.29559300864539,-0.0417619732338695,-1.6960079996549622
602,1.7186841032392021e-15,75.24274393143878,-10.282071724038431,-0.04173154016425428,-1.6807231305634103
603,1.722129212990936e-15,75.24274393143878,-10.269079327311296,-0.04169699797669271,-1.6650917698135694
604,1.7232851103358768e-15,75.24274393143878,-10.257697118804785,-0.041661004765669876,-1.6507659707780538
605,1.7221626536343866e-15,75.24274393143878,-10.248687189616241,-0.041626265689653094,-1.639097098152711
606,1.7194332500682988e-15,75.24274393143878,-10.24249440666754,-0.041595492201858535,-1.6310628144827761
607,1.7161023179170696e-15,75.24274393143878,-10.239281312869766,-0.04157159887295077,-1.6272304768915271
608,1.7130497160959802e-15,75.24274393143878,-10.238975267771993,-0.04155753376659172,-1.627759281974736
609,1.7108971235982985e-15,75.24274393143878,-10.241352030010765,-0.04155552017973105,-1.6324357249345476
610,1.7101328729188358e-15,75.24274393143878,-10.246109208405361,-0.041566178477402065,-1.6407211425156225
611,1.711025412182877e-15,75.24274393143878,-10.252868562455527,-0.04158804080567889,-1.6517958183872279
612,1.7132837898126765e-15,75.24274393143878,-10.261158006286964,-0.04161781258983389,-1.6646086506462061
613,1.7159773301496043e-15,75.24274393143878,-10.270409080277107,-0.041651500758525334,-1.6779469927773918
614,1.717955024106722e-15,75.24274393143878,-10.279956480103001,-0.0416855826287809,-1.6905278891614821
615,1.7183304122071515e-15,75.24274393143878,-10.28905141338237,-0.04171730683501823,-1.701100191525689
616,1.7166310969238125e-15,75.24274393143878,-10.296863077751711,-0.04174433076471743,-1.7085437058548554
617,1.7128114757554381e-15,75.24274393143878,-10.302465196795108,-0.041764101837181766,-1.7119632057164813
618,1.7073938971634434e-15,75.24274393143878,-10.304882234487781,-0.04177339121687176,-1.7107847226184068
619,1.701523045505789e-15,75.24274393143878,-10.303187289848346,-0.041768664244650325,-1.704848264186193
620,1.6966288242437014e-15,75.24274393143878,-10.296590497624322,-0.041746975365265664,-1.6944817729904533
621,1.6938567107387973e-15,75.24274393143878,-10.284532840991165,-0.04170654521396683,-1.6805519255223396
622,1.6937233373725085e-15,75.24274393143878,-10.266798367637175,-0.04164711570628579,-1.664493482556363
623,1.6961571777459223e-15,75.24274393143878,-10.243651661760602,-0.041570262477319965,-1.6483143345962243
624,1.7006215912985247e-15,75.24274393143878,-10.21601853855502,-0.0414796080604993,-1.6345633849836132
625,1.7061083389958796e-15,75.24274393143878,-10.185636556584303,-0.04138118807241603,-1.6262332303902078
626,1.711273035467742e-15,75.24274393143878,-10.155093917460992,-0.04128371044901332,-1.6265704529741725
627,1.7149209728681749e-15,75.24274393143878,-10.127757843541223,-0.04119828640191832,-1.6387889192958724
628,1.7164712604692526e-15,75.24274393143878,-10.107560595710924,-0.04113792214345728,-1.6657003110825508
629,1.716001991842102e-15,75.24274393143878,-10.09860014208537,-0.041116586627950986,-1.7092874192101224
630,1.7140199286105113e-15,75.24274393143878,-10.104562247928177,-0.041147183353747695,-1.7702614362390396
631,1.711258761494189e-15,75.24274393143878,-10.12796699854845,-0.04123865884200763,-1.8476664470134618
632,1.7085376741673098e-15,75.24274393143878,-10.169354926321258,-0.04139289934430771,-1.9386202848454632
633,1.7065509379057377e-15,75.24274393143878,-10.226690559407007,-0.04160207757873075,-2.038289590707643
634,1.7055853324249932e-15,75.24274393143878,-10.295236409198862,-0.04184786637260367,-2.1401690003200744
635,1.7053945039783639e-15,75.24274393143878,-10.368057033037568,-0.04210375976299463,-2.2366781928141
636,1.7053933024729165e-15,75.24274393143878,-10.437130652600903,-0.04233978649508981,-2.3200095787348607
637,1.7049978097442861e-15,75.24274393143878,-10.494738796103965,-0.04252765420767007,-2.383075770089398
638,1.70386554231285e-15,75.24274393143878,-10.534721005049395,-0.04264521489962321,-2.420375844313963
639,1.7019985113122631e-15,75.24274393143878,-10.553330091443247,-0.04267976962309361,-2.42863333353418
640,1.6997657828621995e-15,75.24274393143878,-10.549574398606115,-0.0426293533803664,-2.4071220126079957
641,1.6978431745851876e-15,75.24274393143878,-10.525118901102546,-0.04250194786330218,-2.3576616397311136
642,1.6970082235926876e-15,75.24274393143878,-10.483858331186683,-0.04231369332966021,-2.2843091717918833
643,1.6978197875991526e-15,75.24274393143878,-10.431159054031735,-0.0420864608701951,-2.192798199874987
644,1.7004144922749705e-15,75.24274393143878,-10.372889812080421,-0.04184444322084775,-2.089823780091869
645,1.70455911438017e-15,75.24274393143878,-10.314552273132513,-0.041610535646755896,-1.9823052061288888
646,1.709732173284254e-15,75.24274393143878,-10.260709736432464,-0.0414039399309508,-1.8767417043729837
647,1.7150637786532995e-15,75.24274393143878,-10.214724689037979,-0.04123909205303343,-1.7787259319398838
648,1.7194194250979339e-15,75.24274393143878,-10.178722806669603,-0.041125105510989204,-1.6926326979571498
649,1.721842557113571e-15,75.24274393143878,-10.153672308727975,-0.04106546267823729,-1.6214693554625463
650,1.7219856609398487e-15,75.24274393143878,-10.139556218845001,-0.04105807885215223,-1.5668632519591268
651,1.7201324117455997e-15,75.24274393143878,-10.135633347375537,-0.04109606735615913,-1.5291549266921527
652,1.7169530929218422e-15,75.24274393143878,-10.14067576369277,-0.04116936905152071,-1.5075606736448435
653,1.7132956135546824e-15,75.24274393143878,-10.153123548256431,-0.0412665733152576,-1.5003796764934119
654,1.7100420359865235e-15,75.24274393143878,-10.171205452993044,-0.0413763929870718,-1.505230994328234
655,1.7078997239791436e-15,75.24274393143878,-10.193031270528296,-0.041488825696932415,-1.5193006545978083
656,1.707122665819203e-15,75.24274393143878,-10.216668008027625,-0.041595661270151345,-1.5395839509437463
657,1.707391318650041e-15,75.24274393143878,-10.24024819908783,-0.04169029632299441,-1.5631181117289334
658,1.708013752566895e-15,75.24274393143878,-10.262096614282406,-0.0417675729904055,-1.5871953821967073
659,1.7082740027794985e-15,75.24274393143878,-10.280857072152468,-0.041823983180488966,-1.6095422892215165
660,1.7076826668372993e-15,75.24274393143878,-10.295604103773973,-0.041858218954540484,-1.628449373056675
661,1.706093187249639e-15,75.24274393143878,-10.305871407068567,-0.04187172437953396,-1.6428293585625338
662,1.703741227268136e-15,75.24274393143878,-10.311598302286741,-0.04186824158600667,-1.6521953252874597
663,1.701205303354666e-15,75.24274393143878,-10.313059147021535,-0.041852269618064035,-1.6565791126108376
664,1.6992268058692091e-15,75.24274393143878,-10.310777219851381,-0.04182773568036792,-1.6564182340661235
665,1.6984177583765449e-15,75.24274393143878,-10.305431819659374,-0.04179747867156557,-1.6524331098127922
666,1.699085815535927e-15,75.24274393143878,-10.297784573376376,-0.04176322996819519,-1.6455131470703503
667,1.7013088762388384e-15,75.24274393143878,-10.288605750692005,-0.041726003975255534,-1.6366262880173974
668,1.7050189630122975e-15,75.24274393143878,-10.278627063727017,-0.04168678076760007,-1.6267610350313837
669,1.709885559643567e-15,75.24274393143878,-10.268550901537806,-0.04164714694677909,-1.6168967065849877
670,1.7152124006279485e-15,75.24274393143878,-10.259054551867619,-0.04160953278118078,-1.6079809495678916
671,1.720092258382765e-15,75.24274393143878,-10.250763069044247,-0.041576837264648434,-1.6008959414636401
672,1.7236915435420276e-15,75.24274393143878,-10.244216789106444,-0.0415518832498576,-1.5964101209938868
673,1.7254394474036428e-15,75.24274393143878,-10.239830639947963,-0.04153713397818728,-1.5951213948073792
674,1.7250975081912905e-15,75.24274393143878,-10.237874231860848,-0.04153441868501136,-1.5974024785751813
675,1.7227768938984858e-15,75.24274393143878,-10.23848174337357,-0.041544648157074565,-1.6033577955729879
676,1.7189117263070124e-15,75.24274393143878,-10.24163175821927,-0.0415676460632774,-1.6127985630645547
677,1.714152747481143e-15,75.24274393143878,-10.247114912823536,-0.04160178097671444,-1.6252480617720613
678,1.7092408800435737e-15,75.24274393143878,-10.25454536569642,-0.04164366036606664,-1.639983465707981
679,1.7049823570420025e-15,75.24274393143878,-10.263392126271903,-0.041688574864132105,-1.6561004173931302
680,1.7022312737190605e-15,75.24274393143878,-10.27301323837466,-0.041731478076854275,-1.6725804472471044
681,1.7016684397618894e-15,75.24274393143878,-10.282679061112644,-0.041767857562529424,-1.6883495630945105
682,1.7034297783209492e-15,75.24274393143878,-10.291558797126989,-0.04179417203762291,-1.7023283888617529
683,1.7068896705644017e-15,75.24274393143878,-10.298731356860916,-0.04180785379042762,-1.7134897150988446
684,1.7108576722762479e-15,75.24274393143878,-10.30325641927945,-0.0418072988756303,-1.7209385352255917
685,1.7140888689668374e-15,75.24274393143878,-10.304233669367278,-0.04179190611754493,-1.7240118907778446
686,1.7156718121452518e-15,75.24274393143878,-10.300836250656829,-0.04176171877006356,-1.7223863067795182
687,1.7150795323223274e-15,75.24274393143878,-10.292362795932268,-0.0417170165110457,-1.716180874815983
688,1.7121599721991415e-15,75.24274393143878,-10.278327338705173,-0.04165849432444578,-1.7060503900720945
689,1.7072991910800296e-15,75.24274393143878,-10.25862096690307,-0.04158777512732678,-1.6932640480977952
690,1.7015373425611812e-15,75.24274393143878,-10.233716280135633,-0.04150787832928979,-1.6797406015408682
691,1.6963545246517209e-15,75.24274393143878,-10.204816308538016,-0.041423471801302465,-1.6679974444645513
692,1.69316073931579e-15,75.24274393143878,-10.173938514885435,-0.04134074418528828,-1.661006286981036
693,1.6927114974136057e-15,75.24274393143878,-10.14394133281267,-0.041267321318147324,-1.6619802894485505
694,1.694808850956232e-15,75.24274393143878,-10.118422031192967,-0.041212423961865814,-1.6741048391024835
695,1.6985882258703469e-15,75.24274393143878,-10.101445519589099,-0.04118646783032256,-1.7001987856315213
696,1.7030871298664127e-15,75.24274393143878,-10.09707750159265,-0.04119980151896931,-1.742292007167918
697,1.7074740071117982e-15,75.24274393143878,-10.108701781371476,-0.041261032321462866,-1.8011471310981308
698,1.7109410187262986e-15,75.24274393143878,-10.138226265946955,-0.04137491185715648,-1.8758192589310851
699,1.7127830645860802e-15,75.24274393143878,-10.185345515631898,-0.041539777218663414,-1.963379435062262
700,1.7127691942481382e-15,75.24274393143878,-10.247064858131008,-0.041745439094198304,-2.058910082214165
701,1.7113666695447009e-15,75.24274393143878,-10.31777920683692,-0.041972873076062726,-2.1558366825998547
702,1.7095265716053576e-15,75.24274393143878,-10.390041099545527,-0.04219665997657186,-2.24658673031819
703,1.7081792917489782e-15,75.24274393143878,-10.45581405874557,-0.04238985629306793,-2.3234763291709033
704,1.7077737909884335e-15,75.24274393143878,-10.50784703874107,-0.04252940654195244,-2.37966113193932
705,1.7082052909293904e-15,75.24274393143878,-10.540819869907915,-0.042599822604783316,-2.409977654735111
706,1.709197260327464e-15,75.24274393143878,-10.552048177695637,-0.04259454314530333,-2.411538741488497
707,1.7106655406940054e-15,75.24274393143878,-10.541693256076922,-0.04251604507700393,-2.384002719982633
708,1.7126123903111691e-15,75.24274393143878,-10.512435555715605,-0.04237509410442829,-2.3294900406638637
709,1.7147941908974378e-15,75.24274393143878,-10.468686749912223,-0.04218852420796526,-2.2521927663196157
710,1.7167146284193608e-15,75.24274393143878,-10.41567651983144,-0.04197610534558061,-2.1577938544126716
711,1.7179821031531776e-15,75.24274393143878,-10.358717132230952,-0.04175815287906838,-2.0528224682981757
712,1.7185645660460387e-15,75.24274393143878,-10.302684542006938,-0.04155406485533803,-1.9440245806937082
713,1.7186744820604222e-15,75.24274393143878,-10.25165039426595,-0.041380590473316194,-1.8377901454421717
714,1.7184944768535678e-15,75.24274393143878,-10.208628018825953,-0.04124972796137811,-1.7396721780127482
715,1.7180400685013731e-15,75.24274393143878,-10.175465203138586,-0.04116721724693248,-1.654039385993752
716,1.7172376927086469e-15,75.24274393143878,-10.152946667466685,-0.04113232286996577,-1.5838928739856772
717,1.7160798253534045e-15,75.24274393143878,-10.141023340475401,-0.041139255328815176,-1.530837668855672
718,1.7146508949916326e-15,75.24274393143878,-10.139011148349093,-0.04117971914289105,-1.495168984729431
719,1.7130122509242687e-15,75.24274393143878,-10.145735871864199,-0.04124514149432103,-1.4760355210457075
720,1.7111109904069082e-15,75.24274393143878,-10.1596418141964,-0.04132763224056958,-1.471649386012527
721,1.7087840772350687e-15,75.24274393143878,-10.178867661630663,-0.04141974334121414,-1.4795173915598054
722,1.7058205649587817e-15,75.24274393143878,-10.20135069994307,-0.04151383405828768,-1.4966832045423333
723,1.7020753004877936e-15,75.24274393143878,-10.224974689613594,-0.04160218021212348,-1.519978137557908
724,1.6976578578976646e-15,75.24274393143878,-10.247730489780624,-0.0416780054534432,-1.5462742036056378
725,1.6930901355448485e-15,75.24274393143878,-10.267898072112478,-0.041736618640354335,-1.5727234196119937
726,1.6892324731657903e-15,75.24274393143878,-10.284202418947705,-0.04177615676717644,-1.5969541793944597
727,1.6870479492245198e-15,75.24274393143878,-10.295881322460769,-0.04179762799201842,-1.6171971513022023
728,1.6873986380842941e-15,75.24274393143878,-10.302694002264445,-0.04180404975389592,-1.6323326542349808
729,1.6908027976969633e-15,75.24274393143878,-10.304871810515834,-0.04179922326008925,-1.6418680958050855
730,1.6971843338407692e-15,75.24274393143878,-10.302992720127278,-0.04178667453732716,-1.645866655206678
731,1.7058623483749148e-15,75.24274393143878,-10.297836250591029,-0.04176884173370299,-1.6448529054799943
732,1.7157363980414846e-15,75.24274393143878,-10.290255051316048,-0.041746880465985924,-1.639710977013835
733,1.7254655718050806e-15,75.24274393143878,-10.281085330124629,-0.04172124569364031,-1.6315853357758352
734,1.7337028635847068e-15,75.24274393143878,-10.271140556823168,-0.04169250002211357,-1.621790894284524
735,1.7394986510813711e-15,75.24274393143878,-10.261231552633177,-0.04166186231391926,-1.6117236727910793
736,1.7426288876131186e-15,75.24274393143878,-10.252129576982018,-0.04163126197029213,-1.602759887516414
737,1.7434530487563022e-15,75.24274393143878,-10.244499807551703,-0.041602924112251236,-1.596147076477507
738,1.742456023923584e-15,75.24274393143878,-10.238839158778887,-0.041578923491884315,-1.5928989977954209
739,1.7400322117713102e-15,75.24274393143878,-10.235438327066735,-0.04156092544857148,-1.5937079432045982
740,1.736545849142796e-15,75.24274393143878,-10.234400229510674,-0.04155003609908075,-1.5988897626537846
741,1.7322889286529101e-15,75.24274393143878,-10.235668589876497,-0.04154688259711175,-1.6083703549973658
742,1.727329473858287e-15,75.24274393143878,-10.239038528535257,-0.04155190261313681,-1.6217179062491043
743,1.7214861536649823e-15,75.24274393143878,-10.244209948515985,-0.041565539393291794,-1.6382179011995461
744,1.7144902760908991e-15,75.24274393143878,-10.250865748016153,-0.04158812799524526,-1.6569661851796549
745,1.7062888895393876e-15,75.24274393143878,-10.258705869279396,-0.04161941870744013,-1.676947829892201
746,1.6973362351538933e-15,75.24274393143878,-10.267435742297266,-0.04165811645825963,-1.6970881503794089
747,1.6886204129534908e-15,75.24274393143878,-10.276719773846933,-0.04170197539634531,-1.7162828739368536
748,1.6814243906352255e-15,75.24274393143878,-10.286146769392602,-0.041748209269577216,-1.7334267667374004
749,1.677011631725317e-15,75.24274393143878,-10.295264320448174,-0.04179370333336698,-1.7474531986934092
750,1.6762116785955962e-15,75.24274393143878,-10.303614786620022,-0.04183507074848333,-1.7573751459901739
751,1.6790179358790667e-15,75.24274393143878,-10.31070513129911,-0.04186868999273765,-1.7623185648194906
752,1.684634230161763e-15,75.24274393143878,-10.31596078568228,-0.041890891254419034,-1.761560200872183
753,1.6919258056990945e-15,75.24274393143878,-10.318701836761182,-0.041898446122909806,-1.7545858693897236
754,1.6997254512389734e-15,75.24274393143878,-10.318160914578046,-0.04188892673327669,-1.7411721459465648
755,1.706869555257727e-15,75.24274393143878,-10.313563913225028,-0.041860683385025514,-1.7214791730037249
756,1.712319754403412e-15,75.24274393143878,-10.304216609015587,-0.041812933285706934,-1.6961331618426623
757,1.7155404195520388e-15,75.24274393143878,-10.289576278749566,-0.041746122152306345,-1.6662882925297564
758,1.716836358040258e-15,75.24274393143878,-10.269373862360318,-0.04166225069259628,-1.6336699956491658
759,1.7172041842475843e-15,75.24274393143878,-10.24377415915179,-0.04156494962193261,-1.6005897175166726
760,1.7176758056966163e-15,75.24274393143878,-10.213516213812012,-0.04145916118036682,-1.5699093121599108
761,1.7187045200041302e-15,75.24274393143878,-10.180011723023446,-0.04135073469337488,-1.5449377120160341
762,1.7201506269123537e-15,75.24274393143878,-10.145372796305825,-0.04124640003520226,-1.529251920552862
763,1.7217330617193996e-15,75.24274393143878,-10.112397812988561,-0.0411539869275179,-1.5264485467348647
764,1.723276510733804e-15,75.24274393143878,-10.084547028831157,-0.04108266931082051,-1.5398393491104585
765,1.7245143558023207e-15,75.24274393143878,-10.065789331524792,-0.041042967205188574,-1.5720954721429494
766,1.7249218171437756e-15,75.24274393143878,-10.060200011946854,-0.041045908055782225,-1.6248479581510045
767,1.7239605475476953e-15,75.24274393143878,-10.071327626712245,-0.041101280841764176,-1.6982782786039912
768,1.721470233507427e-15,75.24274393143878,-10.101402487434642,-0.041215364657732505,-1.7907633727508696
769,1.7177370942696236e-15,75.24274393143878,-10.15053823141911,-0.04138827536686871,-1.8986643403833539
770,1.7132680222877279e-15,75.24274393143878,-10.216168885092209,-0.041611422517707476,-2.0163516431411144
771,1.7086414499242996e-15,75.24274393143878,-10.292961307142722,-0.041866435028080864,-2.1365307328682555
772,1.704485163136672e-15,75.24274393143878,-10.373400328384568,-0.042127059470825075,-2.250877040268839
773,1.701409111874051e-15,75.24274393143878,-10.449002857038039,-0.042363849559248205,-2.350908767209054
774,1.6998873240088197e-15,75.24274393143878,-10.51175966639217,-0.04254947140377582,-2.4289460996787264
775,1.7001380043476057e-15,75.24274393143878,-10.55539295882124,-0.04266299694998377,-2.478983623223006
776,1.7020588858919835e-15,75.24274393143878,-10.576220009827214,-0.0426928855653073,-2.497338863295532
777,1.7052515246584542e-15,75.24274393143878,-10.573486120494731,-0.042638242473391416,-2.4829894945847957
778,1.7090397187469279e-15,75.24274393143878,-10.549141292954621,-0.04250811458063628,-2.437565942365033
779,1.7125144455547567e-15,75.24274393143878,-10.507195916619269,-0.04231924314283487,-2.365029186268342
780,1.7147565905458165e-15,75.24274393143878,-10.452872389580262,-0.042092839373690065,-2.2711216368196396
781,1.7151464474654853e-15,75.24274393143878,-10.39181733162959,-0.04185137313049983,-2.1627055318373007
782,1.7135602792543372e-15,75.24274393143878,-10.329504935895311,-0.04161645899054223,-2.0470800605767105
783,1.710449506965661e-15,75.24274393143878,-10.270751231105107,-0.04140757736656474,-1.9313356629870309
784,1.7068702539884224e-15,75.24274393143878,-10.2193343607254,-0.04124063021648186,-1.821806936958127
785,1.7043216405850705e-15,75.24274393143878,-10.177832047243527,-0.04112638970019585,-1.723683048913053
786,1.704192271482941e-15,75.24274393143878,-10.14767658661627,-0.04106939438450553,-1.6407906730058164
787,1.7070872968048704e-15,75.24274393143878,-10.1293355993751,-0.04106756329480077,-1.57552100209896
788,1.7126136381717768e-15,75.24274393143878,-10.122507806510669,-0.04111315134097218,-1.5288580864574528
789,1.7196759809080808e-15,75.24274393143878,-10.12624139950425,-0.041195022582383015,-1.500476092107964
790,1.7268117171734615e-15,75.24274393143878,-10.139009240346352,-0.04130083522063166,-1.4888988910752978
791,1.7324027228151208e-15,75.24274393143878,-10.15881576109708,-0.04141840592880695,-1.4917248808721268
792,1.735075841438753e-15,75.24274393143878,-10.183333015471428,-0.041536637494209404,-1.5059034958128534
793,1.734270295314682e-15,75.24274393143878,-10.210080748212938,-0.04164597715379143,-1.5280382107523096
794,1.7304004910325497e-15,75.24274393143878,-10.236656731481414,-0.04173851384602953,-1.5546892333549513
795,1.7244596661927629e-15,75.24274393143878,-10.260946380181188,-0.04180846034732446,-1.5826497958504995
796,1.7176117412667523e-15,75.24274393143878,-10.28128391814685,-0.04185300881373032,-1.6091772597312752
797,1.7110894115864305e-15,75.24274393143878,-10.296569323604366,-0.04187277871368854,-1.6321605462772095
798,1.706147919675171e-15,75.24274393143878,-10.306306840687714,-0.04187142276355639,-1.6502015563588739
799,1.7037638991931233e-15,75.24274393143878,-10.310577619393941,-0.0418544082041604,-1.6626069135806079
800,1.7041363715096573e-15,75.24274393143878,-10.309961729903065,-0.04182745472424815,-1.6693127997419779
801,1.706502743855169e-15,75.24274393143878,-10.305381868078769,-0.041795343219054835,-1.6707709406604727
802,1.709632107674432e-15,75.24274393143878,-10.297921679108052,-0.04176141924995932,-1.66781531401274
803,1.7125258547675485e-15,75.24274393143878,-10.288687719028943,-0.04172774414239869,-1.6615214229385933
804,1.7145753355935385e-15,75.24274393143878,-10.278702320924621,-0.04169548507817857,-1.6530707086779102
805,1.7152686336198309e-15,75.24274393143878,-10.268835238400609,-0.04166517961489982,-1.6436369874555097
806,1.7142317117326809e-15,75.24274393143878,-10.259777373677144,-0.04163720448451611,-1.6343033199577714
807,1.7117066000792342e-15,75.24274393143878,-10.252022802459107,-0.041612443526418026,-1.6260068447520302
808,1.7086450168993396e-15,75.24274393143878,-10.245890978797066,-0.041592396793635814,-1.6195080560417277
809,1.7061450623466674e-15,75.24274393143878,-10.241596600407206,-0.04157867722073274,-1.615373816676316
810,1.7049056397430853e-15,75.24274393143878,-10.239287064145817,-0.0415724224743545,-1.613958545116159
811,1.705099323878563e-15,75.24274393143878,-10.239033141405578,-0.04157388018981296,-1.6153831253140785
812,1.706453486521999e-15,75.24274393143878,-10.240808271212241,-0.041582501773940066,-1.6195225875934456
813,1.708379518507366e-15,75.24274393143878,-10.244466846622037,-0.041597456239117606,-1.62601026941019
814,1.7102124823467849e-15,75.24274393143878,-10.249755637940424,-0.041617841147413855,-1.634264347072595
815,1.711561266076977e-15,75.24274393143878,-10.256344128684447,-0.0416424855133522,-1.6435369937065936
816,1.7125418089361707e-15,75.24274393143878,-10.263807017302062,-0.04166974516535011,-1.6529762256058191
817,1.7136027200681213e-15,75.24274393143878,-10.271584752130943,-0.04169739123802606,-1.6616913149571684
818,1.7150377608224263e-15,75.24274393143878,-10.278968745619409,-0.041722717493396136,-1.6688177406957874
819,1.7167724255589664e-15,75.24274393143878,-10.285096339511709,-0.041742861312585464,-1.673579987465664
820,1.7186656186188483e-15,75.24274393143878,-10.288968650832214,-0.04175496043420254,-1.6753559899089712
821,1.7206947626218728e-15,75.24274393143878,-10.289497063436261,-0.04175604983021754,-1.6737509057966997
822,1.722615268571063e-15,75.24274393143878,-10.285574808136706,-0.04174296975096972,-1.668689300255436
823,1.723710784329353e-15,75.24274393143878,-10.27623823456322,-0.04171269426031895,-1.6605304717628815
824,1.7232096209435992e-15,75.24274393143878,-10.2609159990525,-0.04166340748014225,-1.6501892557544249
825,1.7209219592702506e-15,75.24274393143878,-10.239663536080721,-0.04159572343452821,-1.6392229779681384
826,1.7173217845335755e-15,75.24274393143878,-10.21334193086521,-0.04151310992167533,-1.629848204951062
827,1.7131012255342666e-15,75.24274393143878,-10.183728064932385,-0.04142181549846326,-1.6248641078062558
828,1.7088699413248299e-15,75.24274393143878,-10.153525515947582,-0.041330917096056054,-1.627470324174758
829,1.7052206895558118e-15,75.24274393143878,-10.126278856868856,-0.04125210825721643,-1.6409766704129212
830,1.7027606743017894e-15,75.24274393143878,-10.106134784354174,-0.04119868935195714,-1.6684072064637125
831,1.7018957705993898e-15,75.24274393143878,-10.097365055780546,-0.0411836695890368,-1.7120198017618333
832,1.7026249461340853e-15,75.24274393143878,-10.103693867762345,-0.041217360980842326,-1.7728011106975636
833,1.7046315188053707e-15,75.24274393143878,-10.127521699290774,-0.041305340422875515,-1.8500254335507462
834,1.7075348888798771e-15,75.24274393143878,-10.169160827553158,-0.04144711011046693,-1.9409764664596874
835,1.7109066291794413e-15,75.24274393143878,-10.226323982778666,-0.04163487055265123,-2.040929432902879
836,1.714083471558101e-15,75.24274393143878,-10.294110729438097,-0.04185259140516607,-2.1434564886211875
837,1.7162300723959075e-15,75.24274393143878,-10.365604594971227,-0.04207701936384177,-2.2410486636979194
838,1.7167309681649382e-15,75.24274393143878,-10.433005304079918,-0.042281352005079584,-2.325967581584276
839,1.7154829161832151e-15,75.24274393143878,-10.48895246044698,-0.04243999781888142,-2.3911750958846674
840,1.7128755388297828e-15,75.24274393143878,-10.527663913746936,-0.04253299834293399,-2.431174699933392
841,1.7097356963721837e-15,75.24274393143878,-10.545729065086704,-0.042549836305010476,-2.442633574105436
842,1.7073231596686361e-15,75.24274393143878,-10.542439523945252,-0.04249133260976797,-2.424695348372203
843,1.7070067390221622e-15,75.24274393143878,-10.519566644834601,-0.04236826417978164,-2.3789461371415572
844,1.7095918688139799e-15,75.24274393143878,-10.480731169931394,-0.04219794219040239,-2.309077123344981
845,1.714877417777391e-15,75.24274393143878,-10.430634154950647,-0.042000885694765525,-2.220351775021036
846,1.7217960341056814e-15,75.24274393143878,-10.374366624363416,-0.04179795621380615,-2.118996881024186
847,1.7288367398842557e-15,75.24274393143878,-10.316893211596698,-0.041607782313810515,-2.0116035257267626
848,1.7343585873554723e-15,75.24274393143878,-10.262634099252079,-0.0414451441504568,-1.9045796563217023
849,1.7368994744664038e-15,75.24274393143878,-10.215110378841155,-0.041320436622020965,-1.8036809192931234
850,1.7356656887325424e-15,75.24274393143878,-10.176780581871103,-0.04123940859767811,-1.713655650595934
851,1.7308591977115974e-15,75.24274393143878,-10.149097053827683,-0.041202975409128394,-1.6380276454773566
852,1.7235169109368715e-15,75.24274393143878,-10.13265229635167,-0.04120751140623344,-1.5790057795945436
853,1.715106655779878e-15,75.24274393143878,-10.12731202513812,-0.04124583021781621,-1.537486801689211
854,1.7071965812301882e-15,75.24274393143878,-10.132280649296488,-0.04130877765879988,-1.5131218194356146
855,1.7012474840006965e-15,75.24274393143878,-10.14612360800533,-0.0413868448034349,-1.504442468179048
856,1.6983863351006212e-15,75.24274393143878,-10.166849820920639,-0.04147115350854023,-1.5090583231596768
857,1.698987632599453e-15,75.24274393143878,-10.19207476409494,-0.04155388793890453,-1.5239213709499484
858,1.7023668680045685e-15,75.24274393143878,-10.219228212319672,-0.04162851964504076,-1.5456350180351632
859,1.70715613962223e-15,75.24274393143878,-10.245807991083765,-0.04169014282026489,-1.5707802545036302
860,1.712122874177231e-15,75.24274393143878,-10.269624235884462,-0.041735985255524154,-1.5962220326276173
861,1.7165170405043865e-15,75.24274393143878,-10.288970608604371,-0.04176547335389442,-1.619354465101925
862,1.7197507908171195e-15,75.24274393143878,-10.302739102379931,-0.0417797167689029,-1.6382580850965227
863,1.721235085418635e-15,75.24274393143878,-10.310464012580747,-0.04178113671777734,-1.6517623815665394
864,1.7208505875045567e-15,75.24274393143878,-10.31227624741496,-0.04177307206299654,-1.6594261959322698
865,1.7193745290209035e-15,75.24274393143878,-10.308813818282632,-0.0417588314807583,-1.6614591537278678
866,1.7181243515372258e-15,75.24274393143878,-10.301097054049267,-0.041740899663051285,-1.6586008022891374
867,1.7181196752890442e-15,75.24274393143878,-10.290378800540104,-0.04172100775509624,-1.6519708379282616
868,1.7195487952795722e-15,75.24274393143878,-10.278026092678388,-0.04170066980469938,-1.6429078525057959
869,1.7218139947177339e-15,75.24274393143878,-10.26541579446576,-0.04168153251748687,-1.6328103982878286
870,1.72389415535319e-15,75.24274393143878,-10.253814103394635,-0.041665219290827324,-1.6229933982516502
871,1.7247866632468152e-15,75.24274393143878,-10.244275932336253,-0.041652861351555666,-1.614574747392221
872,1.723961867208888e-15,75.24274393143878,-10.237568260083552,-0.04164483524967051,-1.6083988276264238
873,1.7216505295426103e-15,75.24274393143878,-10.234129114649264,-0.041640876887446505,-1.6049978310329531
874,1.718666862444096e-15,75.24274393143878,-10.234096828986745,-0.041640458357448555,-1.6045862500262933
875,1.7157970370061882e-15,75.24274393143878,-10.237348177202584,-0.0416432255211598,-1.6070720984179678
876,1.7133657978652306e-15,75.24274393143878,-10.243492069042984,-0.041649053830862634,-1.612074790436503
877,1.7114471407242123e-15,75.24274393143878,-10.251867967651647,-0.041657682587538124,-1.6189575917620358
878,1.7102107189978407e-15,75.24274393143878,-10.261572246444794,-0.041668398754493595,-1.626879132283028
879,1.7097373860402959e-15,75.24274393143878,-10.271509440388218,-0.04167985885437385,-1.6348573087779876
880,1.7096659122983863e-15,75.24274393143878,-10.28046615989991,-0.04168999939793208,-1.6418421655975206
881,1.7093781831143326e-15,75.24274393143878,-10.287157938230246,-0.04169613076988888,-1.6468053162398226
882,1.7085335938714727e-15,75.24274393143878,-10.290269307905357,-0.04169504153337104,-1.6488629399453125
883,1.7072461264436999e-15,75.24274393143878,-10.288573996990603,-0.04168329850554614,-1.6474376573763259
884,1.705800374468967e-15,75.24274393143878,-10.281107312048407,-0.041658057188069565,-1.6424320456126646
885,1.7044105367155142e-15,75.24274393143878,-10.267324495019725,-0.04161771012382113,-1.6343748630153783
886,1.703306090264902e-15,75.24274393143878,-10.24724458224848,-0.04156200666180777,-1.624514991177295
887,1.7028869297787301e-15,75.24274393143878,-10.221572165509214,-0.04149245526435363,-1.6148469217410484
888,1.7035794901393677e-15,75.24274393143878,-10.191809276328916,-0.04141323797828678,-1.6080531112994032
889,1.7054835554512409e-15,75.24274393143878,-10.160361288489653,-0.04133189600562668,-1.6073456397826422
890,1.7083183913126504e-15,75.24274393143878,-10.130534891146686,-0.041259131596636626,-1.6161893788336585
891,1.711768177467447e-15,75.24274393143878,-10.10634344929605,-0.04120750490969599,-1.6379121192829635
892,1.7156636497205185e-15,75.24274393143878,-10.0921189521758,-0.04118949443839182,-1.675236991997466
893,1.719733469204813e-15,75.24274393143878,-10.091925648835975,-0.04121551848936285,-1.7297853337928972
894,1.7233813236069617e-15,75.24274393143878,-10.108821409279042,-0.041291969236469224,-1.801612151415963
895,1.7258763275494675e-15,75.24274393143878,-10.144076761999012,-0.041419559758155776,-1.8888551814099566
896,1.7267117323142393e-15,75.24274393143878,-10.196486785210249,-0.04159255219415949,-1.9875866646811926
897,1.7257295814912984e-15,75.24274393143878,-10.262049554361855,-0.04179870632227319,-2.091954181851742
898,1.7231511083477133e-15,75.24274393143878,-10.334302130520015,-0.042019576824772226,-2.1946630714968642
899,1.719779198590457e-15,75.24274393143878,-10.405316912598645,-0.04223179644831786,-2.287769247996652
900,1.716990426357618e-15,75.24274393143878,-10.467103328750344,-0.042410411450893575,-2.3636524119462154
901,1.7161469041262283e-15,75.24274393143878,-10.513034176679056,-0.042533741531442994,-2.415974715527733
902,1.717872864010048e-15,75.24274393143878,-10.538873653859783,-0.04258760787191899,-2.44042914314668
903,1.721789381219469e-15,75.24274393143878,-10.543177641753358,-0.04256746863091677,-2.4351512725775337
904,1.7267348105226291e-15,75.24274393143878,-10.527104928030793,-0.04247837116856205,-2.400770305994851
905,1.7311766582864628e-15,75.24274393143878,-10.49383330633803,-0.042333026977270365,-2.340161192046428
906,1.733649840273784e-15,75.24274393143878,-10.447863817863059,-0.042148782304503044,-2.2579989058615375
907,1.7331849930180937e-15,75.24274393143878,-10.394365555776806,-0.04194469267085365,-2.16019878227857
908,1.7295846890329888e-15,75.24274393143878,-10.338507472304963,-0.04173934013579178,-2.053297776253951
909,1.723448464230888e-15,75.24274393143878,-10.28482823527937,-0.041549305226677165,-1.9438425646993938
910,1.716020588105236e-15,75.24274393143878,-10.236832347470317,-0.04138823437839634,-1.8378682030837665
911,1.7088765540399347e-15,75.24274393143878,-10.196884178343096,-0.041266369060410354,-1.7405233381928764
912,1.703499206357219e-15,75.24274393143878,-10.166336924650391,-0.04118993283375552,-1.6558440995871362
913,1.7009059586702203e-15,75.24274393143878,-10.145752327554865,-0.041160210327847876,-1.586643844143433
914,1.7013256389733385e-15,75.24274393143878,-10.135064216411074,-0.04117319758450597,-1.534486830393639
915,1.7040012166944526e-15,75.24274393143878,-10.13368462620319,-0.04122063826675455,-1.4997320899325626
916,1.707481165758198e-15,75.24274393143878,-10.140599944021947,-0.04129214085713691,-1.4816389544758666
917,1.7103675923350806e-15,75.24274393143878,-10.154434744485116,-0.04137713241276292,-1.4785233377442821
918,1.7118341338318383e-15,75.24274393143878,-10.173510945043072,-0.041465763780260206,-1.487959928981759
919,1.7115446819629028e-15,75.24274393143878,-10.195950716180567,-0.04154930441864258,-1.507022984794443
920,1.7094925679463119e-15,75.24274393143878,-10.219794707652575,-0.04162078301581508,-1.5325453780100526
921,1.7062334243421195e-15,75.24274393143878,-10.243133642464423,-0.0416756500644352,-1.5613739553220918
922,1.7031305350608177e-15,75.24274393143878,-10.264265723285044,-0.04171221168595052,-1.5906026737109669
923,1.7020394482501318e-15,75.24274393143878,-10.28183851502636,-0.041731721973210206,-1.6177634353807604
924,1.7045003460763338e-15,75.24274393143878,-10.29496267624134,-0.04173773762368543,-1.6409578234215607
925,1.7110125322195427e-15,75.24274393143878,-10.303275447450881,-0.041734924799541925,-1.658920224155583
926,1.7208694893693132e-15,75.24274393143878,-10.306898279395693,-0.04172781463883463,-1.6710140887470706
927,1.7325060630991317e-15,75.24274393143878,-10.306327068940274,-0.0417196354487437,-1.677178539621198
928,1.7439385866900607e-15,75.24274393143878,-10.302314822598875,-0.041711806990014054,-1.6778438346736189
929,1.753074872288637e-15,75.24274393143878,-10.295741170136251,-0.041704463887558926,-1.6738245439688755
930,1.7580474184855266e-15,75.24274393143878,-10.287499358976977,-0.04169718418798449,-1.6661994479090378
931,1.7577241578482475e-15,75.24274393143878,-10.278419296999116,-0.04168942746543357,-1.656189600934974
932,1.7521749804053297e-15,75.24274393143878,-10.26919839977094,-0.04168087231424838,-1.6450440703330782
933,1.7426872630780244e-15,75.24274393143878,-10.260380738048017,-0.04167156071837243,-1.6339426210712464
934,1.731288619504853e-15,75.24274393143878,-10.252402031548597,-0.041661931353252,-1.623919098549632
935,1.7200783739825797e-15,75.24274393143878,-10.245624033584,-0.0416528249114906,-1.6158045762635247
936,1.7105900915536474e-15,75.24274393143878,-10.24033429336845,-0.0416452026238569,-1.6101946078016915
937,1.7034003212819619e-15,75.24274393143878,-10.236727573953196,-0.04163985423436843,-1.6074422093813725
938,1.6982621187400792e-15,75.24274393143878,-10.23487559646669,-0.041637388540882336,-1.6076687802886385
939,1.6946602474246192e-15,75.24274393143878,-10.234737222511312,-0.04163815123112126,-1.6107873927610499
940,1.6922659561720421e-15,75.24274393143878,-10.236206590637885,-0.04164214460369216,-1.6165354947956392
941,1.6909942400916052e-15,75.24274393143878,-10.239129027925483,-0.04164922745570442,-1.6245117079057114
942,1.6908559926398547e-15,75.24274393143878,-10.243303790044902,-0.0416591929868084,-1.6342135684282384
943,1.6918845450148477e-15,75.24274393143878,-10.248510347606071,-0.04167160913329817,-1.6450714137738092
944,1.6941803812745493e-15,75.24274393143878,-10.254529596195345,-0.041685818310243476,-1.6564719101080678
945,1.6978776316492347e-15,75.24274393143878,-10.26115276966571,-0.04170105711177117,-1.6677725585279695
946,1.7028959878351101e-15,75.24274393143878,-10.268155972222223,-0.041716470497146114,-1.6783123017892703
947,1.7087827851884348e-15,75.24274393143878,-10.275221130504542,-0.04173097193014507,-1.6874244322170675
948,1.7149569370366236e-15,75.24274393143878,-10.281878913600448,-0.04174302764221232,-1.6944619380210857
949,1.7210247516292049e-15,75.24274393143878,-10.287506583025015,-0.041750711080196685,-1.6988383428094491
950,1.7267345582793298e-15,75.24274393143878,-10.291329887586155,-0.04175206564758484,-1.7000791729072784
951,1.7317281306280942e-15,75.24274393143878,-10.292439056144355,-0.04174533799420947,-1.6978846843554571
952,1.735479677145407e-15,75.24274393143878,-10.28984694711957,-0.04172897854390303,-1.692208368521754
953,1.7374818303413358e-15,75.24274393143878,-10.282597082022367,-0.04170152132628585,-1.683352897274354
954,1.7374492266306382e-15,75.24274393143878,-10.269951052300916,-0.041661524269381384,-1.6720760119005926
955,1.7354525266393973e-15,75.24274393143878,-10.251609066770621,-0.04160811307219104,-1.659679442161205
956,1.7320431519874734e-15,75.24274393143878,-10.227879187949886,-0.04154199083178548,-1.6480466104810354
957,1.728194716916618e-15,75.24274393143878,-10.199812095113888,-0.041465963630542606,-1.6396102672756179
958,1.7249199783755147e-15,75.24274393143878,-10.16931266654051,-0.041384932284151986,-1.6372422167111351
959,1.7228351416930455e-15,75.24274393143878,-10.139176637246695,-0.04130600032614237,-1.6440563144716311
960,1.721956036150237e-15,75.24274393143878,-10.113016109747786,-0.041238736889061454,-1.6631163331080223
961,1.7217384586528833e-15,75.24274393143878,-10.094998470265832,-0.0411950933002623,-1.6970488869829712
962,1.7213279070330615e-15,75.24274393143878,-10.089338857590443,-0.04118824141169993,-1.747589292187194
963,1.719946899702048e-15,75.24274393143878,-10.099611841262524,-0.041230083094536275,-1.815123061710116
964,1.7171740958397743e-15,75.24274393143878,-10.127954033664345,-0.041328199634736315,-1.8983009351710942
965,1.7129898737524793e-15,75.24274393143878,-10.174256445147671,-0.04148302637814231,-1.9938144558454434
966,1.7078256666834643e-15,75.24274393143878,-10.235621664075389,-0.04168569173953552,-2.0964298728624864
967,1.702676839131057e-15,75.24274393143878,-10.306399930947805,-0.04191746951148028,-2.199353027794853
968,1.6989123669309366e-15,75.24274393143878,-10.378954401765542,-0.04215204561472677,-2.2949206921831506
969,1.6977425269443216e-15,75.24274393143878,-10.445024764057639,-0.0423604251491753,-2.375513391329013
970,1.699748871945832e-15,75.24274393143878,-10.497253926190677,-0.04251655354816559,-2.4345097155233275
971,1.7046475156521742e-15,75.24274393143878,-10.530426628484085,-0.04260199490211492,-2.467093371909381
972,1.711307764873272e-15,75.24274393143878,-10.54217136442708,-0.042608982655066546,-2.4707708281762684
973,1.7181401629995944e-15,75.24274393143878,-10.532989947228018,-0.042540881155140646,-2.4455282077766096
974,1.723691888248367e-15,75.24274393143878,-10.505685751664727,-0.04240978776608158,-2.393644659415366
975,1.7270128239395105e-15,75.24274393143878,-10.464543538487074,-0.042233047424074605,-2.319256195394368
976,1.7276686521033585e-15,75.24274393143878,-10.41456839589626,-0.04203039299421638,-2.2277859605712047
977,1.7257587943254753e-15,75.24274393143878,-10.360849673733812,-0.04182147087652219,-2.1253348073192204
978,1.7221150475527383e-15,75.24274393143878,-10.308016148282421,-0.04162342117128403,-2.018097566619786
979,1.7183018999633641e-15,75.24274393143878,-10.25978018136481,-0.04144951835963338,-1.9118555657697194
980,1.7161476681871981e-15,75.24274393143878,-10.218677974730827,-0.04130930423011189,-1.8115946902980549
981,1.7170449783812052e-15,75.24274393143878,-10.186122376533516,-0.04120912501890321,-1.7212823140289002
982,1.72136400983732e-15,75.24274393143878,-10.162665796655034,-0.041152071000523385,-1.6437902480766113
983,1.7282441121845108e-15,75.24274393143878,-10.148268182504836,-0.04113741328233761,-1.580914356726603
984,1.7359132637250318e-15,75.24274393143878,-10.14248976033591,-0.041160492284552,-1.5334437429919303
985,1.74231456628901e-15,75.24274393143878,-10.144587880489038,-0.041213762680220964,-1.50125297336148
986,1.7456024879855464e-15,75.24274393143878,-10.15353854059033,-0.041288377274272696,-1.4834105432716782
987,1.7444419280000633e-15,75.24274393143878,-10.168057044260223,-0.041375345488811895,-1.4783050366915624
988,1.738426682500878e-15,75.24274393143878,-10.186626783312853,-0.04146620547031272,-1.4837865921158908
989,1.7285365208195844e-15,75.24274393143878,-10.207542529468105,-0.04155350361815166,-1.497325805241146
990,1.7170424468214646e-15,75.24274393143878,-10.229025340578055,-0.041631274811054435,-1.516199821818102
991,1.7066821654372003e-15,75.24274393143878,-10.249381309576718,-0.041695535865220616,-1.537703276400127
992,1.6996036648533959e-15,75.24274393143878,-10.267152143427666,-0.04174440935917842,-1.5593609903270935
993,1.6966709415833508e-15,75.24274393143878,-10.281259847313097,-0.04177782767702485,-1.5791075224296727
994,1.6974483041951555e-15,75.24274393143878,-10.291096866921258,-0.041797189017435614,-1.595402647576226
995,1.700718649067661e-15,75.24274393143878,-10.296524680687153,-0.04180480515572498,-1.6072752532545331
996,1.7050659743873565e-15,75.24274393143878,-10.297818306283723,-0.04180305141484367,-1.614307485902636
997,1.7092347599697696e-15,75.24274393143878,-10.295562123579666,-0.041793796734840724,-1.6165715166276227
998,1.7123264270969422e-15,75.24274393143878,-10.290516250903337,-0.041778352754705816,-1.614535525066493
999,1.7139760372048824e-15,75.24274393143878,-10.283510107632683,-0.0417577508172554,-1.6089606907095877
1000,1.7144777214130473e-15,75.24274393143878,-10.275350534353832,-0.041733133889162874,-1.6007999416417993
1001,1.7146724204123114e-15,75.24274393143878,-10.26673939501262,-0.04170585790228247,-1.5911012556503876
1002,1.7155381874610382e-15,75.24274393143878,-10.258236784284975,-0.04167728034961709,-1.5809206381150647
1003,1.717689342617147e-15,75.24274393143878,-10.250248659606767,-0.04164860398442985,-1.5712491627839598
1004,1.7211024063573976e-15,75.24274393143878,-10.243042881581546,-0.04162079465515085,-1.5629612315775772
1005,1.7252057559461795e-15,75.24274393143878,-10.23682289987811,-0.04159464017561089,-1.5567904229837062
1006,1.7291481620395861e-15,75.24274393143878,-10.231782556058374,-0.04157104325750945,-1.5533226563911673
1007,1.732036504169066e-15,75.24274393143878,-10.228087385404663,-0.041551206214110556,-1.5529894051107822
1008,1.733179215574668e-15,75.24274393143878,-10.22584106021244,-0.04153664947897375,-1.5560577721560773
1009,1.7323729013996714e-15,75.24274393143878,-10.22507471786204,-0.041529185657332914,-1.562626804059254
1010,1.730006790480555e-15,75.24274393143878,-10.225771313540156,-0.041530506909046784,-1.5726399307033219
1011,1.726811647362439e-15,75.24274393143878,-10.227911715308673,-0.04154145685530875,-1.585908901730477
1012,1.7235323283947124e-15,75.24274393143878,-10.231463662636942,-0.04156163803592051,-1.602128589861424
1013,1.7208343491813817e-15,75.24274393143878,-10.236321740627718,-0.04158953044837076,-1.620873961492646
1014,1.7192605193615348e-15,75.24274393143878,-10.24229199641574,-0.04162289864038197,-1.6415920502823926
1015,1.7190625067402456e-15,75.24274393143878,-10.249115723772046,-0.04165923174228906,-1.6636000172516865
1016,1.7201299873886194e-15,75.24274393143878,-10.256489930723445,-0.04169587909023692,-1.6860940486776872
1017,1.7220909715364689e-15,75.24274393143878,-10.26407842087402,-0.04172996924536389,-1.7081765656425256
1018,1.7243618591695665e-15,75.24274393143878,-10.271503555319025,-0.0417585566910729,-1.7289070259962005
1019,1.7261512494071503e-15,75.24274393143878,-10.27836690585607,-0.0417790912902963,-1.7473743828052928
1020,1.7266622889246687e-15,75.24274393143878,-10.284333523998479,-0.04179010074009514,-1.7627782140024106
1021,1.7254270934903086e-15,75.24274393143878,-10.28919414222894,-0.04179183781975413,-1.7744954653970055
1022,1.7224240248365924e-15,75.24274393143878,-10.292855567916028,-0.0417863623543822,-1.782116757263233
1023,1.7180110197124508e-15,75.24274393143878,-10.295294308482747,-0.04177685464345431,-1.785452980610599
1024,1.7129447566583112e-15,75.24274393143878,-10.296483645314192,-0.041766365960664895,-1.7845220004725735
1025,1.708349384350741e-15,75.24274393143878,-10.29632160021822,-0.041756439045689646,-1.7795249487258866
1026,1.7054260154483364e-15,75.24274393143878,-10.294580644471404,-0.04174649962648928,-1.7708135331673536
1027,1.7050050985699367e-15,75.24274393143878,-10.290841249463254,-0.041734270889674255,-1.7588509222409223
1028,1.7071107382754176e-15,75.24274393143878,-10.284451310793814,-0.041716313932838485,-1.7441902179003315
1029,1.7108566903235499e-15,75.24274393143878,-10.274603496254995,-0.04168854949855622,-1.7275028590204131
1030,1.7149505525637365e-15,75.24274393143878,-10.260517123629915,-0.04164736039087513,-1.7096654642450115
1031,1.718400082987007e-15,75.24274393143878,-10.241679519475184,-0.04159090815254816,-1.6918841696172735
1032,1.7207371208061764e-15,75.24274393143878,-10.218105964171684,-0.041520003592834594,-1.6758148123657322
1033,1.721770064261868e-15,75.24274393143878,-10.1905535888952,-0.04143849881988465,-1.6636293488548133
1034,1.7214801353573645e-15,75.24274393143878,-10.160691045879336,-0.0413532320169479,-1.657989345636897
1035,1.7203074327456578e-15,75.24274393143878,-10.131213210093946,-0.041273581419145014,-1.6619006711353215
1036,1.7193166902374222e-15,75.24274393143878,-10.10577865247803,-0.041210744459239335,-1.6784341895333075
1037,1.7198034171428137e-15,75.24274393143878,-10.088694758165555,-0.04117670280700954,-1.7103175058444273
1038,1.7226414003551527e-15,75.24274393143878,-10.08436081937379,-0.04118296838065436,-1.7594304855324898
1039,1.727857368995043e-15,75.24274393143878,-10.096492160815307,-0.04123901012577124,-1.826272883993285
1040,1.7345406126956926e-15,75.24274393143878,-10.127236469879495,-0.04134994897762383,-1.909510072585405
1041,1.741063262536124e-15,75.24274393143878,-10.176363395709652,-0.04151393388843097,-2.0057131484310413
1042,1.7455992026626944e-15,75.24274393143878,-10.240746907695174,-0.04172041083143571,-2.1093906720260267
1043,1.7467016536096363e-15,75.24274393143878,-10.314448628434349,-0.04195020952125016,-2.2133748338658195
1044,1.7436326656765575e-15,75.24274393143878,-10.389557280125766,-0.04217786756595358,-2.309553144335904
1045,1.7364889586736769e-15,75.24274393143878,-10.45755871839509,-0.04237597816820797,-2.3898328974077603
1046,1.7262830689127128e-15,75.24274393143878,-10.510837408619214,-0.04252043523323861,-2.4471525297086654
1047,1.7148591068768172e-15,75.24274393143878,-10.54392795828644,-0.04259482943090987,-2.4763462789380117
1048,1.704463461638402e-15,75.24274393143878,-10.554214825260436,-0.04259267035807715,-2.4747144877192935
1049,1.6969952748020967e-15,75.24274393143878,-10.541994703945074,-0.042517425935208665,-2.4422293326559736
1050,1.693287512673963e-15,75.24274393143878,-10.510013514080601,-0.04238092049095834,-2.3813871953991046
1051,1.693003581532411e-15,75.24274393143878,-10.462711438800767,-0.04220043484501084,-2.296786816337553
1052,1.6952394624730115e-15,75.24274393143878,-10.405477594794977,-0.041995440550985114,-2.194545792745101
1053,1.6991570674190707e-15,75.24274393143878,-10.344023343885985,-0.04178519814320773,-2.081647853469025
1054,1.7041285025706962e-15,75.24274393143878,-10.283774714632832,-0.04158731404243981,-1.9652814589832606
1055,1.7095955524139004e-15,75.24274393143878,-10.229314730043603,-0.04141660738411507,-1.852231309900768
1056,1.7150544331844498e-15,75.24274393143878,-10.184026655267239,-0.04128413777971575,-1.7483859339011767
1057,1.7202193644575628e-15,75.24274393143878,-10.149998626103798,-0.04119654523431492,-1.6583964606174766
1058,1.7250870582964714e-15,75.24274393143878,-10.128149442881613,-0.041155760634057924,-1.5854844267531432
1059,1.7297465208274873e-15,75.24274393143878,-10.118431054997446,-0.04115930549499594,-1.5313737712892863
1060,1.7341748327912321e-15,75.24274393143878,-10.119974494890647,-0.041201147136349356,-1.4963265754910817
1061,1.7382401675988044e-15,75.24274393143878,-10.131214506712162,-0.04127262250750015,-1.4792779366628994
1062,1.741724198735574e-15,75.24274393143878,-10.150049424354215,-0.04136333161933323,-1.4780607573491038
1063,1.7441814461777222e-15,75.24274393143878,-10.174022652908066,-0.04146219263897301,-1.4896966440852697
1064,1.7448882556849253e-15,75.24274393143878,-10.200545173420211,-0.04155859342031124,-1.5107260686966975
1065,1.7431825208518386e-15,75.24274393143878,-10.227143299880114,-0.041643623215284566,-1.5375465988466765
1066,1.738991099689104e-15,75.24274393143878,-10.251662646671907,-0.041711128421278915,-1.5667236113230174
1067,1.7329787423934697e-15,75.24274393143878,-10.272424342900402,-0.041758027981590354,-1.595246349138338
1068,1.7261292237677486e-15,75.24274393143878,-10.288323446076726,-0.04178393535584723,-1.6207101234166967
1069,1.7193282004722437e-15,75.24274393143878,-10.29883539832737,-0.04179056384961019,-1.641412377313192
1070,1.7134170336016378e-15,75.24274393143878,-10.303973266942403,-0.041781236480137256,-1.6563669246831934
1071,1.7092875295969673e-15,75.24274393143878,-10.304218318532527,-0.041760624301012315,-1.6652530749121988
1072,1.7075933382155854e-15,75.24274393143878,-10.300401032482695,-0.041734218603659536,-1.6683185686312578
1073,1.7084343492769623e-15,75.24274393143878,-10.293569536586418,-0.04170711863386158,-1.6662539599078279
1074,1.7113443007320248e-15,75.24274393143878,-10.284859783468686,-0.04168294161474057,-1.6600508995174517
1075,1.7154295199224416e-15,75.24274393143878,-10.275351951878344,-0.04166359432572501,-1.6508574819083373
1076,1.719530929244382e-15,75.24274393143878,-10.265961286352999,-0.041649532599546096,-1.6398493534998966
1077,1.7224848444548421e-15,75.24274393143878,-10.257374618807233,-0.04164021282357749,-1.6281298094528367
1078,1.72347800366414e-15,75.24274393143878,-10.25001137413962,-0.0416346936413263,-1.6166657006481515
1079,1.7222901551896581e-15,75.24274393143878,-10.244052626308473,-0.041632076319429494,-1.6062628078819503
1080,1.7193012579667232e-15,75.24274393143878,-10.239524257246636,-0.04163170728803088,-1.5975696353974629
1081,1.7153650086486555e-15,75.24274393143878,-10.236361608732818,-0.04163313378428012,-1.591088531597384
1082,1.7116340883854171e-15,75.24274393143878,-10.234458373401615,-0.04163567590936977,-1.5871815395942623
1083,1.709364472048995e-15,75.24274393143878,-10.23370572953324,-0.04163809690741631,-1.5860678537742336
1084,1.7096338641853106e-15,75.24274393143878,-10.234015262670187,-0.04163904264394212,-1.5878172566518645
1085,1.712844353743946e-15,75.24274393143878,-10.235358559925755,-0.04163807857466081,-1.5923476783426855
1086,1.7183322812428946e-15,75.24274393143878,-10.237786741185374,-0.04163651201754509,-1.5994248006198988
1087,1.724670224016905e-15,75.24274393143878,-10.241371499463668,-0.04163714464470932,-1.6086588081816036
1088,1.7304391389763626e-15,75.24274393143878,-10.24612045487665,-0.04164278706152796,-1.6195081368185869
1089,1.7345961886946118e-15,75.24274393143878,-10.251916647854664,-0.04165457767094113,-1.631303097917579
1090,1.7363139161007496e-15,75.24274393143878,-10.25848184154671,-0.04167143697570126,-1.6432896000401527
1091,1.7350850658222367e-15,75.24274393143878,-10.26537209960911,-0.04169094277631856,-1.6546823056273163
1092,1.7313276545444045e-15,75.24274393143878,-10.271969079309931,-0.04171062363589633,-1.6647139273329044
1093,1.726639586386622e-15,75.24274393143878,-10.277460472796758,-0.04172834534583321,-1.6726819497384475
1094,1.7231306108142253e-15,75.24274393143878,-10.280888655696895,-0.041741677442116605,-1.6780103063721856
1095,1.7223714480366263e-15,75.24274393143878,-10.28126323254829,-0.041747313435431734,-1.6803339429784152
1096,1.724774171446466e-15,75.24274393143878,-10.277671623712516,-0.04174113868544576,-1.6795954252489265
1097,1.7296074533909351e-15,75.24274393143878,-10.269389030859037,-0.041718834957294296,-1.676137302480727
1098,1.7353513587273473e-15,75.24274393143878,-10.255991199769882,-0.04167697497186817,-1.6707782089545948
1099,1.740153457109276e-15,75.24274393143878,-10.23748300587159,-0.041614301158257955,-1.6648679775750126
1100,1.7423397781763568e-15,75.24274393143878,-10.21447160590011,-0.0415327558287224,-1.660309098339572
1101,1.7408747045866394e-15,75.24274393143878,-10.188312318615472,-0.0414381523545078,-1.6595104613771512
1102,1.7356098509023644e-15,75.24274393143878,-10.161148709829273,-0.04134017695887313,-1.6652439779254633
1103,1.7272807167090877e-15,75.24274393143878,-10.1358631046658,-0.04125157661221413,-1.6804022355872446
1104,1.7173432324568586e-15,75.24274393143878,-10.1159176923013,-0.04118696483079338,-1.707669957020119
1105,1.7077027424576072e-15,75.24274393143878,-10.105040262141534,-0.04116118853814201,-1.749132217216621
1106,1.7001922538107323e-15,75.24274393143878,-10.10675466213994,-0.04118702540652148,-1.8058591846509713
1107,1.6958509814685004e-15,75.24274393143878,-10.123743288095334,-0.04127270775879336,-1.877520648853777
1108,1.6945892347445571e-15,75.24274393143878,-10.157111892319316,-0.041419474831673166,-1.9621017657024213
1109,1.6956315721315874e-15,75.24274393143878,-10.20577773402854,-0.04161927499664104,-2.055804665080575
1110,1.6982340495858877e-15,75.24274393143878,-10.26620730371189,-0.0418541022864912,-2.1532030325576303
1111,1.7019252095091377e-15,75.24274393143878,-10.332690601881609,-0.04209839555279619,-2.247676324534021
1112,1.706265963877981e-15,75.24274393143878,-10.398206910953867,-0.042323698196512965,-2.3320920260987683
1113,1.7107441776546283e-15,75.24274393143878,-10.455635171216716,-0.04250362046165762,-2.399629922121018
1114,1.715084509762177e-15,75.24274393143878,-10.498930248145609,-0.042618013923880246,-2.44459395987555
1115,1.7195232017785954e-15,75.24274393143878,-10.52398920521668,-0.04265571313483219,-2.4630661671904295
1116,1.7245890912361413e-15,75.24274393143878,-10.529070654100758,-0.042615131798297776,-2.453308154902554
1117,1.7306307704477846e-15,75.24274393143878,-10.5148148675117,-0.04250320911014403,-2.4158771285962004
1118,1.7376132813452404e-15,75.24274393143878,-10.483956307896287,-0.042333884729309657,-2.353463724960888
1119,1.7451696992835681e-15,75.24274393143878,-10.440708891486164,-0.04212599191466564,-2.2704880324137178
1120,1.7525023327402322e-15,75.24274393143878,-10.389930237530878,-0.04190018929682955,-2.172537543884755
1121,1.7581927840727512e-15,75.24274393143878,-10.336370217167573,-0.04167613716772794,-2.065763231729273
1122,1.760457290819807e-15,75.24274393143878,-10.284195857221562,-0.041471215061161644,-1.95632770071114
1123,1.7579505959679968e-15,75.24274393143878,-10.236774151267603,-0.04130010621067933,-1.849952691741648
1124,1.7505216719050661e-15,75.24274393143878,-10.196599836250476,-0.04117383261801741,-1.7515778036573888
1125,1.739361932121343e-15,75.24274393143878,-10.165268828070339,-0.04109815837364306,-1.6651271880930154
1126,1.7265999878482228e-15,75.24274393143878,-10.143527000352147,-0.04107248255928606,-1.5933849568878133
1127,1.7147091263160903e-15,75.24274393143878,-10.131440676600889,-0.04109046650286256,-1.5379750740586282
1128,1.705861744105026e-15,75.24274393143878,-10.12858166536517,-0.04114253035615216,-1.499417287502163
1129,1.7013350198753243e-15,75.24274393143878,-10.13412736703538,-0.041218737542463676,-1.4772239993102019
1130,1.7012522576855055e-15,75.24274393143878,-10.146899599782866,-0.04131060975812551,-1.470022136183776
1131,1.704706348085006e-15,75.24274393143878,-10.165376436741315,-0.04141146817050857,-1.475701011363124
1132,1.710160086851468e-15,75.24274393143878,-10.18772961038487,-0.041515394410300964,-1.4915946896219534
1133,1.7160691642335789e-15,75.24274393143878,-10.211940824064575,-0.04161591803830526,-1.5147034422734478
1134,1.7213608440255628e-15,75.24274393143878,-10.23596634422603,-0.04170611884086648,-1.5419411278761666
1135,1.7253634802168039e-15,75.24274393143878,-10.257923577940971,-0.04178010344048115,-1.57037997555909
