,time,sample_rate,Red,Green,Blue
0,0.04244647664720024,74.97625621181814,-0.7243457964987725,-0.044937138011948353,-0.15941539179468717
1,0.04244639663615262,74.97625621181814,-0.7195084329047755,-0.044915667252205395,-0.14497914627699113
2,0.042446317696161244,74.97625621181814,-0.7149060370033411,-0.04488862318414628,-0.13096371197112025
3,0.042446239996160505,74.97625621181814,-0.7107139928600206,-0.04485069023369208,-0.11767857524118228
4,0.042446163581888366,74.97625621181814,-0.7070540773803369,-0.04480079738483385,-0.10536808617784567
5,0.042446088394414265,74.97625621181814,-0.7040020333081082,-0.04474156617794272,-0.09420522955233962
6,0.04244601429650275,74.97625621181814,-0.701590488233531,-0.044677779661325016,-0.08429101750412492
7,0.042445941101451334,74.97625621181814,-0.6998105735613144,-0.04461515459778066,-0.07565276770776559
8,0.04244586860031062,74.97625621181814,-0.6986194470215464,-0.04455950367963503,-0.06824078981798165
9,0.042445796584855255,74.97625621181814,-0.6979485115154758,-0.04451580548646275,-0.061928896152641896
10,0.04244572486494114,74.97625621181814,-0.6977005934634043,-0.044487067359838844,-0.056524276035098235
11,0.0424456532799068,74.97625621181814,-0.6977391480529803,-0.04447349664114424,-0.05178870811907891
12,0.04244558170441777,74.97625621181814,-0.6978888511900154,-0.04447281208260409,-0.047469173828818635
13,0.04244551004962615,74.97625621181814,-0.6979600283745009,-0.044481892415117325,-0.04333155547987848
14,0.04244543826075891,74.97625621181814,-0.697786529300254,-0.04449879411912707,-0.03918738888777944
15,0.04244536631230381,74.97625621181814,-0.6972546515896801,-0.04452371450229434,-0.03490543556708833
16,0.04244529420188158,74.97625621181814,-0.6963138021578112,-0.04455824638233861,-0.030407971385355784
17,0.04244522194372553,74.97625621181814,-0.6949798481663503,-0.04460362011957268,-0.025657523497179733
18,0.04244514956247744,74.97625621181814,-0.6933435060763302,-0.04465922770613108,-0.020637332565702896
19,0.042445077087785485,74.97625621181814,-0.6915808384301524,-0.0447220530356585,-0.015324256331461918
20,0.042445004549981076,74.97625621181814,-0.6899543889849907,-0.04478681267947949,-0.009654115279688926
21,0.04244493197693409,74.97625621181814,-0.6888001367001196,-0.044846511108359924,-0.0034868992028286422
22,0.042444859392047674,74.97625621181814,-0.6885037135927363,-0.04489322381382618,0.003413023643048324
23,0.042444786813257834,74.97625621181814,-0.6894698468393736,-0.04491892523134145,0.011366381398303588
24,0.04244471425284625,74.97625621181814,-0.6920840708682869,-0.04491628654603408,0.0207332544944811
25,0.04244464171785219,74.97625621181814,-0.6966628188593117,-0.044879424976043775,0.03184155766322818
26,0.042444569210873265,74.97625621181814,-0.7033925339648307,-0.04480450245664851,0.0449067438164698
27,0.042444496731067476,74.97625621181814,-0.712265123554171,-0.0446901310070769,0.059957411237482675
28,0.042444424275202994,74.97625621181814,-0.7230195380518786,-0.04453771948485279,0.07677639576887431
29,0.042444351838641294,74.97625621181814,-0.7350992238408722,-0.044351845374636246,0.09486376973964282
30,0.04244427941617803,74.97625621181814,-0.7476363446475166,-0.044140602999655,0.11342428457618364
31,0.042444207002701226,74.97625621181814,-0.7594767051042897,-0.043915951749584056,0.13137810861415586
32,0.04244413459365521,74.97625621181814,-0.7692610233409202,-0.04369402628932409,0.1473949641912638
33,0.04244406218532066,74.97625621181814,-0.7755727898487069,-0.04349511555188442,0.1599566492456699
34,0.042443989774935874,74.97625621181814,-0.7771462518137999,-0.04334306738831166,0.16745532166707963
35,0.04244391736069242,74.97625621181814,-0.7731037404533121,-0.0432641282387223,0.16832852116357688
36,0.04244384494164099,74.97625621181814,-0.763166140455725,-0.04328499980583764,0.16121680128615468
37,0.04244377251754186,74.97625621181814,-0.7477627092304736,-0.04342926920180631,0.14511859777807168
38,0.04244370008868981,74.97625621181814,-0.727986234308231,-0.0437118090816544,0.11951909682292035
39,0.04244362765573747,74.97625621181814,-0.7054087180219396,-0.04413273748019789,0.08447827882449804
40,0.04244355521953437,74.97625621181814,-0.6818315652841238,-0.04467367016258624,0.04066750399890198
41,0.042443482780992706,74.97625621181814,-0.6590357325745888,-0.045297636879022066,-0.010656577784782678
42,0.042443410340984984,74.97625621181814,-0.638554653650753,-0.04595190816192403,-0.06774716931394177
43,0.04244333790027447,74.97625621181814,-0.6214880359408228,-0.04657244072249568,-0.12852120617690965
44,0.042443265459475694,74.97625621181814,-0.60841327989619,-0.04708988469112925,-0.19074619155096167
45,0.042443193019040294,74.97625621181814,-0.5994479633711545,-0.04743764594714803,-0.252231963065977
46,0.042443120579262535,74.97625621181814,-0.5944299597794203,-0.04756110678324404,-0.31100198353583497
47,0.04244304814029822,74.97625621181814,-0.5931010879266623,-0.04742647387612633,-0.36541941976466236
48,0.04244297570219158,74.97625621181814,-0.5952013914059465,-0.047028701608764274,-0.4142501337767429
49,0.04244290326490512,74.97625621181814,-0.6004832575336351,-0.04639739582276445,-0.45666188591310575
50,0.042442830828349,74.97625621181814,-0.6087170791455392,-0.04559701374987181,-0.49217423424894285
51,0.04244275839240699,74.97625621181814,-0.6197128998228371,-0.04471709474894723,-0.520575931866221
52,0.04244268595695768,74.97625621181814,-0.6333071034931833,-0.04385344325755852,-0.5418253244556557
53,0.042442613521890195,74.97625621181814,-0.6492662672152296,-0.043088922578914585,-0.5559571300436794
54,0.04244254108711444,74.97625621181814,-0.6671410880024375,-0.04248289009387843,-0.5630276156198604
55,0.04244246865256645,74.97625621181814,-0.6861655568804145,-0.04206998138070708,-0.5631190890688825
56,0.04244239621820976,74.97625621181814,-0.7052655831051589,-0.04186345327807935,-0.5563934127788722
57,0.04244232378403378,74.97625621181814,-0.7231698963819938,-0.04186004496276171,-0.5431598995582052
58,0.04244225135005009,74.97625621181814,-0.738584968503268,-0.04204521642359842,-0.5239252571554219
59,0.04244217891628774,74.97625621181814,-0.7503944891287032,-0.042397060406396604,-0.4994118040895929
60,0.04244210648278812,74.97625621181814,-0.7578386587263052,-0.04288743598934522,-0.4705444901902585
61,0.04244203404960021,74.97625621181814,-0.7606292851318409,-0.04348047710002324,-0.4384104694927478
62,0.04244196161677633,74.97625621181814,-0.7589813945582382,-0.04413016985494779,-0.40419417264549756
63,0.04244188918436888,74.97625621181814,-0.753567894501356,-0.044780404906789945,-0.3690935205994842
64,0.04244181675242788,74.97625621181814,-0.7454024542479923,-0.04537120268853003,-0.3342290571677738
65,0.042441744320999536,74.97625621181814,-0.7356583867757561,-0.0458503072374843,-0.30056316673235456
66,0.04244167189012552,74.97625621181814,-0.7254663309452092,-0.04618383620440763,-0.2688462129027061
67,0.042441599459842876,74.97625621181814,-0.7157591434842435,-0.04636053663717839,-0.23959854440845868
68,0.04244152703018445,74.97625621181814,-0.7072055780258981,-0.04638953325795439,-0.2131260152535371
69,0.04244145460117954,74.97625621181814,-0.7002150572809688,-0.0462946436418619,-0.18955751923508543
70,0.042441382172854744,74.97625621181814,-0.6949663681232829,-0.04610818053094637,-0.1688896776427273
71,0.042441309745234815,74.97625621181814,-0.6914382579036289,-0.045865538466760544,-0.15102640478730475
72,0.042441237318343435,74.97625621181814,-0.6894525850168987,-0.04560041847343798,-0.13580717448975685
73,0.042441164892203884,74.97625621181814,-0.6887386580628916,-0.045340781178823744,-0.12302511615522708
74,0.04244109246683959,74.97625621181814,-0.6890010503159341,-0.045106664435545264,-0.11244010533076795
75,0.04244102004227444,74.97625621181814,-0.6899614095852094,-0.04491040682091324,-0.10379030721248454
76,0.04244094761853301,74.97625621181814,-0.6913675560817361,-0.04475801840113186,-0.09680235955884788
77,0.04244087519564066,74.97625621181814,-0.6929908322641709,-0.04465012782605026,-0.09119960714317811
78,0.04244080277362352,74.97625621181814,-0.6946329059863179,-0.04458250768190175,-0.08670893761123798
79,0.042440730352508386,74.97625621181814,-0.6961417831403892,-0.04454718152516498,-0.08306607996970303
80,0.042440657932322615,74.97625621181814,-0.6974211713110531,-0.04453430464033439,-0.08001792469819394
81,0.04244058551309399,74.97625621181814,-0.6984257054652494,-0.04453412278515614,-0.07732405638624001
82,0.042440513094850564,74.97625621181814,-0.6991513824108906,-0.04453862994003919,-0.07476301713423335
83,0.04244044067762054,74.97625621181814,-0.6996312948826597,-0.04454282751827114,-0.07214392222295218
84,0.04244036826143216,74.97625621181814,-0.6999326786371081,-0.04454496950900383,-0.06931740926467304
85,0.04244029584631361,74.97625621181814,-0.7001427834820649,-0.04454547339792916,-0.0661806717109992
86,0.04244022343229299,74.97625621181814,-0.7003406620034921,-0.044545453830998546,-0.06267743006952091
87,0.04244015101939828,74.97625621181814,-0.7005687529166529,-0.04454591813714603,-0.058797088897848446
88,0.04244007860765733,74.97625621181814,-0.7008221441405045,-0.044547688092005176,-0.05457494485247819
89,0.04244000619709789,74.97625621181814,-0.7010572409857968,-0.04455165509237375,-0.05009127556330934
90,0.04243993378774756,74.97625621181814,-0.7012046905067854,-0.04455894386024336,-0.045465208798779105
91,0.042439861379633875,74.97625621181814,-0.7011783908941817,-0.0445707300145868,-0.04084012757309082
92,0.04243978897278431,74.97625621181814,-0.7008889879195567,-0.04458786653890231,-0.03636068145564601
93,0.04243971656722629,74.97625621181814,-0.7002665487644811,-0.044610667480627676,-0.03214486191370217
94,0.04243964416298722,74.97625621181814,-0.6992797246905321,-0.044638883229952374,-0.028256388256546233
95,0.0424395717600945,74.97625621181814,-0.697937608572268,-0.04467149268643406,-0.02468433406112451
96,0.04243949935857554,74.97625621181814,-0.6962793221485332,-0.0447062687220231,-0.021336983382222032
97,0.042439426958457795,74.97625621181814,-0.6943680556570196,-0.04473976409001174,-0.01805088574173213
98,0.042439354559768716,74.97625621181814,-0.6922985401965106,-0.044768105518728625,-0.014607690542062223
99,0.04243928216253577,74.97625621181814,-0.690213916801109,-0.044788138698591,-0.010750067109162691
100,0.04243920976678644,74.97625621181814,-0.6883211074335962,-0.04479827515285968,-0.006194087934766041
101,0.04243913737254823,74.97625621181814,-0.6868948607569552,-0.04479862981904531,-0.0006409797605791987
102,0.04243906497984866,74.97625621181814,-0.6862676581487777,-0.044790204861381876,0.006207952059794686
103,0.04243899258871526,74.97625621181814,-0.6868086682581193,-0.044773428515626504,0.014631478941532843
104,0.042438920199175584,74.97625621181814,-0.688894252880689,-0.044747015927612196,0.024863942024191055
105,0.04243884781125718,74.97625621181814,-0.6928683834800928,-0.04470784360839021,0.037066982882875764
106,0.042438775424987585,74.97625621181814,-0.6989898931510461,-0.04465168549524896,0.05129837124213569
107,0.04243870304039433,74.97625621181814,-0.707366815072062,-0.044574293588603583,0.0674791491301681
108,0.04243863065750496,74.97625621181814,-0.717884836940475,-0.04447242779664983,0.0853612568907138
109,0.042438558276347,74.97625621181814,-0.7301434364520228,-0.04434472663601874,0.10449801673635228
110,0.042438485896948,74.97625621181814,-0.743416944827728,-0.04419261751870495,0.12421935880307546
111,0.04243841351933548,74.97625621181814,-0.7566575702978726,-0.04402139998592313,0.1436158051270303
112,0.042438341143536965,74.97625621181814,-0.7685525863208273,-0.04384120136560686,0.16153927821594344
113,0.04243826876957999,74.97625621181814,-0.7776411363462103,-0.04366735766449806,0.17662931032507606
114,0.042438196397492085,74.97625621181814,-0.7824891320420152,-0.04352007626946001,0.1873711970644372
115,0.042438124027300766,74.97625621181814,-0.7819106587172314,-0.04342349374040659,0.19219116832986186
116,0.042438051659033554,74.97625621181814,-0.7752049987369157,-0.04340412305090323,0.1895880585616346
117,0.042437979292717976,74.97625621181814,-0.7623468838933181,-0.04348820524471704,0.17828984644501075
118,0.04243790692838154,74.97625621181814,-0.7440521070524863,-0.043697196530215074,0.15741454494611085
119,0.04243783456605176,74.97625621181814,-0.7216840775795941,-0.04404156887974789,0.1266117363037723
120,0.04243776220575616,74.97625621181814,-0.6970435806777707,-0.044514926366473556,0.0861598340808054
121,0.04243768984752225,74.97625621181814,-0.672111200689549,-0.045090744357408494,0.036995303876434585
122,0.04243761749137755,74.97625621181814,-0.648776876179957,-0.04572222414310264,-0.019341142194023744
123,0.04243754513734958,74.97625621181814,-0.6285782491213341,-0.04634498408514685,-0.08083988173682922
124,0.042437472785465884,74.97625621181814,-0.612515004711311,-0.04688363231080996,-0.14521983666431726
125,0.042437400435753975,74.97625621181814,-0.6010176722027241,-0.04726284562555621,-0.2101543924845094
126,0.04243732808824138,74.97625621181814,-0.5940649928258632,-0.04742060017793406,-0.2734834503372403
127,0.04243725574295563,74.97625621181814,-0.5913513050503028,-0.047320008961265904,-0.33336977858267447
128,0.042437183399924236,74.97625621181814,-0.5924119663928535,-0.04695776807500525,-0.38837472277343527
129,0.04243711105917475,74.97625621181814,-0.5967063328137958,-0.04636801999306994,-0.4374595476966189
130,0.04243703872073469,74.97625621181814,-0.6037111435614924,-0.045619351129097686,-0.4799421285835102
131,0.04243696638463158,74.97625621181814,-0.6130266199517395,-0.04480248950385994,-0.5154347748136943
132,0.04243689405089295,74.97625621181814,-0.6244289540340772,-0.04401043819788015,-0.5437695644324221
133,0.042436821719546304,74.97625621181814,-0.6378124143954514,-0.043319131725665525,-0.5649126965346352
134,0.042436749390619165,74.97625621181814,-0.6530430597149002,-0.04277701114983758,-0.5788868816963206
135,0.04243667706413904,74.97625621181814,-0.6698077971766396,-0.04240485235550956,-0.5857343111808538
136,0.04243660474013345,74.97625621181814,-0.6875256721759386,-0.042201914843656665,-0.5855366272037604
137,0.042436532418629935,74.97625621181814,-0.7053368494089294,-0.04215476025481138,-0.5784734567628644
138,0.04243646009965602,74.97625621181814,-0.7221629400937051,-0.04224607757337087,-0.5648827084778043
139,0.04243638778323924,74.97625621181814,-0.7368319679077633,-0.042460640703316614,-0.5452986152420937
140,0.04243631546940712,74.97625621181814,-0.7482501015272001,-0.042786282206931495,-0.5204635669210199
141,0.042436243158187184,74.97625621181814,-0.755583822619319,-0.04321021227611784,-0.4913136613328955
142,0.042436170849606956,74.97625621181814,-0.7584158905970678,-0.043713240399474024,-0.4589357983748377
143,0.04243609854369396,74.97625621181814,-0.7568455899498848,-0.04426489517844139,-0.42450113184386806
144,0.04243602624047572,74.97625621181814,-0.7514931782802812,-0.04482242913651045,-0.38918793647016536
145,0.04243595393997974,74.97625621181814,-0.7433781184334575,-0.04533627567732456,-0.3541063014760822
146,0.042435881642233546,74.97625621181814,-0.7337039354625181,-0.04576073640674838,-0.3202316046947915
147,0.042435809347264666,74.97625621181814,-0.7236380102432858,-0.046064161564664106,-0.28835122461760637
148,0.04243573705510062,74.97625621181814,-0.7141585269559529,-0.046233834176422385,-0.2590303172267577
149,0.04243566476576892,74.97625621181814,-0.7059784569960189,-0.04627519172376281,-0.2326016819834856
150,0.04243559247929708,74.97625621181814,-0.699517206996289,-0.04620737210240001,-0.20917968963367986
151,0.04243552019571263,74.97625621181814,-0.694904027023687,-0.04605733004784749,-0.1886947803494075
152,0.042435447915043084,74.97625621181814,-0.6920242096353143,-0.04585447453111588,-0.17094407020375907
153,0.04243537563731597,74.97625621181814,-0.6906106674735029,-0.04562668495803009,-0.15564899021416215
154,0.042435303362558824,74.97625621181814,-0.6903463057265296,-0.04539748746831187,-0.1425034505245981
155,0.04243523109079918,74.97625621181814,-0.6909293438157449,-0.04518436914469178,-0.13119726430136652
156,0.042435158822064556,74.97625621181814,-0.6920890477429451,-0.04499857954571603,-0.12141521207413082
157,0.0424350865563825,74.97625621181814,-0.6935801667829656,-0.04484607632508437,-0.11282904055295621
158,0.04243501429378052,74.97625621181814,-0.6951851947026749,-0.04472859356228566,-0.10510099874642118
159,0.04243494203428614,74.97625621181814,-0.6967249337798799,-0.04464423842015085,-0.09790456117774912
160,0.04243486977792689,74.97625621181814,-0.6980627642988125,-0.044588021471232496,-0.0909552165878393
161,0.04243479752473028,74.97625621181814,-0.6991013152014558,-0.04455309487116335,-0.08404091349181841
162,0.04243472527472384,74.97625621181814,-0.699782550289498,-0.04453272349426693,-0.07704608094230218
163,0.042434653027935094,74.97625621181814,-0.7000949794461206,-0.04452203087984551,-0.06996572782183126
164,0.04243458078439158,74.97625621181814,-0.7000783245996416,-0.044518397128184534,-0.06290289732473797
165,0.0424345085441208,74.97625621181814,-0.6998142075762979,-0.04452033429623235,-0.056043466987738356
166,0.042434436307150276,74.97625621181814,-0.6994041296346499,-0.04452602816676498,-0.04961286872717052
167,0.042434364073507536,74.97625621181814,-0.6989476855243587,-0.04453297441001664,-0.04382884241722394
168,0.04243429184322008,74.97625621181814,-0.698530581773072,-0.044538923369208915,-0.03886235238985191
169,0.04243421961631545,74.97625621181814,-0.6982186495438091,-0.0445430764750995,-0.03481008841940235
170,0.04243414739282116,74.97625621181814,-0.6980484477446538,-0.04454625551008654,-0.03167847441823495
171,0.042434075172764735,74.97625621181814,-0.6980151434750023,-0.04454978433234738,-0.029382568818125256
172,0.0424340029561737,74.97625621181814,-0.6980687799661938,-0.04455423459970221,-0.027762957691277172
173,0.04243393074307559,74.97625621181814,-0.6981252192545381,-0.0445592703520404,-0.026614952510719936
174,0.042433858533497924,74.97625621181814,-0.698084206350023,-0.04456443948302819,-0.025716451071696345
175,0.04243378632746823,74.97625621181814,-0.6978430289644504,-0.04456994681009662,-0.02484377801457139
176,0.042433714125014024,74.97625621181814,-0.6973064875723786,-0.04457699507015376,-0.02377675014866032
177,0.042433641926162835,74.97625621181814,-0.6964044828629552,-0.044587771873405485,-0.022301957320985975
178,0.04243356973094219,74.97625621181814,-0.6951206752810766,-0.0446049840218508,-0.020218174998276776
179,0.04243349753937961,74.97625621181814,-0.6935194064884636,-0.044630902222959255,-0.01733829699297988
180,0.04243342535150261,74.97625621181814,-0.6917558462995724,-0.04466636121150161,-0.01348134551112134
181,0.042433353167338705,74.97625621181814,-0.6900685560109707,-0.04471016677368687,-0.008456173758637744
182,0.04243328098691543,74.97625621181814,-0.688765506611924,-0.044758881342022355,-0.002045949156904701
183,0.04243320881026031,74.97625621181814,-0.6882116298801318,-0.044806888875182,0.005996467766597231
184,0.04243313663740087,74.97625621181814,-0.688813135845398,-0.04484682278366191,0.015935580529940183
185,0.04243306446836463,74.97625621181814,-0.6909862478659049,-0.044870265435038366,0.02802023455951915
186,0.04243299230317911,74.97625621181814,-0.6951050939547064,-0.044868525984847675,0.0424332456071788
187,0.04243292014187182,74.97625621181814,-0.7014364908480697,-0.04483357485212665,0.05923223853627953
188,0.04243284798447029,74.97625621181814,-0.7100743099289821,-0.044759243737603135,0.07829168764372736
189,0.04243277583100207,74.97625621181814,-0.7208796680850829,-0.04464243840720641,0.09925344675379011
190,0.04243270368149469,74.97625621181814,-0.7334267724845867,-0.044483961125617484,0.12149173628900095
191,0.04243263153597567,74.97625621181814,-0.74696129654109,-0.04428883883667222,0.1440982420144325
192,0.04243255939447254,74.97625621181814,-0.7603915977808475,-0.04406653292713898,0.1658909434164032
193,0.0424324872570128,74.97625621181814,-0.7723360028789784,-0.043831419002150214,0.1854489572597169
194,0.04243241512362397,74.97625621181814,-0.7812395640072453,-0.043603130577714144,0.20117727659751716
195,0.0424323429943336,74.97625621181814,-0.785560535126721,-0.04340600430561606,0.21140602041257914
196,0.042432270869169196,74.97625621181814,-0.7840156530271588,-0.043267678868576,0.21452352785993173
197,0.042432198748158276,74.97625621181814,-0.7758538847948082,-0.04321720775781819,0.20913239001712935
198,0.04243212663132836,74.97625621181814,-0.7610898878420647,-0.0432821553860946,0.19420851089855826
199,0.04243205451870697,74.97625621181814,-0.7406031939096299,-0.04348389506299107,0.16924094331457573
200,0.04243198241032164,74.97625621181814,-0.7160480129825593,-0.043831652880474525,0.1343335165150975
201,0.04243191030619989,74.97625621181814,-0.6895942399987831,-0.044317079388942915,0.09025010298103685
202,0.04243183820636923,74.97625621181814,-0.6635590814751838,-0.04491070689392208,0.038383579609535916
203,0.04243176611085719,74.97625621181814,-0.6400060007149075,-0.04556118265957959,-0.019362522597583032
204,0.04243169401969129,74.97625621181814,-0.6204273471986955,-0.04619920701836564,-0.08076724791662294
205,0.04243162193289906,74.97625621181814,-0.6056224243456514,-0.046747568637347796,-0.14352496885602112
206,0.042431549850508024,74.97625621181814,-0.5957768153398636,-0.047134898427009506,-0.20547207005703638
207,0.042431477772545696,74.97625621181814,-0.5906350466716062,-0.0473084000029948,-0.2647643671041772
208,0.0424314056990396,74.97625621181814,-0.5896571883840103,-0.04724259886166249,-0.3199781802436325
209,0.042431333630017255,74.97625621181814,-0.592146687857929,-0.046943665017413996,-0.37013652722172535
210,0.04243126156550619,74.97625621181814,-0.5973951188776637,-0.046449077617728374,-0.4146817768746685
211,0.04243118950553394,74.97625621181814,-0.6048361719961777,-0.0458217707633442,-0.45340974253581556
212,0.042431117450128036,74.97625621181814,-0.6141340456595699,-0.045139290178529475,-0.48636692220152333
213,0.04243104539931599,74.97625621181814,-0.625155618960884,-0.044480404648400855,-0.513719685345477
214,0.04243097335312533,74.97625621181814,-0.6378606161514172,-0.043911252789292005,-0.5356248815372001
215,0.04243090131158359,74.97625621181814,-0.6521825295353197,-0.04347359463582881,-0.552139220430441
216,0.042430829274718286,74.97625621181814,-0.6679302384167318,-0.043179741555747345,-0.5631912952620209
217,0.042430757242556946,74.97625621181814,-0.6847019359360523,-0.043016429653669884,-0.5686180450991869
218,0.0424306852151271,74.97625621181814,-0.7018257664388543,-0.04295465704078505,-0.5682482532522216
219,0.042430613192456265,74.97625621181814,-0.7183718799373359,-0.042960830664338416,-0.5620035629057579
220,0.042430541174571956,74.97625621181814,-0.7332606903014098,-0.043006080758789034,-0.5499856141752258
221,0.0424304691615017,74.97625621181814,-0.7454397459985703,-0.04307227142749013,-0.532527111789151
222,0.042430397153273014,74.97625621181814,-0.7540743739995005,-0.043154414874221225,-0.5102010680576056
223,0.04243032514991342,74.97625621181814,-0.7587026626997739,-0.04325966072456624,-0.48379565296135413
224,0.042430253151450444,74.97625621181814,-0.7593107624962082,-0.04340311677396772,-0.4542642110813876
225,0.04243018115791161,74.97625621181814,-0.7563013936281602,-0.04360122597192196,-0.4226589746832344
226,0.04243010916932446,74.97625621181814,-0.7503760266613457,-0.04386418689706938,-0.3900597176141651
227,0.04243003718571649,74.97625621181814,-0.7423923483721255,-0.044189434293907266,-0.35750722357505554
228,0.042429965207115214,74.97625621181814,-0.7332482729848022,-0.044558532218608636,-0.325944707136306
229,0.04242989323354816,74.97625621181814,-0.7237954459338378,-0.0449395712340809,-0.2961676708437946
230,0.04242982126504286,74.97625621181814,-0.7147616953421189,-0.0452947784380812,-0.2687850100794906
231,0.04242974930162684,74.97625621181814,-0.7066861980203755,-0.04558976127674806,-0.24419594279987888
232,0.04242967734332762,74.97625621181814,-0.6998954125963097,-0.04580041713567969,-0.2225862822875175
233,0.04242960539017275,74.97625621181814,-0.6945332870017755,-0.04591591219575832,-0.20394365108797263
234,0.042429533442189735,74.97625621181814,-0.6906185870454108,-0.045938207526690665,-0.18808715059451575
235,0.0424294614994061,74.97625621181814,-0.6880831695815964,-0.045879364113918984,-0.17470665066809904
236,0.04242938956184938,74.97625621181814,-0.6867775264072963,-0.04575776896632269,-0.1634086874521064
237,0.04242931762954709,74.97625621181814,-0.6864745627062115,-0.04559427933929347,-0.15376508425853386
238,0.042429245702526756,74.97625621181814,-0.6869023677755334,-0.04540922167454031,-0.1453579026483086
239,0.042429173780815885,74.97625621181814,-0.6877954602817151,-0.04522065288775087,-0.13781575248352376
240,0.042429101864442,74.97625621181814,-0.6889289332738989,-0.045043517027821584,-0.13084114768641295
241,0.042429029953432645,74.97625621181814,-0.6901245154989779,-0.04488903207581417,-0.12422948198015415
242,0.042428958047815345,74.97625621181814,-0.6912522355567742,-0.04476416632785897,-0.11787585815016041
243,0.042428886147617605,74.97625621181814,-0.6922451640004671,-0.04467170228629449,-0.11176326545764391
244,0.04242881425286696,74.97625621181814,-0.6931107623860551,-0.04461115753774693,-0.10593053393625552
245,0.04242874236359093,74.97625621181814,-0.6939134610995664,-0.04458009598591293,-0.10042870249943811
246,0.042428670479817035,74.97625621181814,-0.694732874285098,-0.044574972129283755,-0.09528016750999083
247,0.04242859860157281,74.97625621181814,-0.6956278171208439,-0.04459115162864565,-0.09045238191947799
248,0.04242852672888577,74.97625621181814,-0.6966256516222481,-0.04462274334200306,-0.0858528716492025
249,0.042428454861783454,74.97625621181814,-0.6977275741098268,-0.04466287413204415,-0.0813458511453945
250,0.04242838300029338,74.97625621181814,-0.6989092264295298,-0.04470427631404007,-0.0767807265550437
251,0.04242831114444307,74.97625621181814,-0.7001120045163212,-0.044740073676641075,-0.07201810491805385
252,0.04242823929426003,74.97625621181814,-0.7012398403956294,-0.044764858961540865,-0.06694619427717302
253,0.04242816744977179,74.97625621181814,-0.7021733040382439,-0.04477555814547203,-0.061489009491321155
254,0.04242809561100587,74.97625621181814,-0.7027920172204057,-0.04477138640748191,-0.05560824237666389
255,0.0424280237779898,74.97625621181814,-0.7029883669578544,-0.04475321364479492,-0.049299506885833906
256,0.04242795195075111,74.97625621181814,-0.7026722152412475,-0.04472331746841933,-0.04258530960817822
257,0.04242788012931731,74.97625621181814,-0.7017818368378448,-0.044685759558357255,-0.03550625878150473
258,0.04242780831371591,74.97625621181814,-0.7003091678711554,-0.04464655659633911,-0.028108785084785922
259,0.04242773650397444,74.97625621181814,-0.6983278798493262,-0.044612743357765536,-0.02042798260524139
260,0.04242766470012043,74.97625621181814,-0.6960066958447994,-0.044590466573865825,-0.012468735471445969
261,0.042427592902181406,74.97625621181814,-0.6936048679879401,-0.04458321788743061,-0.004191091031462448
262,0.04242752111018489,74.97625621181814,-0.6914599770116817,-0.0445911431378041,0.004497809430580094
263,0.042427449324158414,74.97625621181814,-0.689974407529429,-0.04461147927549823,0.013749058609483557
264,0.0424273775441295,74.97625621181814,-0.6895941567034027,-0.04463938884723314,0.023777899912371007
265,0.04242730577012566,74.97625621181814,-0.690769176731938,-0.04466833424133255,0.034864518327406384
266,0.04242723400217444,74.97625621181814,-0.6938962483923397,-0.04468994069952425,0.04733580368325524
267,0.04242716224030336,74.97625621181814,-0.6992595695989166,-0.044694132808745186,0.06151661771749315
268,0.04242709048453994,74.97625621181814,-0.7069806538773875,-0.04467013856256986,0.07765196346014146
269,0.0424270187349117,74.97625621181814,-0.7169721446519217,-0.044608186060674064,0.09581517301817288
270,0.04242694699144616,74.97625621181814,-0.728886914165764,-0.04450139128595188,0.11582117256875117
271,0.04242687525417085,74.97625621181814,-0.7420720254531366,-0.04434766439430581,0.13715953469321865
272,0.04242680352311328,74.97625621181814,-0.7555518098502356,-0.044151652463955415,0.15895933673983292
273,0.042426731798301,74.97625621181814,-0.7680605820060828,-0.043926140148148676,0.1799965750713514
274,0.04242666007976153,74.97625621181814,-0.778134152556575,-0.043691909645733995,0.19874896172360496
275,0.0424265883675224,74.97625621181814,-0.7842617091022032,-0.04347594922008369,0.21349488538854844
276,0.04242651666161114,74.97625621181814,-0.7850948234059008,-0.043308984195069684,0.22244838820150206
277,0.04242644496205524,74.97625621181814,-0.7796964393298657,-0.043222985100806854,0.22391977497618332
278,0.04242637326888225,74.97625621181814,-0.767779141143734,-0.043248183296355346,0.21648833712558563
279,0.04242630158211969,74.97625621181814,-0.7498477832666104,-0.04340870399880878,0.19916887608917433
280,0.04242622990179507,74.97625621181814,-0.7271775268420329,-0.04371685159983675,0.17154959575899398
281,0.04242615822793592,74.97625621181814,-0.7016278889632214,-0.044167511506083675,0.13387667282371882
282,0.04242608656056975,74.97625621181814,-0.6753432722920646,-0.04473430359801992,0.08706369870279282
283,0.042426014899724085,74.97625621181814,-0.6504017706475471,-0.04536865710389046,0.03261640615341146
284,0.04242594324542645,74.97625621181814,-0.6285003586237857,-0.04600347660849766,-0.027517996758699533
285,0.04242587159770436,74.97625621181814,-0.6107775508990267,-0.04656248744104025,-0.09114882901135603
286,0.04242579995658534,74.97625621181814,-0.5978057017479914,-0.04697334543769084,-0.15604818164169304
287,0.042425728322096914,74.97625621181814,-0.5896819086547732,-0.047180457355270676,-0.22012878987706652
288,0.042425656694266616,74.97625621181814,-0.5861267655454241,-0.04715438632229132,-0.2815724031362797
289,0.042425585073121976,74.97625621181814,-0.586583924967166,-0.04689683693659507,-0.33890760604525655
290,0.04242551345869052,74.97625621181814,-0.5903690603859023,-0.046441044732559215,-0.391046085368666
291,0.042425441850999765,74.97625621181814,-0.5968560938296186,-0.04584705541345277,-0.43728001227726154
292,0.04242537025007724,74.97625621181814,-0.6056108291106802,-0.04519192832355272,-0.4772347656889018
293,0.04242529865595046,74.97625621181814,-0.6164037322743305,-0.0445560546915724,-0.5107780638374495
294,0.04242522706864694,74.97625621181814,-0.6291276870758935,-0.04400756344323599,-0.5379055512676404
295,0.04242515548819419,74.97625621181814,-0.643693964787887,-0.04358912759934352,-0.5586358265611949
296,0.04242508391461976,74.97625621181814,-0.6599349827199034,-0.04331294002101788,-0.5729454372638685
297,0.04242501234795116,74.97625621181814,-0.6775012597869563,-0.04316512438433514,-0.5807613888457239
298,0.04242494078821593,74.97625621181814,-0.6957677052424903,-0.04311529484160703,-0.5820101965068568
299,0.042424869235441594,74.97625621181814,-0.7138030724424927,-0.04312703734429611,-0.5767016995625345
300,0.04242479768965568,74.97625621181814,-0.7304447425136541,-0.043167422563151085,-0.5650129857229784
301,0.042424726150885717,74.97625621181814,-0.7444717918028931,-0.04321418460423111,-0.5473432136496963
302,0.04242465461915923,74.97625621181814,-0.7548299054990801,-0.04325945599495898,-0.5243286164576924
303,0.042424583094503754,74.97625621181814,-0.7608444132029853,-0.04330998249270728,-0.4968212982474079
304,0.042424511576946794,74.97625621181814,-0.7623501220396285,-0.04338411322085812,-0.46583908653599126
305,0.04242444006651587,74.97625621181814,-0.759690389506889,-0.043505749382634164,-0.4324963018891408
306,0.0424243685632385,74.97625621181814,-0.7536033115814318,-0.04369620822989498,-0.3979300093662059
307,0.04242429706714222,74.97625621181814,-0.7450654344705415,-0.04396584136816784,-0.3632336676190229
308,0.04242422557825456,74.97625621181814,-0.7351527837713646,-0.044307454262674656,-0.3294004600141652
309,0.042424154096603016,74.97625621181814,-0.7249246054029005,-0.04469433065379975,-0.29727402924898405
310,0.04242408262221513,74.97625621181814,-0.7153060750074675,-0.04508557195086641,-0.26750836985341286
311,0.04242401115511841,74.97625621181814,-0.7069777055591687,-0.04543726315690948,-0.24054397651574766
312,0.042423939695340376,74.97625621181814,-0.7003171334984752,-0.04571345353797537,-0.21660669396571663
313,0.04242386824290856,74.97625621181814,-0.6954210779526044,-0.0458923595980388,-0.19572759745112175
314,0.042423796797850494,74.97625621181814,-0.6921812021535801,-0.04596771349277499,-0.17777289224084622
315,0.04242372536019371,74.97625621181814,-0.6903627816877218,-0.04594695266776206,-0.162472758719388
316,0.04242365392996572,74.97625621181814,-0.6896612683806518,-0.04584745791875628,-0.14944984467393807
317,0.04242358250719405,74.97625621181814,-0.6897467374092509,-0.04569196852393473,-0.1382581014763506
318,0.042423511091906216,74.97625621181814,-0.6903097845830505,-0.04550448766452147,-0.1284370107944753
319,0.04242343968412974,74.97625621181814,-0.6911011528083406,-0.045307312419174496,-0.1195718934507836
320,0.042423368283892135,74.97625621181814,-0.6919470737672061,-0.045118899720123146,-0.11134467411667089
321,0.04242329689122094,74.97625621181814,-0.6927403617687581,-0.04495240789716334,-0.10356348827463357
322,0.04242322550614366,74.97625621181814,-0.6934278772622362,-0.04481539891947088,-0.09616548687691186
323,0.042423154128687836,74.97625621181814,-0.6940098593307048,-0.04471081908379612,-0.0891929274160737
324,0.042423082758881,74.97625621181814,-0.6945406501907057,-0.04463838942910005,-0.08274973596590632
325,0.04242301139675069,74.97625621181814,-0.6951076819419109,-0.04459548562264678,-0.07695104381366535
326,0.04242294004232443,74.97625621181814,-0.6957891143126055,-0.044577447247919476,-0.0718783181543011
327,0.04242286869562972,74.97625621181814,-0.6966192321813366,-0.0445779100104587,-0.06754899825135088
328,0.0424227973566941,74.97625621181814,-0.6975838841573491,-0.04458966691634849,-0.06390383547620841
329,0.04242272602554509,74.97625621181814,-0.6986367612542138,-0.044605982410082755,-0.06080866833298804
330,0.04242265470221021,74.97625621181814,-0.6997121318793915,-0.04462168006633078,-0.058065360113312744
331,0.04242258338671699,74.97625621181814,-0.7007257866205073,-0.04463330623064747,-0.05543145309478466
332,0.04242251207909296,74.97625621181814,-0.7015777071444702,-0.04463857779587335,-0.052651570362673004
333,0.042422440779365626,74.97625621181814,-0.7021677932365189,-0.04463604755942853,-0.049497561238931474
334,0.04242236948756252,74.97625621181814,-0.7024150592116263,-0.044625353800783966,-0.04580324230754262
335,0.04242229820371116,74.97625621181814,-0.7022633325257145,-0.044607620282429254,-0.04147751400190423
336,0.04242222692783907,74.97625621181814,-0.7016731581982826,-0.04458558590776529,-0.036492949324695836
337,0.04242215565997375,74.97625621181814,-0.7006161777755505,-0.0445632352694011,-0.030862938068393662
338,0.04242208440014274,74.97625621181814,-0.699085766634519,-0.0445448683377495,-0.024623682938407596
339,0.042422013148373544,74.97625621181814,-0.6971200499055094,-0.04453399468534186,-0.01782650139470335
340,0.042421941904693714,74.97625621181814,-0.6948215609621207,-0.0445326142474541,-0.01053143840190144
341,0.04242187066913077,74.97625621181814,-0.6923668526129368,-0.04454112060444001,-0.002789911565281495
342,0.042421799441712246,74.97625621181814,-0.6900123606136845,-0.04455875120463118,0.005383827359004644
343,0.04242172822246566,74.97625621181814,-0.6880979850175333,-0.04458416442605719,0.014040772569545045
344,0.04242165701141854,74.97625621181814,-0.6870360648312536,-0.0446154380722865,0.023314392525661348
345,0.042421585808598415,74.97625621181814,-0.68727522448453,-0.044649332425407334,0.03342191450750343
346,0.04242151461403282,74.97625621181814,-0.6892469884553882,-0.044680518680451475,0.04464441586713757
347,0.04242144342774925,74.97625621181814,-0.6933119605040512,-0.044701407274942324,0.057282692925696294
348,0.04242137224977522,74.97625621181814,-0.6997111686997276,-0.044702688496986914,0.07159486937381264
349,0.042421301080138266,74.97625621181814,-0.7085150801022473,-0.04467453502010729,0.08772682294272191
350,0.04242122991886591,74.97625621181814,-0.7195647240525876,-0.04460829608781338,0.10564265609803054
351,0.04242115876598569,74.97625621181814,-0.7324138916786397,-0.04449839099542095,0.1250591484923562
352,0.04242108762152512,74.97625621181814,-0.7462932657829935,-0.04434424394696649,0.14539175255037293
353,0.04242101648551171,74.97625621181814,-0.7601154944278263,-0.044152060711931146,0.16572400184905928
354,0.042420945357972986,74.97625621181814,-0.7725288079080659,-0.043935945279103265,0.18481211622815774
355,0.042420874238936465,74.97625621181814,-0.7820213172804638,-0.043717831730963747,0.20113458227211248
356,0.042420803128429684,74.97625621181814,-0.7870828634627791,-0.04352595529196351,0.21299234014701587
357,0.0424207320264802,74.97625621181814,-0.7864286377534732,-0.04339206331125489,0.21865558505402857
358,0.04242066093311554,74.97625621181814,-0.779261409549029,-0.043348035863551376,0.21653989582452168
359,0.04242058984836323,74.97625621181814,-0.7655013069482244,-0.043422029585553475,0.20538450732454883
360,0.042420518772250775,74.97625621181814,-0.7458868215006617,-0.043633484728989334,0.1844057465593716
361,0.04242044770480571,74.97625621181814,-0.7218952231427174,-0.04398726936077702,0.15340773677170688
362,0.04242037664605553,74.97625621181814,-0.6955085181566274,-0.044468585469636716,0.1128402416623797
363,0.042420305596027774,74.97625621181814,-0.668892206286639,-0.0450403817359978,0.06379299141793024
364,0.04242023455474995,74.97625621181814,-0.6440666711746938,-0.04564494910446205,0.007913636559347818
365,0.04242016352224957,74.97625621181814,-0.6226544753076935,-0.04621080188022608,-0.05275321342195549
366,0.04242009249855415,74.97625621181814,-0.6057502109652054,-0.04666391957461897,-0.11598227484135169
367,0.04242002148369123,74.97625621181814,-0.5938892712379316,-0.04694058893953003,-0.17959159801255428
368,0.04241995047768833,74.97625621181814,-0.5870665772857905,-0.04699890580939045,-0.24162655170250305
369,0.042419879480573,74.97625621181814,-0.5848127622674392,-0.04682694451940151,-0.30047870114458836
370,0.04241980849237275,74.97625621181814,-0.5863705307544698,-0.046446248314916394,-0.35493821865861547
371,0.04241973751311511,74.97625621181814,-0.5909411229119698,-0.04590930366786949,-0.40418756308741355
372,0.04241966654282761,74.97625621181814,-0.5978871217321369,-0.04529073141964155,-0.44774436173006965
373,0.04241959558153776,74.97625621181814,-0.6068074320344463,-0.044673657933154504,-0.4853670598966425
374,0.042419524629273085,74.97625621181814,-0.6175080543141755,-0.04413345644022581,-0.5169487519056397
375,0.04241945368606111,74.97625621181814,-0.6299408525775277,-0.04372278953094905,-0.5424284715891249
376,0.04241938275192935,74.97625621181814,-0.6441271998237993,-0.04346351343249377,-0.561738081058434
377,0.042419311826905344,74.97625621181814,-0.6600324405015168,-0.043347597679952846,-0.5747879019631421
378,0.04241924091101661,74.97625621181814,-0.6773944848389027,-0.04334422054150635,-0.5814874868996631
379,0.04241917000429068,74.97625621181814,-0.6955864217857756,-0.0434096839578442,-0.5817961271245546
380,0.04241909910675505,74.97625621181814,-0.71360661590119,-0.043498272809110304,-0.5757903003656952
381,0.042419028218437266,74.97625621181814,-0.7302160185835282,-0.043572308919632825,-0.5637251319579701
382,0.04241895733936486,74.97625621181814,-0.7441678485347999,-0.04360956207940543,-0.5460683884225681
383,0.042418886469565376,74.97625621181814,-0.7544533459541205,-0.04360673543397893,-0.5234984619960028
384,0.042418815609066324,74.97625621181814,-0.7604880437181403,-0.04357859222712021,-0.496868469188979
385,0.04241874475789523,74.97625621181814,-0.762182645541662,-0.043553208195528076,-0.4671446636179287
386,0.042418673916079605,74.97625621181814,-0.7598974424723813,-0.04356451071636723,-0.4353338405133231
387,0.042418603083646964,74.97625621181814,-0.7543334402529165,-0.043643703876319044,-0.4024162476339869
388,0.04241853226062482,74.97625621181814,-0.7464164379695474,-0.04381115810925268,-0.36929260506071787
389,0.0424184614470407,74.97625621181814,-0.7371838974375594,-0.044069860427952134,-0.3367436938233131
390,0.04241839064292214,74.97625621181814,-0.7276531964386338,-0.044402259424467544,-0.30539896615324524
391,0.04241831984829666,74.97625621181814,-0.718679005812444,-0.04477331806182335,-0.27571762703348035
392,0.04241824906319178,74.97625621181814,-0.7108521522816975,-0.04513952828501518,-0.2479920419319931
393,0.042418178287635035,74.97625621181814,-0.7044831451674128,-0.04545919246286471,-0.22237687724840505
394,0.04241810752165393,74.97625621181814,-0.6996525649459414,-0.04570013546490902,-0.19893057059961092
395,0.04241803676527601,74.97625621181814,-0.696272606735044,-0.04584431165714832,-0.17764851691981257
396,0.0424179660185288,74.97625621181814,-0.6941331123451818,-0.04588905318307505,-0.15847905748089666
397,0.04241789528143982,74.97625621181814,-0.6929490935909379,-0.045844628414309606,-0.14132900225097886
398,0.042417824554036594,74.97625621181814,-0.6924250113965812,-0.04572958694154683,-0.12606947240939362
399,0.042417753836346654,74.97625621181814,-0.6923160919894025,-0.04556617836675502,-0.11254727905143988
400,0.04241768312839752,74.97625621181814,-0.6924529678950303,-0.04537690123870402,-0.10060073588027589
401,0.04241761243021672,74.97625621181814,-0.6927252721643976,-0.04518199331976929,-0.09007605412122038
402,0.042417541741831766,74.97625621181814,-0.6930543730464078,-0.04499758334143078,-0.08084290784425638
403,0.042417471063270186,74.97625621181814,-0.6933848845133712,-0.044834792407500136,-0.07280998596366665
404,0.04241740039455951,74.97625621181814,-0.6936937144227587,-0.04470015271785228,-0.06593415057847497
405,0.042417329735727254,74.97625621181814,-0.69399235736204,-0.04459684281234585,-0.0602100341628381
406,0.04241725908680094,74.97625621181814,-0.6943098284499867,-0.044525633126955275,-0.05563836082426312
407,0.04241718844780809,74.97625621181814,-0.6946700975454471,-0.04448510565697546,-0.05218977037879566
408,0.04241711781877623,74.97625621181814,-0.6950834461565253,-0.044471610221753374,-0.04978183438822797
409,0.04241704719973288,74.97625621181814,-0.6955518725822929,-0.04447946595699736,-0.04827333363240308
410,0.04241697659070557,74.97625621181814,-0.69607270199636,-0.04450163101631551,-0.047471619372080665
411,0.042416905991721814,74.97625621181814,-0.6966318076388178,-0.044530839121057396,-0.047149104568817685
412,0.042416835402809154,74.97625621181814,-0.6971940065360759,-0.04456095056765341,-0.04706479626347242
413,0.04241676482399511,74.97625621181814,-0.6977032031008512,-0.044588212766802714,-0.046985889298543325
414,0.04241669425530721,74.97625621181814,-0.6980950038659343,-0.04461195841791575,-0.04670546543712087
415,0.042416623696773,74.97625621181814,-0.6983103131086794,-0.044634045085745026,-0.0460528281972479
416,0.042416553148419994,74.97625621181814,-0.6982982521282369,-0.04465703872167687,-0.04489366124166831
417,0.04241648261027572,74.97625621181814,-0.6980116429804698,-0.04468225979066353,-0.04312164551957783
418,0.04241641208236768,74.97625621181814,-0.697407512019661,-0.044708873873538946,-0.04064929784329844
419,0.0424163415647234,74.97625621181814,-0.6964578938559823,-0.04473425440588654,-0.03740736030926534
420,0.04241627105737039,74.97625621181814,-0.6951653608231717,-0.04475500746188026,-0.033354661428044406
421,0.04241620056033616,74.97625621181814,-0.6935774250710188,-0.04476809376608642,-0.028487480558698354
422,0.04241613007364824,74.97625621181814,-0.6918010036084754,-0.044771847882521296,-0.022831590467075145
423,0.04241605959733416,74.97625621181814,-0.6900193866969663,-0.04476647043499822,-0.016410645500606915
424,0.04241598913142146,74.97625621181814,-0.6885049685922019,-0.044753440802512735,-0.009204040257356678
425,0.04241591867593766,74.97625621181814,-0.6876145388902843,-0.044734070003244565,-0.0011157007109295336
426,0.04241584823091028,74.97625621181814,-0.6877624302875941,-0.044708134904903656,0.0080352556250574
427,0.042415777796366835,74.97625621181814,-0.6893793700488748,-0.044673359514825824,0.018503877340516638
428,0.04241570737233484,74.97625621181814,-0.6928667367406384,-0.04462591036552362,0.030591653134236996
429,0.04241563695884184,74.97625621181814,-0.6985484364418999,-0.04456156371823731,0.04460032357918761
430,0.042415566555915364,74.97625621181814,-0.7066148219943698,-0.0444770334195233,0.060765236442658
431,0.04241549616358296,74.97625621181814,-0.7170549686427772,-0.04437108348427637,0.0791696941234036
432,0.042415425781872136,74.97625621181814,-0.7295856094206885,-0.04424518845792819,0.09964907204181328
433,0.04241535541081042,74.97625621181814,-0.7435931496396155,-0.04410381703144973,0.12170426873139846
434,0.042415285050425355,74.97625621181814,-0.758103890655398,-0.043954703250816414,0.14445156199546397
435,0.042415214700744455,74.97625621181814,-0.7717981979596795,-0.04380916590209719,0.16663014207990834
436,0.04241514436179525,74.97625621181814,-0.7830883677631565,-0.04368213241436497,0.18666935558555414
437,0.04241507403360525,74.97625621181814,-0.7902760105795935,-0.04359160588671053,0.20280078270062102
438,0.04241500371620198,74.97625621181814,-0.7917906082683152,-0.04355759140077905,0.2131993966012771
439,0.04241493340961296,74.97625621181814,-0.7864865367895838,-0.04360063941322372,0.21614529512515554
440,0.042414863113865706,74.97625621181814,-0.7739377512976914,-0.04373990385850059,0.21019539224996805
441,0.04241479282898774,74.97625621181814,-0.7546322056964122,-0.04398979941924279,0.19434386898757472
442,0.042414722555006584,74.97625621181814,-0.7299721711812501,-0.044354193046282506,0.16814715498286653
443,0.04241465229194976,74.97625621181814,-0.702058727925383,-0.0448191307317017,0.13179597138562973
444,0.042414582039844766,74.97625621181814,-0.6733348332538203,-0.04534783829540166,0.08612170318933303
445,0.04241451179871914,74.97625621181814,-0.6462018106240569,-0.045881897859021976,0.0325276325646873
446,0.04241444156860042,74.97625621181814,-0.622694683384652,-0.0463496646923864,-0.02714953913188351
447,0.04241437134951613,74.97625621181814,-0.6042486093416585,-0.04667950776680474,-0.09081833729077919
448,0.04241430114149378,74.97625621181814,-0.5915635845278749,-0.04681398211711432,-0.156311879895109
449,0.042414230944560906,74.97625621181814,-0.5845974652162542,-0.0467219989521862,-0.22154193270700592
450,0.04241416075874504,74.97625621181814,-0.5827216285377417,-0.04640696751945666,-0.2846181246019895
451,0.04241409058407371,74.97625621181814,-0.5849988063639262,-0.04590890019066648,-0.34392774512077307
452,0.04241402042057445,74.97625621181814,-0.590461136225396,-0.04529933443685178,-0.39817390663101637
453,0.04241395026827477,74.97625621181814,-0.5982843348711453,-0.04466880664409415,-0.4463792718928893
454,0.0424138801272022,74.97625621181814,-0.6078595727377157,-0.044107560323883736,-0.48787132826138324
455,0.04241380999738427,74.97625621181814,-0.6188264688266611,-0.04368480074549515,-0.5222592244187468
456,0.0424137398788485,74.97625621181814,-0.6310775795294509,-0.04343586086645644,-0.5493970296286571
457,0.04241366977162241,74.97625621181814,-0.6446810692903444,-0.04336160573593469,-0.5693254667312804
458,0.042413599675733535,74.97625621181814,-0.6596986829465614,-0.043435733770539574,-0.5822001356009143
459,0.04241352959120938,74.97625621181814,-0.6759675609718017,-0.0436140027721098,-0.5882331797727655
460,0.04241345951807748,74.97625621181814,-0.6929615985145592,-0.04384310106340956,-0.5876748470737947
461,0.04241338945636536,74.97625621181814,-0.7097975373200563,-0.044069169845485444,-0.5808363012323607
462,0.04241331940610054,74.97625621181814,-0.7253682176109796,-0.04424584441305787,-0.5681301685371536
463,0.04241324936731054,74.97625621181814,-0.7385471258610545,-0.04434098404164368,-0.5501037340533099
464,0.042413179340022894,74.97625621181814,-0.7484040301839483,-0.04434078110890279,-0.527452983544218
465,0.04241310932426512,74.97625621181814,-0.7543732376527951,-0.0442502629023735,-0.5010146269696578
466,0.04241303932006476,74.97625621181814,-0.75633284097352,-0.04409059661832193,-0.4717348507622549
467,0.042412969327449326,74.97625621181814,-0.7545925391710662,-0.0438948090653108,-0.44061611219320934
468,0.042412899346446334,74.97625621181814,-0.7498173676435753,-0.04370322500412251,-0.40864914350744824
469,0.0424128293770833,74.97625621181814,-0.7429060220763137,-0.043558481001170844,-0.37674189428189075
470,0.04241275941938776,74.97625621181814,-0.7348319486482644,-0.043499329229463146,-0.3456589098005314
471,0.042412689473387236,74.97625621181814,-0.7264803976387267,-0.0435536180488006,-0.3159840579840326
472,0.042412619539109235,74.97625621181814,-0.7185385552307723,-0.04373189796515597,-0.2881147909819124
473,0.042412549616581294,74.97625621181814,-0.7114724973467577,-0.044023030974999565,-0.26228624261536243
474,0.042412479705830945,74.97625621181814,-0.705565883682893,-0.04439392818702351,-0.2386114641184505
475,0.042412409806885716,74.97625621181814,-0.7009624796321579,-0.04479593846028479,-0.21711839837411634
476,0.042412339919773126,74.97625621181814,-0.6976828012679874,-0.04517673963509845,-0.19777102212109657
477,0.042412270044520695,74.97625621181814,-0.6956270770625977,-0.04549216761255678,-0.18047635406447232
478,0.04241220018115595,74.97625621181814,-0.6945900672546517,-0.04571343684991265,-0.16508902971300557
479,0.04241213032970642,74.97625621181814,-0.6943042102892982,-0.04582929089760495,-0.15142220189964
480,0.04241206049019964,74.97625621181814,-0.6944972838637379,-0.045844388732958374,-0.139262359387334
481,0.04241199066266312,74.97625621181814,-0.6949285428485336,-0.04577507038077352,-0.12838341315132545
482,0.042411920847124404,74.97625621181814,-0.695392909369624,-0.04564395462723168,-0.11856389179390879
483,0.042411851043611,74.97625621181814,-0.6957214443762111,-0.045475179220166285,-0.10961135405020814
484,0.04241178125215042,74.97625621181814,-0.6958018975442211,-0.04529125193765377,-0.1013866116133954
485,0.04241171147277021,74.97625621181814,-0.6956044997372711,-0.045111186115139944,-0.0938139246657285
486,0.04241164170549788,74.97625621181814,-0.6951808576301293,-0.04494920665036382,-0.08686963907618026
487,0.042411571950360945,74.97625621181814,-0.6946326160129285,-0.044813981583915946,-0.08055442715049006
488,0.042411502207386924,74.97625621181814,-0.6940780320227332,-0.04470896841661167,-0.07486347159229596
489,0.042411432476603346,74.97625621181814,-0.6936365677036803,-0.044633908465648006,-0.06976749680878061
490,0.04241136275803775,74.97625621181814,-0.6934228033061562,-0.04458645190248438,-0.06520759846115902
491,0.042411293051717674,74.97625621181814,-0.693531025235937,-0.04456292420170011,-0.06109709368298432
492,0.04241122335767065,74.97625621181814,-0.6940087851124629,-0.04455835878503264,-0.05732284438748467
493,0.042411153675924185,74.97625621181814,-0.694837159927479,-0.044566740199259054,-0.053747802405591336
494,0.04241108400650581,74.97625621181814,-0.6959329597058223,-0.04458201084520536,-0.050223844365744015
495,0.04241101434944305,74.97625621181814,-0.6971670940866818,-0.04459943585703022,-0.04661828031139014
496,0.04241094470476342,74.97625621181814,-0.6983819373359796,-0.044616473618009245,-0.04284442979165255
497,0.04241087507249445,74.97625621181814,-0.6994027934439873,-0.044632533971170105,-0.038879624830706255
498,0.04241080545266366,74.97625621181814,-0.7000542900416148,-0.04464777006883494,-0.03475871384063397
499,0.042410735845298565,74.97625621181814,-0.700189401352545,-0.04466190142052448,-0.03054316884209569
500,0.0424106662504267,74.97625621181814,-0.6997206677316036,-0.044673879199404784,-0.026275882228841984
501,0.04241059666807557,74.97625621181814,-0.6986366090780299,-0.04468213989516076,-0.02193621846630589
502,0.0424105270982727,74.97625621181814,-0.6970032200060267,-0.044685004776074275,-0.01741182787149188
503,0.04241045754104561,74.97625621181814,-0.6949653451219644,-0.04468141224201468,-0.012499382740584897
504,0.04241038799642184,74.97625621181814,-0.692755341447318,-0.044671797668270855,-0.006931388967307491
505,0.04241031846442893,74.97625621181814,-0.6906997739053179,-0.0446579862894745,-0.000412603580032083
506,0.0424102489450944,74.97625621181814,-0.6892100126327557,-0.04464161433391231,0.007348301949858342
507,0.042410179438445786,74.97625621181814,-0.6887532887618287,-0.04462227786690855,0.016614647763414855
508,0.042410109944510596,74.97625621181814,-0.689812375952448,-0.04459685444254589,0.027601687804205827
509,0.04241004046331636,74.97625621181814,-0.6928405742954666,-0.044560370051964546,0.040457478385386055
510,0.04240997099489059,74.97625621181814,-0.6982073239118772,-0.044507887397542946,0.05524357252690027
511,0.04240990153926081,74.97625621181814,-0.7061263805218542,-0.044436261733155104,0.0719150055518521
512,0.04240983209645453,74.97625621181814,-0.7165715650628879,-0.04434471617381068,0.0902957152632264
513,0.04240976266649931,74.97625621181814,-0.7292002850599612,-0.04423453352978192,0.11004278755983286
514,0.042409693249422654,74.97625621181814,-0.7433068081792864,-0.044109029384207285,0.13059979529814314
515,0.042409623845252105,74.97625621181814,-0.757817333753197,-0.04397421735973793,0.1511533149290802
516,0.04240955445401518,74.97625621181814,-0.7713309948089498,-0.043839688296375086,0.17061344990168467
517,0.04240948507573941,74.97625621181814,-0.782215005117073,-0.043719182413691826,0.1876325231797574
518,0.04240941571045231,74.97625621181814,-0.7887703274035935,-0.04363052454199428,0.20066568693777323
519,0.0424093463581814,74.97625621181814,-0.7894767935600308,-0.04359467973703106,0.20807340634787141
520,0.04240927701895421,74.97625621181814,-0.7832930477172741,-0.04363384597724276,0.20826418767543595
521,0.04240920769279825,74.97625621181814,-0.7699381351643939,-0.04376856954417708,0.19986691110916976
522,0.042409138379741036,74.97625621181814,-0.7500500501946339,-0.044013422578634644,0.1819091623659353
523,0.042409069079810104,74.97625621181814,-0.7251402891233547,-0.04437078573496047,0.1539712735966836
524,0.04240899979303298,74.97625621181814,-0.6973455173151226,-0.04482426490817769,0.11628452571099838
525,0.0424089305194372,74.97625621181814,-0.6690616807020765,-0.045335416051040495,0.06974442153169788
526,0.04240886125905028,74.97625621181814,-0.6425733433149293,-0.0458466695424835,0.015826633462434795
527,0.042408792011899746,74.97625621181814,-0.6197600083905735,-0.046290375573965196,-0.0435752767852849
528,0.04240872277801313,74.97625621181814,-0.6019047214826848,-0.04660118957888211,-0.10634659655933225
529,0.04240865355741795,74.97625621181814,-0.5895991918073961,-0.046728095686599254,-0.17033994430000218
530,0.04240858435014173,74.97625621181814,-0.5827652950994443,-0.04664387766246723,-0.23353353965722815
531,0.04240851515621199,74.97625621181814,-0.5808216619287603,-0.046351511493114346,-0.2941527929182305
532,0.042408445975656246,74.97625621181814,-0.5829480507397938,-0.04588645095045149,-0.35074751673695637
533,0.042408376808502034,74.97625621181814,-0.588325547354517,-0.04531303531931385,-0.4022156644598654
534,0.042408307654776885,74.97625621181814,-0.5962648345059066,-0.04471355654663438,-0.4477760503411939
535,0.042408238514508326,74.97625621181814,-0.6062449349071201,-0.04417025269102263,-0.48690768403393303
536,0.0424081693877239,74.97625621181814,-0.6179332490479926,-0.04374577066805069,-0.5192781567041019
537,0.042408100274451126,74.97625621181814,-0.6311906117203532,-0.04347141034767959,-0.5446760781913607
538,0.042408031174717524,74.97625621181814,-0.6460023747385473,-0.04334708494706382,-0.5629554659425741
539,0.04240796208855062,74.97625621181814,-0.6623155254536035,-0.04334868622697193,-0.5740042250973811
540,0.04240789301597794,74.97625621181814,-0.6798492961468653,-0.043437282772299995,-0.577753757711571
541,0.042407823957027004,74.97625621181814,-0.6979814280255645,-0.04356796540350752,-0.5742332959215056
542,0.04240775491172531,74.97625621181814,-0.7157633859623048,-0.043698205693060536,-0.5636471083552257
543,0.04240768588010038,74.97625621181814,-0.7320503725875399,-0.04379543485164384,-0.5464418119414066
544,0.042407616862179746,74.97625621181814,-0.7457003322247647,-0.04384264087791014,-0.523340520959315
545,0.042407547857990925,74.97625621181814,-0.755783607036177,-0.04384056071493775,-0.4953332534336846
546,0.04240747886756146,74.97625621181814,-0.7617411118590063,-0.043806004249836036,-0.4636229995081993
547,0.042407409890918873,74.97625621181814,-0.7634513148851844,-0.043767091010114834,-0.4295386851597658
548,0.042407340928090696,74.97625621181814,-0.7612128622879195,-0.043756780473727504,-0.3944341762433437
549,0.042407271979104454,74.97625621181814,-0.7556785759926393,-0.04380582116548852,-0.35958957760081506
550,0.04240720304398768,74.97625621181814,-0.7477550536953408,-0.043935494300480396,-0.32612345481269145
551,0.042407134122767906,74.97625621181814,-0.7384596588947686,-0.04415077442639509,-0.29492203300138037
552,0.04240706521547264,74.97625621181814,-0.7287564956028162,-0.04443669446260671,-0.26659241583061677
553,0.042406996322129416,74.97625621181814,-0.7194291128804131,-0.044761263036442636,-0.24144439559348682
554,0.04240692744276576,74.97625621181814,-0.711031919962619,-0.0450840441821257,-0.21950211240162767
555,0.04240685857740919,74.97625621181814,-0.7039070876653657,-0.045365788256825315,-0.20054629549807676
556,0.04240678972608722,74.97625621181814,-0.6982175010246446,-0.045576083956807956,-0.18418369483740143
557,0.042406720888827375,74.97625621181814,-0.6939691093589403,-0.04569819641311564,-0.1699312697029541
558,0.042406652065657184,74.97625621181814,-0.6910396699124848,-0.0457302146469893,-0.15729879757940995
559,0.04240658325660416,74.97625621181814,-0.6892321409713891,-0.04568248619692965,-0.145858158556887
560,0.042406514461695806,74.97625621181814,-0.6883332397653912,-0.045573053080823454,-0.1352926867774541
561,0.042406445680959665,74.97625621181814,-0.6881416143063395,-0.045423111537965875,-0.12542164603535289
562,0.04240637691442326,74.97625621181814,-0.6884645376434955,-0.04525355890829217,-0.11619728749490978
563,0.04240630816211414,74.97625621181814,-0.6891173427379524,-0.04508278586716758,-0.10767835625250827
564,0.042406239424059806,74.97625621181814,-0.6899460920305502,-0.04492559653386338,-0.0999903807999307
565,0.0424061707002878,74.97625621181814,-0.6908542432506783,-0.04479298168227097,-0.09328189740087536
566,0.042406101990825645,74.97625621181814,-0.6918032793137654,-0.04469209460203052,-0.08767811895746803
567,0.042406033295700876,74.97625621181814,-0.6927856566228474,-0.044625901819051995,-0.08323218824452625
568,0.04240596461494102,74.97625621181814,-0.6937963620933554,-0.04459286879000288,-0.07988470844248309
569,0.0424058959485736,74.97625621181814,-0.6948259801611534,-0.044587483608247505,-0.07744887585719958
570,0.04240582729662615,74.97625621181814,-0.6958698303192596,-0.044601610005176165,-0.07562574406800064
571,0.042405758659126186,74.97625621181814,-0.6969292657615761,-0.04462593423619957,-0.07403789922699186
572,0.042405690036101236,74.97625621181814,-0.6979974162394252,-0.04465133811840181,-0.07227311852371099
573,0.042405621427578824,74.97625621181814,-0.6990471248523001,-0.04467052490002221,-0.06994040939619395
574,0.04240555283358646,74.97625621181814,-0.7000358157139608,-0.04467930263859054,-0.06673516610404268
575,0.04240548425415168,74.97625621181814,-0.7009176354618846,-0.04467633450634242,-0.062494090412687275
576,0.042405415689302,74.97625621181814,-0.7016441834420701,-0.044661691208463035,-0.057218110889433176
577,0.042405347139064936,74.97625621181814,-0.7021533311941217,-0.0446360181858249,-0.05105847690546131
578,0.042405278603468016,74.97625621181814,-0.7023642312897087,-0.04460107591219804,-0.04427982794256978
579,0.04240521008253875,74.97625621181814,-0.7021909853847548,-0.0445605575336331,-0.037217482388261024
580,0.04240514157630468,74.97625621181814,-0.701566273388474,-0.0445198639343442,-0.03023546188236747
581,0.04240507308479331,74.97625621181814,-0.7004581747232839,-0.04448463278773401,-0.02368168446355403
582,0.04240500460803218,74.97625621181814,-0.6988771578426854,-0.044459037674807515,-0.017837722927526688
583,0.04240493614604882,74.97625621181814,-0.6968823289618631,-0.04444508898011639,-0.012867126188873075
584,0.042404867698870766,74.97625621181814,-0.6945904832827989,-0.044443126958107655,-0.008770277178166454
585,0.04240479926652554,74.97625621181814,-0.6921814755828237,-0.044452756470848155,-0.005356392829943816
586,0.04240473084904068,74.97625621181814,-0.6898942893324751,-0.04447345208422948,-0.0022453235367420354
587,0.04240466244644371,74.97625621181814,-0.6880172014158203,-0.04450437344081906,0.0010928524629615843
588,0.04240459405876214,74.97625621181814,-0.6868801522333924,-0.04454348923201107,0.005265785515265643
589,0.04240452568602348,74.97625621181814,-0.6868498391814792,-0.04458676265180564,0.010873310564943162
590,0.04240445732825527,74.97625621181814,-0.6883155293324105,-0.04462794137889977,0.018430077699590538
591,0.042404388985485035,74.97625621181814,-0.6916535004781533,-0.04465881339727265,0.02830838575582491
592,0.0424043206577403,74.97625621181814,-0.6971710520329387,-0.04466981016956651,0.040701968645624996
593,0.04240425234504861,74.97625621181814,-0.7050401255751186,-0.04465112960736015,0.05560608148882427
594,0.042404184047437475,74.97625621181814,-0.7152291701413889,-0.04459442575368913,0.0728059442957409
595,0.042404115764934414,74.97625621181814,-0.7274382952171635,-0.044494806038526874,0.09186430877142386
596,0.042404047497566946,74.97625621181814,-0.7410460885703124,-0.044352608982702685,0.11210567810575243
597,0.04240397924536259,74.97625621181814,-0.7550848889514452,-0.04417451736913292,0.1326047794602379
598,0.04240391100834888,74.97625621181814,-0.7682642721504084,-0.04397402080108894,0.15218941725062937
599,0.04240384278655335,74.97625621181814,-0.7790586791433379,-0.04377133417946303,0.16946520570081194
600,0.04240377458000352,74.97625621181814,-0.7858676336623316,-0.04359247694893616,0.18287018840997796
601,0.042403706388726925,74.97625621181814,-0.7872431103294523,-0.04346715264131853,0.19076746342814785
602,0.042403638212751095,74.97625621181814,-0.7821566409311442,-0.04342557124650101,0.19157605609202558
603,0.04240357005210355,74.97625621181814,-0.7702477923481571,-0.04349455267689836,0.1839274914382082
604,0.042403501906811816,74.97625621181814,-0.7519707862283274,-0.04369286382568064,0.16682622686499077
605,0.0424034337769034,74.97625621181814,-0.7285760040310761,-0.04402590922926139,0.13978978614472837
606,0.04240336566240581,74.97625621181814,-0.7019315876434424,-0.04448098151073331,0.1029464686193215
607,0.04240329756334657,74.97625621181814,-0.6742429093515395,-0.0450249026978693,0.05707119590847562
608,0.04240322947975322,74.97625621181814,-0.6477220704464441,-0.04560507931301981,0.003545873619134223
609,0.04240316141165329,74.97625621181814,-0.6242540694574019,-0.04615402074465302,-0.05575683663148138
610,0.04240309335907431,74.97625621181814,-0.6051475762934713,-0.046597622064959744,-0.11865286184280906
611,0.0424030253220438,74.97625621181814,-0.5910638395355802,-0.046867202250745865,-0.18286321681350912
612,0.042402957300589295,74.97625621181814,-0.5821215040618132,-0.046913181864785554,-0.24623060964058863
613,0.04240288929473833,74.97625621181814,-0.578067589018956,-0.046717110076471016,-0.30689448809585024
614,0.04240282130451843,74.97625621181814,-0.5784083927892417,-0.04629934304293479,-0.3633933074806992
615,0.042402753329957125,74.97625621181814,-0.5825044259773191,-0.0457192980112635,-0.4146876743749272
616,0.04240268537108193,74.97625621181814,-0.5897010451292828,-0.04506448451964213,-0.4601220367097351
617,0.042402617427920376,74.97625621181814,-0.5994917912726472,-0.04442860335199985,-0.499347965753282
618,0.04240254950049997,74.97625621181814,-0.6116101221249326,-0.04388753600549353,-0.5322224234095371
619,0.04240248158884823,74.97625621181814,-0.6259675526435107,-0.043484664311860016,-0.5586922313161143
620,0.0424024136929927,74.97625621181814,-0.6424756216375896,-0.04322935887351791,-0.5786901443488284
621,0.042402345812960894,74.97625621181814,-0.660864773835159,-0.04310460666866135,-0.5920800641500809
622,0.04240227794878034,74.97625621181814,-0.6805803589563556,-0.04307832681380071,-0.5986757563438392
623,0.04240221010047855,74.97625621181814,-0.7007671262424062,-0.043114492459005595,-0.5983203762307757
624,0.042402142268083046,74.97625621181814,-0.72032486280496,-0.043181886487140095,-0.5909840417762285
625,0.042402074451621356,74.97625621181814,-0.7380221150157533,-0.043259844439944066,-0.5768394101764639
626,0.042402006651121,74.97625621181814,-0.7526539318698512,-0.04334094364117688,-0.5562978754830457
627,0.04240193886660953,74.97625621181814,-0.7632154814181401,-0.04343054401758042,-0.5300059723806986
628,0.04240187109811445,74.97625621181814,-0.7690609497848828,-0.04354340318706647,-0.4988114825648235
629,0.0424018033456633,74.97625621181814,-0.770022112600118,-0.04369804976756931,-0.4637158807544081
630,0.042401735609283606,74.97625621181814,-0.7664508100153191,-0.043909556949847266,-0.42582645254849527
631,0.04240166788900289,74.97625621181814,-0.7591543651582576,-0.04418195379037092,-0.38630986937754047
632,0.04240160018484868,74.97625621181814,-0.7492384955531893,-0.04450341711306335,-0.3463441120400499
633,0.04240153249684852,74.97625621181814,-0.7379186477201535,-0.04484745582537576,-0.3070703078086708
634,0.04240146482502992,74.97625621181814,-0.7263610800366994,-0.045179472167019084,-0.26954789501400395
635,0.04240139716942041,74.97625621181814,-0.7155666618926823,-0.0454649060331264,-0.23471006761590743
636,0.0424013295300475,74.97625621181814,-0.7062746170034804,-0.04567622450090535,-0.20331497333674692
637,0.042401261906938714,74.97625621181814,-0.6988929058322969,-0.045797745765783104,-0.17590144544710076
638,0.04240119430012158,74.97625621181814,-0.6934987242530587,-0.04582732770190963,-0.15276908051597163
639,0.0424011267096236,74.97625621181814,-0.6899241569049142,-0.04577458139269411,-0.1339905138439204
640,0.04240105913547232,74.97625621181814,-0.6878793503294989,-0.04565694645831578,-0.11944033088436302
641,0.04240099157769527,74.97625621181814,-0.6870463406852355,-0.04549567257288211,-0.1088193267315412
642,0.04240092403631998,74.97625621181814,-0.6871202016672036,-0.04531270333744853,-0.10166859376036062
643,0.04240085651137397,74.97625621181814,-0.6878226145332463,-0.04512818498667057,-0.09738379920061184
644,0.04240078900288477,74.97625621181814,-0.6889160379495202,-0.04495842309369255,-0.09524351675419121
645,0.042400721510879896,74.97625621181814,-0.6902185610287794,-0.04481472622659303,-0.09445942148554731
646,0.0424006540353869,74.97625621181814,-0.6916037936118113,-0.0447032784297611,-0.0942467834842321
647,0.042400586576433294,74.97625621181814,-0.6929837822026931,-0.0446255467677847,-0.09390626626724555
648,0.04240051913404661,74.97625621181814,-0.6942906197061642,-0.04457888746818958,-0.09290259818186382
649,0.042400451708254364,74.97625621181814,-0.6954704767581368,-0.04455758274013143,-0.09092142712512882
650,0.04240038429908406,74.97625621181814,-0.6964879702135629,-0.04455445249992563,-0.08788677369673549
651,0.04240031690656323,74.97625621181814,-0.6973271436555143,-0.04456258840873203,-0.08393117911282104
652,0.042400249530719386,74.97625621181814,-0.697981742484856,-0.04457647588008495,-0.07932680342554033
653,0.04240018217158008,74.97625621181814,-0.698445281732651,-0.04459201208483285,-0.0744004417158834
654,0.042400114829172816,74.97625621181814,-0.6987151603530776,-0.04460566199367437,-0.06945867434526162
655,0.042400047503525135,74.97625621181814,-0.6988067625740333,-0.04461376031256503,-0.06474003291911964
656,0.04239998019466456,74.97625621181814,-0.6987597472081809,-0.0446127919032346,-0.06039748875477913
657,0.04239991290261862,74.97625621181814,-0.6986285985420874,-0.044600460222581045,-0.056504014486529905
658,0.04239984562741483,74.97625621181814,-0.6984669375441488,-0.04457670787281416,-0.05307035550361146
659,0.04239977836908072,74.97625621181814,-0.6983194181023838,-0.04454395225535869,-0.05006720742363954
660,0.04239971112764383,74.97625621181814,-0.6982230751951466,-0.044506190869568335,-0.047447252943002755
661,0.042399643903131674,74.97625621181814,-0.6982072733418828,-0.044467481535607284,-0.04516345887272288
662,0.042399576695571775,74.97625621181814,-0.6982859538068439,-0.044431061539626844,-0.043182000017526576
663,0.04239950950499167,74.97625621181814,-0.6984499691158602,-0.04439963350682235,-0.0414889499376051
664,0.04239944233141889,74.97625621181814,-0.6986691605113554,-0.044375964888439645,-0.0400873675564949
665,0.04239937517488095,74.97625621181814,-0.6989005096503873,-0.04436284313198182,-0.03898146833495005
666,0.04239930803540539,74.97625621181814,-0.6990897852702022,-0.044362404736168724,-0.038151256122863644
667,0.04239924091301973,74.97625621181814,-0.699164603200838,-0.044375572424101034,-0.037530313467738274
668,0.042399173807751496,74.97625621181814,-0.6990329549647667,-0.04440200903939475,-0.03700150797267191
669,0.042399106719628224,74.97625621181814,-0.6985991024162589,-0.04444027800924484,-0.03641346027342066
670,0.042399039648677424,74.97625621181814,-0.6977902397991943,-0.04448798727564034,-0.03560490070587608
671,0.04239897259492662,74.97625621181814,-0.6965780589451279,-0.0445421076869123,-0.034422673950084165
672,0.04239890555840332,74.97625621181814,-0.6949892021535768,-0.044599437022331226,-0.03273144565250132
673,0.04239883853913503,74.97625621181814,-0.6931097641635836,-0.0446568612161313,-0.03041995001822718
674,0.042398771537149285,74.97625621181814,-0.691088754933495,-0.04471133528807916,-0.02740205879273512
675,0.042398704552473625,74.97625621181814,-0.6891393583466586,-0.0447598672226138,-0.02360515419816894
676,0.04239863758513557,74.97625621181814,-0.6875343058046428,-0.044799605499726544,-0.018944847549611267
677,0.04239857063516264,74.97625621181814,-0.6865951699696164,-0.04482790655025623,-0.01329598963857689
678,0.0423985037025824,74.97625621181814,-0.686677984932966,-0.04484238926653917,-0.006473344664140056
679,0.04239843678742237,74.97625621181814,-0.6881536849547779,-0.044840813210507424,0.0017687799353903887
680,0.042398369889710075,74.97625621181814,-0.6913764099856364,-0.04482046134203377,0.011714646201384259
681,0.04239830300947303,74.97625621181814,-0.6966352108908842,-0.04477742543122784,0.02364340573361372
682,0.04239823614673877,74.97625621181814,-0.7040944133159933,-0.044706704202787835,0.03776596412519612
683,0.04239816930153481,74.97625621181814,-0.7137329708309841,-0.044603394972938665,0.05414867580784254
684,0.04239810247388867,74.97625621181814,-0.7252895857066467,-0.04446448531218463,0.07263519803562508
685,0.04239803566382789,74.97625621181814,-0.7382167797132385,-0.04429047813730783,0.0927796591700517
686,0.04239796887137997,74.97625621181814,-0.7516513415987449,-0.04408627632644343,0.11380322012355294
687,0.04239790209657242,74.97625621181814,-0.7644196272454332,-0.04386144065276967,0.13458436031558887
688,0.04239783533943278,74.97625621181814,-0.7751032832352829,-0.04363039061002497,0.15369118295453488
689,0.042397768599988596,74.97625621181814,-0.7821834922332701,-0.043412705592649245,0.16946086364740032
690,0.042397701878267385,74.97625621181814,-0.784260078523882,-0.04323306188627099,0.180125605782631
691,0.04239763517429668,74.97625621181814,-0.7803138562738064,-0.04312030796935283,0.18397500722883797
692,0.042397568488104,74.97625621181814,-0.7699505203375235,-0.0431053142099894,0.1795334120336485
693,0.04239750181971688,74.97625621181814,-0.7535415596553968,-0.04321682656213305,0.16572471791553023
694,0.04239743516916285,74.97625621181814,-0.7321986058424235,-0.043474754540430566,0.14200230624932486
695,0.04239736853646943,74.97625621181814,-0.7075948112784441,-0.04388240618433755,0.10843128249482412
696,0.042397301921664146,74.97625621181814,-0.6817104090614686,-0.04442113174552131,0.06571165932043357
697,0.04239723532477452,74.97625621181814,-0.6565658945845709,-0.045049960712639434,0.01513019541825843
698,0.04239716874582808,74.97625621181814,-0.6339573089021965,-0.04570979100693733,-0.04155900370909726
699,0.042397102184852355,74.97625621181814,-0.6152123444044442,-0.046329977764796866,-0.10230532432749544
700,0.04239703564187487,74.97625621181814,-0.6010445939305542,-0.04683664944419156,-0.16495552709465483
701,0.04239696911692316,74.97625621181814,-0.5915840116136858,-0.04716318372910139,-0.22744272635063548
702,0.04239690261002472,74.97625621181814,-0.5865571676521355,-0.04726131972697184,-0.2879410947392663
703,0.042396836121207065,74.97625621181814,-0.5854959037732654,-0.047110276201927766,-0.3449607998403404
704,0.042396769650497726,74.97625621181814,-0.587873066487823,-0.0467225122339029,-0.39737552542437654
705,0.04239670319792424,74.97625621181814,-0.5931677351269523,-0.04614464662115291,-0.4443953136537195
706,0.04239663676351413,74.97625621181814,-0.6009270288636334,-0.04545093620623814,-0.48550568127191324
707,0.042396570347294917,74.97625621181814,-0.6108435800791755,-0.04472859062710116,-0.5203903617733756
708,0.04239650394929413,74.97625621181814,-0.6227858544727278,-0.04405892950691744,-0.5488491342924228
709,0.042396437569539314,74.97625621181814,-0.6367207328709658,-0.04350163494841435,-0.5707232097493088
710,0.04239637120805799,74.97625621181814,-0.652553661531548,-0.043087617111979226,-0.5858486683112628
711,0.04239630486487768,74.97625621181814,-0.6699760303406351,-0.04282087463932634,-0.594059270026398
712,0.04239623854002592,74.97625621181814,-0.6883874460821299,-0.04268609360199435,-0.5952417134098715
713,0.04239617223353024,74.97625621181814,-0.706905408491068,-0.04265836718074241,-0.5894191446768385
714,0.04239610594541814,74.97625621181814,-0.7244475084157123,-0.042712406309469854,-0.5768252251463888
715,0.042396039675717166,74.97625621181814,-0.7398654212923396,-0.042829321033178804,-0.5579420700479445
716,0.04239597342445484,74.97625621181814,-0.7521050241335112,-0.04299955377284901,-0.5334978792434146
717,0.0423959071916587,74.97625621181814,-0.7603612674129602,-0.043221610103993516,-0.5044327003460515
718,0.042395840977356256,74.97625621181814,-0.7642030206722001,-0.04349760569164599,-0.4718403709308364
719,0.042395774781575024,74.97625621181814,-0.7636531897417748,-0.04382721078055061,-0.4368939849008836
720,0.04239570860434253,74.97625621181814,-0.7591981705039401,-0.04420160145778686,-0.40076465354653945
721,0.042395642445686305,74.97625621181814,-0.7516978312042653,-0.04459991315486427,-0.3645437765603425
722,0.04239557630563388,74.97625621181814,-0.7422130139463006,-0.04499104222648302,-0.32917883582500207
723,0.04239551018421277,74.97625621181814,-0.7318215563396747,-0.04534047536336849,-0.2954318694894248
724,0.04239544408145052,74.97625621181814,-0.7214882772146767,-0.045618015398794856,-0.2638629559753691
725,0.042395377997374646,74.97625621181814,-0.7119937887281925,-0.04580320022994204,-0.2348327262668924
726,0.04239531193201268,74.97625621181814,-0.7038880365579165,-0.04588823735712831,-0.2085179983629072
727,0.04239524588539214,74.97625621181814,-0.6974593751322635,-0.045878408684640895,-0.18493977359491207
728,0.04239517985754055,74.97625621181814,-0.6927465059065696,-0.045789467272141116,-0.16400306113628407
729,0.04239511384848545,74.97625621181814,-0.6896078933545814,-0.04564315996202741,-0.1455425851301224
730,0.04239504785825434,74.97625621181814,-0.6878149307674786,-0.04546291161337413,-0.12936394740594093
731,0.04239498188687476,74.97625621181814,-0.6871179597883645,-0.045270541403818684,-0.11527094946951769
732,0.042394915934374236,74.97625621181814,-0.6872725135418403,-0.045083992834407026,-0.10307591833012567
733,0.0423948500007803,74.97625621181814,-0.6880509893503702,-0.04491630903161178,-0.0925976015627771
734,0.042394784086120456,74.97625621181814,-0.689260110109996,-0.044775972239336,-0.08365529584468212
735,0.04239471819042225,74.97625621181814,-0.690756945246901,-0.044667838055393795,-0.07606441294703195
736,0.04239465231371322,74.97625621181814,-0.6924437732454033,-0.04459351672317478,-0.069633679524453
737,0.04239458645602087,74.97625621181814,-0.6942410140100064,-0.044550992075851316,-0.06416494636967107
738,0.04239452061737273,74.97625621181814,-0.6960622328270641,-0.044534537585115136,-0.05945775315886899
739,0.04239445479779631,74.97625621181814,-0.697810672226378,-0.04453587204031912,-0.055318093422530586
740,0.04239438899731915,74.97625621181814,-0.6993903998693903,-0.04454607778048953,-0.05156924996655606
741,0.04239432321596876,74.97625621181814,-0.7007135370978078,-0.04455710357757465,-0.04806205834245306
742,0.04239425745377269,74.97625621181814,-0.7016989249991552,-0.0445625114436106,-0.04468095822081364
743,0.042394191710758464,74.97625621181814,-0.7022726548692666,-0.04455800172909376,-0.04134466778288643
744,0.04239412598695361,74.97625621181814,-0.7023783560878459,-0.04454204168894068,-0.03800330706661368
745,0.04239406028238567,74.97625621181814,-0.7019906816000436,-0.044516290183343174,-0.034631433240715485
746,0.04239399459708218,74.97625621181814,-0.7011187086017369,-0.04448527594037069,-0.031214815221099666
747,0.04239392893107066,74.97625621181814,-0.6997977760466403,-0.04445507103422221,-0.027734489327244982
748,0.04239386328437862,74.97625621181814,-0.6980836533535031,-0.044431404219529055,-0.024156669735391573
749,0.042393797657033584,74.97625621181814,-0.6960611439550372,-0.04441821031281021,-0.020431230838775297
750,0.042393732049063076,74.97625621181814,-0.6938613436411747,-0.04441733771053224,-0.016491793112520175
751,0.04239366646049461,74.97625621181814,-0.691670351206754,-0.044429268302439984,-0.012250704710000455
752,0.04239360089135571,74.97625621181814,-0.6897218832499363,-0.044453904311595314,-0.00758925532840599
753,0.042393535341673894,74.97625621181814,-0.6882831310422928,-0.04449043626061968,-0.0023471141088371628
754,0.042393469811476694,74.97625621181814,-0.6876457033782992,-0.04453632879670753,0.003683988274412759
755,0.042393404300791644,74.97625621181814,-0.6881197847987899,-0.04458639713306929,0.010757184978766706
756,0.04239333880964626,74.97625621181814,-0.6900197587369946,-0.04463274266736128,0.019155046079393036
757,0.042393273338068076,74.97625621181814,-0.6936360691855653,-0.04466562212664845,0.02916052038702193
758,0.04239320788608461,74.97625621181814,-0.6991967140517549,-0.044674887971605244,0.041013089166390064
759,0.04239314245372341,74.97625621181814,-0.7068193046043819,-0.044651489897609586,0.05485188795444208
760,0.04239307704101199,74.97625621181814,-0.7164500313754273,-0.04458870729112719,0.07065372066668275
761,0.04239301164797788,74.97625621181814,-0.7277931234836567,-0.04448319554845112,0.08817691762511783
762,0.04239294627464861,74.97625621181814,-0.7402499634692947,-0.0443360718777541,0.10691920167941683
763,0.04239288092105171,74.97625621181814,-0.7528943725802444,-0.04415388690146949,0.12609415048122705
764,0.0423928155872147,74.97625621181814,-0.7645052365037912,-0.043949053302825544,0.14462993578632405
765,0.04239275027316512,74.97625621181814,-0.773666460510434,-0.04373957371284092,0.16119554760483193
766,0.04239268497893048,74.97625621181814,-0.7789315737132729,-0.04354814792728576,0.17426186277830452
767,0.04239261970453829,74.97625621181814,-0.7790405183463406,-0.043400718261637904,0.18220238474226044
768,0.04239255445001609,74.97625621181814,-0.7731633679507409,-0.04332460630875265,0.1834289251077877
769,0.04239248921539142,74.97625621181814,-0.7611145408622999,-0.04334618174189849,0.1765468869175279
770,0.0423924240006918,74.97625621181814,-0.7434546350598856,-0.04348735388920991,0.16051047233117938
771,0.04239235880594477,74.97625621181814,-0.7214309437803468,-0.04376054001023709,0.13476012913512175
772,0.042392293631177844,74.97625621181814,-0.6967844038195563,-0.04416328340557566,0.09932462128681528
773,0.04239222847641854,74.97625621181814,-0.6714820589189822,-0.044674310320485765,0.05486563672295544
774,0.04239216334169439,74.97625621181814,-0.6474199681475564,-0.04525235264800553,0.0026450087723463274
775,0.042392098227032916,74.97625621181814,-0.6261569385543914,-0.045838901599427856,-0.05558858407802189
776,0.04239203313246164,74.97625621181814,-0.6087612381811321,-0.046365455981576584,-0.11777212039516702
777,0.0423919680580081,74.97625621181814,-0.5958049573533378,-0.04676401265530573,-0.1817212372049413
778,0.042391903003699806,74.97625621181814,-0.587453092639824,-0.04697820009528439,-0.24530548819419243
779,0.04239183796956429,74.97625621181814,-0.583567050537936,-0.0469728017712873,-0.30658309697048125
780,0.04239177295562908,74.97625621181814,-0.5838028396167501,-0.04674028897949627,-0.3638901321251422
781,0.04239170796192168,74.97625621181814,-0.5877320807242865,-0.0463030320064921,-0.4158879974908359
782,0.04239164298846964,74.97625621181814,-0.5949717700045355,-0.04571008134765302,-0.4615719587403612
783,0.042391578035300484,74.97625621181814,-0.6052516546371516,-0.045029213834557866,-0.5002416957349924
784,0.04239151310244174,74.97625621181814,-0.6183728506079155,-0.044335930411319384,-0.5314427561179222
785,0.042391448189920945,74.97625621181814,-0.6340952618780793,-0.043700362031335815,-0.5549017850725918
786,0.042391383297765615,74.97625621181814,-0.6520306094991154,-0.04317492911020187,-0.5704833790823827
787,0.04239131842600328,74.97625621181814,-0.6715769401623891,-0.042788196275207184,-0.5781833480428514
788,0.042391253574661454,74.97625621181814,-0.6918892046710855,-0.0425472258099104,-0.5781504727279407
789,0.042391188743767655,74.97625621181814,-0.7118876009904743,-0.0424452279935996,-0.5707147562754337
790,0.042391123933349414,74.97625621181814,-0.7303248388267845,-0.04246965658637951,-0.5564037610509509
791,0.04239105914343427,74.97625621181814,-0.7459249863347975,-0.042607426490152964,-0.5359401155502215
792,0.042390994374049765,74.97625621181814,-0.7575707489706455,-0.04284637077205285,-0.510220550710196
793,0.042390929625223416,74.97625621181814,-0.7644941124347633,-0.043173876461365335,-0.48028013578319795
794,0.04239086489698275,74.97625621181814,-0.7664276398584385,-0.043573805580987696,-0.44724588715033103
795,0.042390800189355295,74.97625621181814,-0.7636689888799737,-0.044022780116581214,-0.41228037609639834
796,0.04239073550236857,74.97625621181814,-0.7570181744907167,-0.044488383412934915,-0.3765158261781304
797,0.0423906708360501,74.97625621181814,-0.7476010631836316,-0.044932284154355226,-0.34098853710217364
798,0.04239060619042743,74.97625621181814,-0.7366551056267937,-0.04531747473064933,-0.3065910073533391
799,0.042390541565528066,74.97625621181814,-0.725355305814548,-0.04561510257220666,-0.2740508490626392
800,0.042390476961379535,74.97625621181814,-0.7146985158749001,-0.04580825899104954,-0.2439287693992791
801,0.04239041237800936,74.97625621181814,-0.7054230203321866,-0.04589323521317383,-0.2166217944264015
802,0.042390347815445074,74.97625621181814,-0.6979604332742754,-0.04587857220344216,-0.19236601182423782
803,0.042390283273714205,74.97625621181814,-0.6924423280025076,-0.04578196910224164,-0.1712428521006567
804,0.042390218752844266,74.97625621181814,-0.6887689442825876,-0.04562632557099561,-0.15319510005432693
805,0.042390154252862786,74.97625621181814,-0.6867085151019968,-0.045436278951681036,-0.13805333032675032
806,0.042390089773797296,74.97625621181814,-0.6859769020988798,-0.0452353721892525,-0.12556703983605214
807,0.042390025315675324,74.97625621181814,-0.6862761329245445,-0.0450434983181007,-0.11543546862332106
808,0.0423899608785244,74.97625621181814,-0.6873147405921054,-0.044875080773550735,-0.10733814237488001
809,0.04238989646237206,74.97625621181814,-0.6888358736238934,-0.0447388517160242,-0.10096365875181079
810,0.042389832067245815,74.97625621181814,-0.690641665571796,-0.04463885283343196,-0.0960277783059957
811,0.0423897676931732,74.97625621181814,-0.692586646895381,-0.04457522832987998,-0.09227242423267074
812,0.04238970334018174,74.97625621181814,-0.694546634065695,-0.044544379327746776,-0.08944952368178408
813,0.042389639008298945,74.97625621181814,-0.6963981548480931,-0.04453943443861664,-0.08730372536186128
814,0.04238957469755235,74.97625621181814,-0.6980270900318194,-0.04455162922896747,-0.08556694554659608
815,0.04238951040796948,74.97625621181814,-0.6993518700458872,-0.04457204001770478,-0.08396974969025432
816,0.04238944613957788,74.97625621181814,-0.7003350612044922,-0.044592834044976416,-0.08226461387282545
817,0.042389381892405056,74.97625621181814,-0.7009740545849139,-0.044607703066887015,-0.08024955893258269
818,0.04238931766647854,74.97625621181814,-0.7012838211830404,-0.0446118434529295,-0.07778391435682301
819,0.04238925346182588,74.97625621181814,-0.7012886958844446,-0.04460218995518199,-0.07479673572897097
820,0.04238918927847459,74.97625621181814,-0.7010252147893541,-0.04457811205366813,-0.07129041152887212
821,0.04238912511645221,74.97625621181814,-0.7005449890780494,-0.044541945895960236,-0.06733660782302772
822,0.04238906097578624,74.97625621181814,-0.6999110371204519,-0.04449854223629978,-0.06306120925893824
823,0.04238899685650421,74.97625621181814,-0.699191601681072,-0.04445376027056024,-0.058622020128624094
824,0.04238893275863365,74.97625621181814,-0.698457105016873,-0.04441285537621079,-0.054187127420231185
825,0.04238886868220208,74.97625621181814,-0.6977795012342687,-0.044379677712811386,-0.049918962193596504
826,0.042388804627237035,74.97625621181814,-0.6972273904573169,-0.04435661196034895,-0.04596366751845595
827,0.042388740593766044,74.97625621181814,-0.6968533592626224,-0.04434484072156859,-0.042441634554563214
828,0.04238867658181664,74.97625621181814,-0.6966803502095783,-0.04434480560231538,-0.03943717206573341
829,0.04238861259141633,74.97625621181814,-0.6966965525956923,-0.044356555029433295,-0.036990331403899464
830,0.042388548622592635,74.97625621181814,-0.6968579835003077,-0.044379523546838384,-0.035093557023389184
831,0.042388484675373074,74.97625621181814,-0.6970916192673345,-0.04441203494007814,-0.033692791702910486
832,0.04238842074978518,74.97625621181814,-0.6972990176061622,-0.04445136262654889,-0.03269330389619929
833,0.0423883568458565,74.97625621181814,-0.6973667791449345,-0.044494474637312646,-0.031970795151055074
834,0.042388292963614564,74.97625621181814,-0.6971858412519263,-0.04453883265179603,-0.031385350052325574
835,0.042388229103086913,74.97625621181814,-0.6966728390968475,-0.04458275433247626,-0.030793177735602546
836,0.04238816526430106,74.97625621181814,-0.6957848479301146,-0.044625186940939074,-0.030051204140778845
837,0.04238810144728452,74.97625621181814,-0.6945265209850041,-0.044665039722976356,-0.029013245950407513
838,0.04238803765206483,74.97625621181814,-0.6929564962122886,-0.04470062578323898,-0.027521801629537823
839,0.042387973878669515,74.97625621181814,-0.6911983424742809,-0.044729718892352326,-0.02540076529331095
840,0.0423879101271261,74.97625621181814,-0.6894518999376855,-0.04475013834734359,-0.022451121187431124
841,0.042387846397462105,74.97625621181814,-0.6879955078533578,-0.04476036263130149,-0.018450159310809983
842,0.042387782689705056,74.97625621181814,-0.6871740123942978,-0.0447596932290576,-0.013156594910582435
843,0.04238771900388247,74.97625621181814,-0.6873740824378441,-0.044747750693459126,-0.0063236606774238115
844,0.042387655340021875,74.97625621181814,-0.6889912410162835,-0.04472361192590806,0.0022818084125097032
845,0.0423875916981508,74.97625621181814,-0.6923903981941448,-0.0446852441987249,0.012858665780659145
846,0.0423875280782968,74.97625621181814,-0.6978559631134985,-0.0446295080347334,0.025551185249022855
847,0.04238746448048739,74.97625621181814,-0.7055298857852019,-0.04455255531854995,0.04042605215664486
848,0.04238740090475011,74.97625621181814,-0.7153473931881406,-0.04445065544502925,0.057438914427007305
849,0.04238733735111245,74.97625621181814,-0.7269839024549124,-0.04432164017991714,0.07638471870921346
850,0.04238727381960196,74.97625621181814,-0.7398184330794243,-0.04416657709887683,0.09683634505110736
851,0.042387210310246164,74.97625621181814,-0.7529186518110655,-0.04399072697457542,0.11808824095544948
852,0.04238714682307258,74.97625621181814,-0.765066157228319,-0.04380335924500033,0.1391262401339931
853,0.04238708335810874,74.97625621181814,-0.774846480019488,-0.04361706640715281,0.15863715841302695
854,0.04238701991538217,74.97625621181814,-0.7808151493298964,-0.043447301840991395,0.17505990478214475
855,0.04238695649492038,74.97625621181814,-0.7817249346425184,-0.04331218074704243,0.1866758453553301
856,0.042386893096750915,74.97625621181814,-0.7767665757590448,-0.04323261833160489,0.19173886654337888
857,0.042386829720901305,74.97625621181814,-0.7657517186092092,-0.043232667029664204,0.18864257817880362
858,0.04238676636739908,74.97625621181814,-0.7491755828852071,-0.04333810757546255,0.1761076826354748
859,0.042386703036271775,74.97625621181814,-0.7281452484749241,-0.04357083758625345,0.1533574208520709
860,0.0423866397275469,74.97625621181814,-0.7042163838201158,-0.043939870556233676,0.12024699747112284
861,0.042386576441251995,74.97625621181814,-0.679194439240258,-0.04443347172660257,0.0773208326145648
862,0.04238651317741458,74.97625621181814,-0.6549237608120876,-0.04501674650403782,0.02578194649528602
863,0.04238644993606217,74.97625621181814,-0.6330622300562216,-0.04563509604634162,-0.032623706674504
864,0.04238638671722232,74.97625621181814,-0.6148612430717344,-0.04622092774365656,-0.09578221967361894
865,0.04238632352092255,74.97625621181814,-0.6010269385409444,-0.046702166712530295,-0.1614114310158316
866,0.042386260347190376,74.97625621181814,-0.5917397705122298,-0.04701290125153414,-0.22725630022444385
867,0.04238619719605331,74.97625621181814,-0.5868123374987161,-0.04710497666034158,-0.291254871158297
868,0.0423861340675389,74.97625621181814,-0.5858729075855202,-0.04695768824251223,-0.35165166061932773
869,0.042386070961674654,74.97625621181814,-0.5884800729818106,-0.04658362665555463,-0.4070477698792863
870,0.042386007878488126,74.97625621181814,-0.5941758064967175,-0.04602941271409009,-0.45639787594541037
871,0.04238594481800684,74.97625621181814,-0.602543767236747,-0.04536923377421291,-0.4989745124272934
872,0.0423858817802583,74.97625621181814,-0.6132844847398826,-0.04468995043357164,-0.5343136393947431
873,0.04238581876527005,74.97625621181814,-0.6262374633314793,-0.0440712372765527,-0.5621486530143813
874,0.042385755773069606,74.97625621181814,-0.6412913363272593,-0.043568868827455635,-0.5823444854067763
875,0.042385692803684503,74.97625621181814,-0.6582185693003679,-0.04320774737552832,-0.5948528642153276
876,0.042385629857142275,74.97625621181814,-0.6765363068607569,-0.04298490194068229,-0.5997077430814218
877,0.04238556693347043,74.97625621181814,-0.6954604256912755,-0.042878524035310436,-0.5970592369174327
878,0.04238550403269651,74.97625621181814,-0.7139524254144684,-0.042859010481838655,-0.5872234991281562
879,0.04238544115484804,74.97625621181814,-0.7308348741406795,-0.04289900137557033,-0.5707240658308436
880,0.04238537829995254,74.97625621181814,-0.7449525044147554,-0.04298030161992874,-0.5483091357386677
881,0.04238531546803754,74.97625621181814,-0.7553463476957599,-0.04309652611808488,-0.5209358909634705
882,0.04238525265913056,74.97625621181814,-0.7613980392426828,-0.04325138225749369,-0.4897205323317373
883,0.04238518987325912,74.97625621181814,-0.7629179052046885,-0.043453657945830185,-0.45586424266218095
884,0.042385127110450754,74.97625621181814,-0.760175166431904,-0.04371056467453614,-0.42057207228418814
885,0.04238506437073298,74.97625621181814,-0.7538626086192688,-0.0440210398374114,-0.38497819229887004
886,0.042385001654133336,74.97625621181814,-0.7449808276651853,-0.0443712319440249,-0.35008414604247995
887,0.04238493896067935,74.97625621181814,-0.7346630518086152,-0.04473494019065712,-0.3167136464302188
888,0.04238487629039857,74.97625621181814,-0.7240029933784445,-0.04507935438219827,-0.28548647098800595
889,0.0423848136433185,74.97625621181814,-0.7139360840087725,-0.04537277775537931,-0.2568118835914466
890,0.0423847510194667,74.97625621181814,-0.705171893288736,-0.045591008601622476,-0.23089942708059705
891,0.042384688418870685,74.97625621181814,-0.6981518565794236,-0.0457213285569777,-0.2077836596391708
892,0.042384625841557985,74.97625621181814,-0.6930334010907278,-0.0457634858562512,-0.18735921874528036
893,0.04238456328755613,74.97625621181814,-0.6897227892954292,-0.045727292533194915,-0.16942316448647426
894,0.042384500756892644,74.97625621181814,-0.6879578297586318,-0.04562841259840991,-0.1537219068041582
895,0.04238443824959503,74.97625621181814,-0.6874046745958544,-0.04548482114181369,-0.13999667407410343
896,0.042384375765690804,74.97625621181814,-0.6877259839724925,-0.04531489325331073,-0.12801641588806625
897,0.042384313305207505,74.97625621181814,-0.6886115554034586,-0.04513639450187125,-0.11758983152857473
898,0.042384250868172664,74.97625621181814,-0.6897953551744481,-0.04496535083369016,-0.1085598702494466
899,0.042384188454613815,74.97625621181814,-0.6910782254265768,-0.04481467412184427,-0.10079111864998083
900,0.04238412606455848,74.97625621181814,-0.6923462297017948,-0.044693241910937265,-0.09415577467629786
901,0.042384063698034186,74.97625621181814,-0.6935618961925355,-0.04460574958347423,-0.08851803344903138
902,0.04238400135506846,74.97625621181814,-0.6947283450208757,-0.0445528936530095,-0.08371865561927866
903,0.042383939035688815,74.97625621181814,-0.6958530663083446,-0.044531539016976235,-0.07956497970562729
904,0.0423838767399228,74.97625621181814,-0.6969329599202173,-0.04453509247636797,-0.0758302028132695
905,0.042383814467797924,74.97625621181814,-0.6979544067123941,-0.044554433774208924,-0.07226379383032257
906,0.04238375221934172,74.97625621181814,-0.6988902605671333,-0.044579441404648874,-0.06861446329856684
907,0.04238368999458174,74.97625621181814,-0.6996919567857091,-0.04460092105718678,-0.064661994086884
908,0.0423836277935455,74.97625621181814,-0.7002896667995859,-0.04461254423467019,-0.06024693559497907
909,0.04238356561626053,74.97625621181814,-0.7006066692440739,-0.044611951210195656,-0.05528739847111006
910,0.04238350346275436,74.97625621181814,-0.700578627779127,-0.0446001977864339,-0.04977788355203678
911,0.04238344133305452,74.97625621181814,-0.7001634289187545,-0.044580004540400384,-0.043770789024514443
912,0.042383379227188545,74.97625621181814,-0.6993395681179734,-0.04455440730441109,-0.03734827299748416
913,0.04238331714518394,74.97625621181814,-0.6981077816998802,-0.044526637844557876,-0.030595584301327083
914,0.042383255087068215,74.97625621181814,-0.6965085690358832,-0.04450047609595972,-0.023580325708323406
915,0.04238319305286892,74.97625621181814,-0.6946468393998166,-0.04447992090035795,-0.016333948276582338
916,0.04238313104261358,74.97625621181814,-0.6927057283281143,-0.04446792242556781,-0.008832951713498145
917,0.04238306905632972,74.97625621181814,-0.6909471653023804,-0.04446496573303696,-0.00098311426005238
918,0.042383007094044876,74.97625621181814,-0.6897075004356723,-0.044468500140677214,0.007387974395930104
919,0.04238294515578657,74.97625621181814,-0.689387438603135,-0.044473641898609896,0.01652592033837739
920,0.04238288324158233,74.97625621181814,-0.6904256206839209,-0.04447476129978263,0.02672864461706933
921,0.042382821351459675,74.97625621181814,-0.6932486470284276,-0.044466825169238215,0.0383072362039405
922,0.04238275948544615,74.97625621181814,-0.6982019647447432,-0.044445607802082995,0.051529637762364404
923,0.042382697643569264,74.97625621181814,-0.7054751750731394,-0.0444072240431072,0.06655322390181642
924,0.04238263582585655,74.97625621181814,-0.7150362243524737,-0.04434811700745176,0.08335576297899426
925,0.04238257403233553,74.97625621181814,-0.726580079612511,-0.044265859566034405,0.1016753016675639
926,0.04238251226303373,74.97625621181814,-0.739488900232027,-0.04416031237678594,0.12096838757407889
927,0.04238245051797869,74.97625621181814,-0.7528094141569481,-0.04403476245409128,0.14039242344757263
928,0.042382388797197926,74.97625621181814,-0.7652721386165008,-0.0438969370566992,0.15881435427925839
929,0.04238232710071895,74.97625621181814,-0.7753793573115216,-0.0437596583444577,0.17484792933286936
930,0.04238226542856931,74.97625621181814,-0.7815687225076967,-0.04364076103966148,0.18692405395437045
931,0.042382203780776534,74.97625621181814,-0.7824375605643004,-0.043562065511522106,0.19339885220169947
932,0.04238214215736816,74.97625621181814,-0.7769992074751396,-0.0435474396773564,0.19269795953157076
933,0.04238208055837171,74.97625621181814,-0.7649219227587349,-0.04361993386507156,0.18348233124882826
934,0.04238201898381472,74.97625621181814,-0.7466747837868247,-0.04379769819336777,0.16480975826533711
935,0.04238195743372471,74.97625621181814,-0.7235156992581335,-0.0440887093554867,0.13626768541343098
936,0.0423818959081292,74.97625621181814,-0.6973195531105123,-0.044485685018561344,0.09805971469347055
937,0.042381834407055716,74.97625621181814,-0.6702974664328031,-0.04496334371007513,0.05102892434838452
938,0.04238177293053179,74.97625621181814,-0.6446568496848666,-0.045478885803752526,-0.003395488117037253
939,0.042381711478584945,74.97625621181814,-0.6222550107597173,-0.045975369013748296,-0.06332602292376714
940,0.04238165005124272,74.97625621181814,-0.6043457898922656,-0.046388445585896505,-0.12660045504709572
941,0.04238158864853264,74.97625621181814,-0.5915183047041782,-0.04665671442731765,-0.19099158851791392
942,0.042381527270482236,74.97625621181814,-0.5838209476935532,-0.04673333402316733,-0.2544025106442786
943,0.04238146591711904,74.97625621181814,-0.5809534862378168,-0.04659572552509031,-0.315006192552843
944,0.04238140458847058,74.97625621181814,-0.5824150967989764,-0.0462519438430368,-0.37131114361288214
945,0.04238134328456438,74.97625621181814,-0.5876021089451184,-0.045742422277449374,-0.4221661077099147
946,0.04238128200542797,74.97625621181814,-0.5959144989215567,-0.04513449384579606,-0.4667305690510384
947,0.042381220751088876,74.97625621181814,-0.6068729206647356,-0.044508510909739736,-0.5044276254231166
948,0.04238115952157462,74.97625621181814,-0.6201708742943203,-0.04393914902036865,-0.5348817861045913
949,0.04238109831691273,74.97625621181814,-0.6356046172322953,-0.0434794895702983,-0.5578495773626181
950,0.042381037137130755,74.97625621181814,-0.6529152345726648,-0.04315406435411952,-0.5731694292194168
951,0.0423809759822562,74.97625621181814,-0.6716396967602135,-0.042961256205938374,-0.5807593323503834
952,0.0423809148523166,74.97625621181814,-0.6910414243037111,-0.042881410876146324,-0.5806637231843803
953,0.04238085374733947,74.97625621181814,-0.7101305437490588,-0.04288693251510501,-0.5731195809119835
954,0.04238079266735235,74.97625621181814,-0.7277564966354378,-0.04295165794127349,-0.5586047619066571
955,0.04238073161238275,74.97625621181814,-0.7427530831163726,-0.04305741224677369,-0.5378477423775541
956,0.04238067058245819,74.97625621181814,-0.7541096868300313,-0.0431965334955735,-0.5117979018561333
957,0.042380609577606185,74.97625621181814,-0.7611309341326561,-0.043370423280772306,-0.4815681292264243
958,0.042380548597854284,74.97625621181814,-0.7635523006688361,-0.04358517997600993,-0.4483653799750291
959,0.042380487643230026,74.97625621181814,-0.7615952394304367,-0.04384574980964962,-0.4134202455494631
960,0.042380426713760945,74.97625621181814,-0.7559414759454333,-0.044149975082324475,-0.3779181164919992
961,0.04238036580947456,74.97625621181814,-0.7476076965175007,-0.04448452112179902,-0.34293168266891894
962,0.04238030493039839,74.97625621181814,-0.7377474190333635,-0.04482534465398228,-0.3093598782337676
963,0.04238024407655997,74.97625621181814,-0.7274563566821947,-0.04514300339799722,-0.27788476768126885
964,0.042380183247986834,74.97625621181814,-0.7176467348681176,-0.045409376942126205,-0.24895834507949885
965,0.04238012244470651,74.97625621181814,-0.7089915121756243,-0.04560272314654558,-0.22282157943630151
966,0.042380061666746516,74.97625621181814,-0.7019001682622376,-0.045710924364166676,-0.19954368720387886
967,0.042380000914134394,74.97625621181814,-0.6965133754469661,-0.04573316026074471,-0.17906546370906418
968,0.04237994018689766,74.97625621181814,-0.6927372218882514,-0.045679084407041104,-0.16123869748741898
969,0.04237987948506385,74.97625621181814,-0.6903268043732288,-0.04556543723569656,-0.14586101818304611
970,0.04237981880866049,74.97625621181814,-0.6889904818783921,-0.04541200540203421,-0.13270466244161508
971,0.04237975815771511,74.97625621181814,-0.6884661232095577,-0.045238728615290213,-0.12153442059549067
972,0.042379697532255234,74.97625621181814,-0.6885451553953599,-0.04506380914470428,-0.11211371842760764
973,0.042379636932308395,74.97625621181814,-0.6890629900218839,-0.04490202441440845,-0.1042064943694742
974,0.04237957635790213,74.97625621181814,-0.6898886055695669,-0.04476355594753409,-0.09758373783505431
975,0.042379515809063954,74.97625621181814,-0.6909222191306882,-0.044654030819898154,-0.09203460732093162
976,0.04237945528582141,74.97625621181814,-0.6920872060055059,-0.044575376744800846,-0.08737482021189256
977,0.04237939478820202,74.97625621181814,-0.6933119288642492,-0.04452640673379354,-0.08344678374013367
978,0.0423793343162333,74.97625621181814,-0.6945172925837032,-0.04450293338370371,-0.08011253685927792
979,0.04237927386994279,74.97625621181814,-0.6956248057715178,-0.04449830038654042,-0.07724544770589983
980,0.042379213449358015,74.97625621181814,-0.696578243737987,-0.04450492834151023,-0.07472482522350751
981,0.042379153054506485,74.97625621181814,-0.6973563733074837,-0.04451634774024732,-0.07243171131945245
982,0.04237909268541574,74.97625621181814,-0.6979656188632564,-0.04452848512469949,-0.07024533797591387
983,0.0423790323421133,74.97625621181814,-0.6984239472177081,-0.044539371216306765,-0.06804654443604637
984,0.042378972024626704,74.97625621181814,-0.6987522416749647,-0.04454778649980325,-0.0657309078437704
985,0.042378911732983464,74.97625621181814,-0.6989747327067739,-0.04455210209033676,-0.06322360062492938
986,0.04237885146721112,74.97625621181814,-0.6991166851289148,-0.04455002967258622,-0.06048850814736163
987,0.04237879122733719,74.97625621181814,-0.6991941893345429,-0.04453932291866016,-0.05753234984299297
988,0.042378731013389195,74.97625621181814,-0.6992076604958302,-0.04451905083731653,-0.0544053720107252
989,0.04237867082539468,74.97625621181814,-0.6991506518865489,-0.04449057631828507,-0.051196461970063785
990,0.04237861066338119,74.97625621181814,-0.699026237655138,-0.04445742247910028,-0.0480205791051496
991,0.04237855052737622,74.97625621181814,-0.6988521099758541,-0.04442408878947744,-0.04499972166299336
992,0.042378490417407315,74.97625621181814,-0.6986485346266097,-0.04439465577773144,-0.0422423325268825
993,0.042378430333502005,74.97625621181814,-0.6984227871141624,-0.04437205558221481,-0.03982707494824416
994,0.04237837027568783,74.97625621181814,-0.6981660310045276,-0.04435833536381323,-0.03779426939231137
995,0.042378310243992315,74.97625621181814,-0.6978618621593164,-0.04435527094581414,-0.03614413715175498
996,0.04237825023844297,74.97625621181814,-0.6974924990654557,-0.044364279940031004,-0.03483767737473213
997,0.04237819025906734,74.97625621181814,-0.6970364722293838,-0.04438560747241521,-0.033796827178881536
998,0.04237813030589295,74.97625621181814,-0.6964656105560855,-0.04441779175830334,-0.03290615996245266
999,0.04237807037894734,74.97625621181814,-0.6957490644149716,-0.04445802980068782,-0.032021020946005244
1000,0.042378010478258045,74.97625621181814,-0.6948634406902009,-0.04450308082680235,-0.03098022645752279
1001,0.04237795060385258,74.97625621181814,-0.6938045625007043,-0.0445499624023846,-0.029613554365695006
1002,0.04237789075575847,74.97625621181814,-0.6925986369910627,-0.04459608267520953,-0.027737225678409007
1003,0.04237783093400324,74.97625621181814,-0.6913135374208565,-0.04463906424097689,-0.02514091606246742
1004,0.0423777711386144,74.97625621181814,-0.6900729475647206,-0.04467665008955994,-0.021576381516082817
1005,0.04237771136961948,74.97625621181814,-0.6890729385090139,-0.044706675640352765,-0.01675698582477891
1006,0.042377651627046015,74.97625621181814,-0.6885914825150374,-0.0447268684007558,-0.01037155041247651
1007,0.042377591910921525,74.97625621181814,-0.6889792122047541,-0.04473455708026058,-0.0021099100029515917
1008,0.04237753222127355,74.97625621181814,-0.6906296064543915,-0.044726566512067946,0.00830402989582951
1009,0.04237747255812962,74.97625621181814,-0.6939341857552714,-0.044699364450344385,0.02107494672215387
1010,0.042377412921517255,74.97625621181814,-0.6992245023960278,-0.04464940866739292,0.03629807251845207
1011,0.04237735331146398,74.97625621181814,-0.7067003301118295,-0.04457358394150242,0.053924008953672
1012,0.042377293727997326,74.97625621181814,-0.7163516620715001,-0.0444695391964177,0.07372693221139809
1013,0.042377234171144834,74.97625621181814,-0.7278898061254223,-0.04433603789544861,0.0952748500749994
1014,0.04237717464093404,74.97625621181814,-0.7407014583363878,-0.04417381142174086,0.11790308369622154
1015,0.04237711513739247,74.97625621181814,-0.7538362172171742,-0.04398709708667003,0.14069491525362815
1016,0.042377055660547655,74.97625621181814,-0.76603949230899,-0.043785262919920125,0.16247473736338008
1017,0.042376996210427106,74.97625621181814,-0.775845835887064,-0.04358357377318569,0.1818238728659639
1018,0.04237693678705836,74.97625621181814,-0.7817439356534328,-0.04340267470905284,0.1971336766904287
1019,0.042376877390468956,74.97625621181814,-0.7824082726371998,-0.04326722246544507,0.20670372360447378
1020,0.042376818020686435,74.97625621181814,-0.776962056749089,-0.04320420181332881,0.20887715535457063
1021,0.04237675867773832,74.97625621181814,-0.7651986723354234,-0.043240565780592696,0.20219426012873237
1022,0.04237669936165212,74.97625621181814,-0.7476746651112229,-0.043399136628442206,0.1855469050279039
1023,0.04237664007245536,74.97625621181814,-0.7256295773341479,-0.04369244892458778,0.1583234997795505
1024,0.04237658081017556,74.97625621181814,-0.700769129676141,-0.04411607995922831,0.12053032378576141
1025,0.04237652157484025,74.97625621181814,-0.6750007171715644,-0.04464436927350096,0.0728600938074451
1026,0.04237646236647696,74.97625621181814,-0.6501943269211242,-0.04523096841347966,0.016675489383972005
1027,0.0423764031851132,74.97625621181814,-0.6279903121625323,-0.04581448527095387,-0.04610248149733955
1028,0.04237634403077651,74.97625621181814,-0.6096417240335242,-0.046327139314604304,-0.11317867855579805
1029,0.042376284903494425,74.97625621181814,-0.5958941144868135,-0.046703985562628905,-0.1821004254904285
1030,0.042376225803294476,74.97625621181814,-0.5869538764011863,-0.04689201279547454,-0.25047160774927385
1031,0.042376166730204196,74.97625621181814,-0.582592623826717,-0.046859193627285654,-0.31613935333155774
1032,0.04237610768425111,74.97625621181814,-0.5823470697037284,-0.04660218187842629,-0.37732923573454424
1033,0.04237604866546274,74.97625621181814,-0.5857029774350387,-0.04615050647278773,-0.43270749255487756
1034,0.04237598967386662,74.97625621181814,-0.5921860199405724,-0.045565025837795085,-0.48136600056807466
1035,0.04237593070949029,74.97625621181814,-0.6013843680738155,-0.0449277936255617,-0.5227501452522766
1036,0.042375871772361295,74.97625621181814,-0.6129731605490792,-0.04432326333575295,-0.5565622719655603
1037,0.042375812862507155,74.97625621181814,-0.6267407803625117,-0.04381805580388639,-0.5826682376583519
1038,0.04237575397995541,74.97625621181814,-0.6425444905293172,-0.04344887343250183,-0.6010241388355141
1039,0.04237569512473359,74.97625621181814,-0.6601638596139312,-0.04322146108479507,-0.6116355621035188
1040,0.042375636296869225,74.97625621181814,-0.6791251499191548,-0.043117280523509584,-0.6145586267115856
1041,0.042375577496389844,74.97625621181814,-0.6986106175570136,-0.04310395103209431,-0.6099399275930787
1042,0.04237551872332295,74.97625621181814,-0.7175029108652262,-0.04314627186727335,-0.5980750311217536
1043,0.04237545997769608,74.97625621181814,-0.7345353972861969,-0.0432151855358477,-0.579460138300532
1044,0.04237540125953676,74.97625621181814,-0.7484960590208221,-0.04329336295597773,-0.554820869878314
1045,0.042375342568872494,74.97625621181814,-0.7584325785908983,-0.043377136880078104,-0.5251103079095146
1046,0.04237528390573081,74.97625621181814,-0.7638025182897349,-0.04347479489156086,-0.49147172842097137
1047,0.04237522527013924,74.97625621181814,-0.7645335133104465,-0.04360169430539421,-0.4551695086759728
1048,0.04237516666212533,74.97625621181814,-0.761005820065831,-0.043773529368388485,-0.4175031563240899
1049,0.04237510808171661,74.97625621181814,-0.753991008922925,-0.043999437762823446,-0.3797210474138081
1050,0.04237504952894059,74.97625621181814,-0.7445513155549726,-0.04427628955749342,-0.34294194561073343
1051,0.04237499100382481,74.97625621181814,-0.7338843331358942,-0.04458629790466007,-0.30808791861948426
1052,0.0423749325063968,74.97625621181814,-0.7231347625177739,-0.04490057991017841,-0.2758353425859414
1053,0.04237487403668407,74.97625621181814,-0.7132378048004246,-0.04518735758365558,-0.2465923919603762
1054,0.042374815594714184,74.97625621181814,-0.7048442640715512,-0.04541949265659305,-0.22050834169561895
1055,0.04237475718051465,74.97625621181814,-0.698317620897182,-0.04557853611854242,-0.19751317352160966
1056,0.04237469879411301,74.97625621181814,-0.6937574955424985,-0.045656414553849875,-0.177376222449144
1057,0.042374640435536785,74.97625621181814,-0.6910291936661661,-0.04565552314130144,-0.15976732706718813
1058,0.04237458210481352,74.97625621181814,-0.6898174203334442,-0.04558685717015292,-0.14431052943431352
1059,0.04237452380197075,74.97625621181814,-0.6897173331636695,-0.045466706953786316,-0.1306302406140059
1060,0.042374465527036,74.97625621181814,-0.6903355131357992,-0.04531330373941411,-0.11838904923688723
1061,0.04237440728003679,74.97625621181814,-0.6913528386806547,-0.04514437028092527,-0.10731091951315981
1062,0.04237434906100064,74.97625621181814,-0.6925341561549416,-0.04497562270392239,-0.09718789547722714
1063,0.04237429086995507,74.97625621181814,-0.6937138582165162,-0.04481987962919454,-0.08787730476680197
1064,0.0423742327069276,74.97625621181814,-0.6947876220148483,-0.04468663686028705,-0.0792959750629387
1065,0.04237417457194575,74.97625621181814,-0.6957090654701045,-0.04458197152489907,-0.07141114716383998
1066,0.04237411646503705,74.97625621181814,-0.6964741798150238,-0.04450834831447176,-0.06422635246802565
1067,0.04237405838622902,74.97625621181814,-0.6970935867953489,-0.044464286741613686,-0.05776464990607367
1068,0.04237400033554921,74.97625621181814,-0.6975717091877635,-0.04444474088041896,-0.052053384622630754
1069,0.042373942313025166,74.97625621181814,-0.697905477938887,-0.04444283804475463,-0.04711180484424373
1070,0.042373884318684434,74.97625621181814,-0.698094365809165,-0.044452228948383195,-0.04293948978669941
1071,0.04237382635255455,74.97625621181814,-0.6981441548521867,-0.04446851996444963,-0.0395042617457277
1072,0.04237376841466304,74.97625621181814,-0.6980577905117806,-0.04448901961053925,-0.036732119997090425
1073,0.04237371050503743,74.97625621181814,-0.6978236379487486,-0.04451151292847687,-0.03450316439737893
1074,0.04237365262370525,74.97625621181814,-0.6974159368726992,-0.0445334152376379,-0.032655333861886515
1075,0.04237359477069403,74.97625621181814,-0.6968088498377127,-0.04455180167624928,-0.030994594130016827
1076,0.04237353694603127,74.97625621181814,-0.6959905484216464,-0.04456387036998394,-0.029308340478419778
1077,0.04237347914974451,74.97625621181814,-0.6949680998464608,-0.04456761689291364,-0.02737989619930031
1078,0.04237342138186126,74.97625621181814,-0.6937689337490188,-0.04456280493015547,-0.0250030581868908
1079,0.04237336364240908,74.97625621181814,-0.6924482047385443,-0.04455165389905382,-0.02199270960800482
1080,0.04237330593141551,74.97625621181814,-0.6911025886481624,-0.04453820735742632,-0.018184409205831316
1081,0.042373248248908056,74.97625621181814,-0.6898827686278468,-0.04452636388526086,-0.013420776087954396
1082,0.04237319059491423,74.97625621181814,-0.688997575755542,-0.044517905075267226,-0.007534326413342189
1083,0.04237313296946155,74.97625621181814,-0.688711479858937,-0.044511746993617866,-0.00034156757686015245
1084,0.042373075372577555,74.97625621181814,-0.6893404226468506,-0.044504485937950936,0.008345760495241621
1085,0.042373017804289786,74.97625621181814,-0.6912399744805341,-0.04449161399990017,0.018698313385223007
1086,0.042372960264625774,74.97625621181814,-0.6947712083112713,-0.04446871740866686,0.030843895057456678
1087,0.04237290275361305,74.97625621181814,-0.7002393421967269,-0.04443209960513365,0.044841692881333745
1088,0.04237284527127915,74.97625621181814,-0.7078164812634556,-0.044378751185407204,0.06065275896391669
1089,0.0423727878176516,74.97625621181814,-0.7174665054497836,-0.04430626377649818,0.07810281517175369
1090,0.04237273039275793,74.97625621181814,-0.7288843357993842,-0.04421333912585282,0.09683793854043607
1091,0.042372672996625664,74.97625621181814,-0.7414534257104198,-0.044100889484137346,0.11628123774394997
1092,0.04237261562928235,74.97625621181814,-0.7542286651102238,-0.04397324683792192,0.1356033004611617
1093,0.04237255829075551,74.97625621181814,-0.7659636446676465,-0.04383902732838629,0.15371673296351082
1094,0.042372500981072654,74.97625621181814,-0.7752040661651428,-0.043711367392550486,0.16930171440903985
1095,0.04237244370026131,74.97625621181814,-0.7804562722727683,-0.04360746537761234,0.18086976608039387
1096,0.042372386448348995,74.97625621181814,-0.7804187617584186,-0.04354757207796479,0.18686896306454734
1097,0.04237232922536324,74.97625621181814,-0.7742401090188377,-0.043553524538560866,0.18582221961063894
1098,0.042372272031331586,74.97625621181814,-0.761737908462142,-0.043646389250636054,0.17648050456643435
1099,0.04237221486628155,74.97625621181814,-0.7434997005701701,-0.04384229908601766,0.15797123273922462
1100,0.042372157730240674,74.97625621181814,-0.7208224630496758,-0.0441465721899744,0.12992440907312275
1101,0.0423721006232365,74.97625621181814,-0.69551690445686,-0.0445484130893098,0.09255766907347557
1102,0.04237204354529657,74.97625621181814,-0.6696386974112917,-0.045019069609605986,0.04669808876276569
1103,0.04237198649644842,74.97625621181814,-0.6451889867687888,-0.045514080668063915,-0.006273417986346924
1104,0.04237192947671956,74.97625621181814,-0.6238197566881983,-0.04597818097148056,-0.0645495103032548
1105,0.04237187248613754,74.97625621181814,-0.6066245783159999,-0.04635201712868072,-0.12607331754127094
1106,0.042371815524729864,74.97625621181814,-0.5941032252657864,-0.046580756920338154,-0.18873338053820693
1107,0.04237175859252408,74.97625621181814,-0.5862928869465328,-0.04662373279901207,-0.25054024038874473
1108,0.042371701689547715,74.97625621181814,-0.5829516344523373,-0.046463392719563956,-0.3097521519890201
1109,0.04237164481582829,74.97625621181814,-0.5836871355538379,-0.046111844565466784,-0.3649350060362898
1110,0.042371587971393315,74.97625621181814,-0.5880326019786296,-0.045612417849817566,-0.4149657865746804
1111,0.04237153115627031,74.97625621181814,-0.5955338720983785,-0.04503305420386996,-0.4590025298212777
1112,0.04237147437048681,74.97625621181814,-0.6058482568914352,-0.04445120826444334,-0.4964387951796159
1113,0.04237141761407033,74.97625621181814,-0.6187778415559,-0.04393536770545268,-0.5268499941516379
1114,0.04237136088704843,74.97625621181814,-0.6341814084471723,-0.043530939124587185,-0.5499388055499981
1115,0.04237130418944863,74.97625621181814,-0.6518028040307344,-0.04325514106528344,-0.5654980095759414
1116,0.04237124752129845,74.97625621181814,-0.6711166949750731,-0.043100216038506375,-0.5734138662440275
1117,0.04237119088262543,74.97625621181814,-0.6912685561153734,-0.04304166030765982,-0.5737144245533115
1118,0.04237113427345709,74.97625621181814,-0.7111209573261527,-0.043048400196120114,-0.5666369522665726
1119,0.04237107769382097,74.97625621181814,-0.7293798192616631,-0.043092409730682894,-0.5526777465001737
1120,0.042371021143744636,74.97625621181814,-0.7447681276342237,-0.04315556560879422,-0.5326026839270855
1121,0.0423709646232556,74.97625621181814,-0.7562125481879689,-0.04323235869317345,-0.5074163758804098
1122,0.04237090813238139,74.97625621181814,-0.7630039850878253,-0.043328501535050516,-0.4782966217064039
1123,0.04237085167114953,74.97625621181814,-0.7649051850606673,-0.04345668638234651,-0.4465048562938329
1124,0.042370795239587554,74.97625621181814,-0.7621942697799219,-0.043631050228769744,-0.41328861552463714
1125,0.04237073883772298,74.97625621181814,-0.7556266992726081,-0.04386125267421041,-0.3797927356736641
1126,0.042370682465583336,74.97625621181814,-0.746302499283482,-0.0441466787646699,-0.346989521698418
1127,0.042370626123196156,74.97625621181814,-0.7354683440752755,-0.044472794419013854,-0.3156325995691409
1128,0.04237056981058897,74.97625621181814,-0.7243220598481034,-0.04481269269948903,-0.28623926349240314
1129,0.04237051352778929,74.97625621181814,-0.7138769248926443,-0.04513351335692116,-0.25910538463347615
1130,0.042370457274824656,74.97625621181814,-0.7048920837295484,-0.04540383148592053,-0.23434757985993376
1131,0.04237040105172261,74.97625621181814,-0.6978365037540586,-0.04559947220118985,-0.2119557254978003
1132,0.04237034485851067,74.97625621181814,-0.692872322553251,-0.045707409554359174,-0.19183899609619542
1133,0.04237028869521637,74.97625621181814,-0.6898806396659711,-0.04572708573533033,-0.17385859619593708
1134,0.04237023256186725,74.97625621181814,-0.6885434453786037,-0.04566863978797623,-0.15784833638662993
1135,0.04237017645849084,74.97625621181814,-0.688449916047289,-0.04554915887236814,-0.14362800857034502
1136,0.042370120385114673,74.97625621181814,-0.6891780187863882,-0.045388886389459406,-0.13101614859728056
1137,0.04237006434176627,74.97625621181814,-0.6903369996881042,-0.04520831792135809,-0.11984585604930505
1138,0.042370008328473166,74.97625621181814,-0.6915946248804932,-0.04502590197244783,-0.10998033459622364
1139,0.04236995234526289,74.97625621181814,-0.6927090642968646,-0.04485636882682868,-0.10131977281625135
1140,0.042369896392162966,74.97625621181814,-0.6935536863702266,-0.04471029142546876,-0.09379329312645993
1141,0.042369840469200906,74.97625621181814,-0.694111388384823,-0.04459470198247924,-0.08733895956308602
1142,0.04236978457640425,74.97625621181814,-0.6944400561503657,-0.04451363616825957,-0.081882950955684
1143,0.042369728713800535,74.97625621181814,-0.6946351640116959,-0.04446787188611846,-0.07732655852695156
1144,0.04236967288141729,74.97625621181814,-0.6948080500251389,-0.04445434569595234,-0.07354135448481672
1145,0.04236961707928205,74.97625621181814,-0.6950733024249022,-0.0444662658329785,-0.07036896395226117
1146,0.04236956130742234,74.97625621181814,-0.6955274575903564,-0.04449427054668916,-0.0676222852499511
1147,0.04236950556586567,74.97625621181814,-0.6962177436416278,-0.04452815516647919,-0.06508871822847445
1148,0.04236944985463958,74.97625621181814,-0.6971223930370326,-0.04455867792812293,-0.06254282920093786
1149,0.042369394173771606,74.97625621181814,-0.6981599238762609,-0.04457915826494108,-0.059775227397393285
1150,0.042369338523289286,74.97625621181814,-0.6992171828298841,-0.044586239215806976,-0.05663063396170167
1151,0.042369282903220146,74.97625621181814,-0.7001731823290003,-0.04457928816426431,-0.05303678828546794
1152,0.0423692273135917,74.97625621181814,-0.700911611323634,-0.04455918742782436,-0.049011131788327375
1153,0.04236917175443148,74.97625621181814,-0.7013299356488969,-0.04452789912533093,-0.044645293914615185
