,time,sample_rate,Red,Green,Blue
0,-0.8138885105087166,73.17824873692001,-0.15240549401367834,-0.004210046724136872,-0.10031133849350748
1,-0.8142974655016436,73.17824873692001,-0.1505427865566097,-0.004150758059072465,-0.10431860183610003
2,-0.8151835079817507,73.17824873692001,-0.14942364366254493,-0.0040968233368243135,-0.10845872244815179
3,-0.8166389623571195,73.17824873692001,-0.14929982988908472,-0.004052046776305116,-0.11259987459491956
4,-0.8187073629996396,73.17824873692001,-0.15029636736779967,-0.004018713202779449,-0.11657690947999386
5,-0.8213627774198047,73.17824873692001,-0.15238659611946176,-0.003997674698832052,-0.12019402997236593
6,-0.824491083854046,73.17824873692001,-0.155381221112386,-0.00398812113492385,-0.12322602497245183
7,-0.8278767551976884,73.17824873692001,-0.15892965809397805,-0.003987537556664059,-0.12542016162803868
8,-0.8311995886015318,73.17824873692001,-0.1625390184439288,-0.003992389939239423,-0.1265023999684061
9,-0.8340464546607879,73.17824873692001,-0.16561359964857372,-0.003999210687188852,-0.1261921927616642
10,-0.8359433025209193,73.17824873692001,-0.16751568260228614,-0.00400523453435549,-0.12423264624778943
11,-0.8364119939878307,73.17824873692001,-0.16764882878703571,-0.004008372262636115,-0.12044259946037286
12,-0.8350545521920972,73.17824873692001,-0.16556194308546798,-0.004007096594283831,-0.11478594843751663
13,-0.8316624887972665,73.17824873692001,-0.161068202161684,-0.004000770601007561,-0.10743814834918342
14,-0.8263390046252017,73.17824873692001,-0.15436657011648947,-0.003990275337847357,-0.09882554909115256
15,-0.8195939348701241,73.17824873692001,-0.14612668294016343,-0.003978261836908813,-0.08961968751851798
16,-0.8123190490267228,73.17824873692001,-0.13744787955054616,-0.0039685081849489155,-0.08067721072279568
17,-0.8055684816370349,73.17824873692001,-0.1296216791886756,-0.0039645614627762315,-0.07293004695453331
18,-0.8002348753827963,73.17824873692001,-0.12378195862117544,-0.003968518963814189,-0.06724980452734855
19,-0.7968297789491393,73.17824873692001,-0.12064051420839189,-0.00398063636407112,-0.0643177432167609
20,-0.795458872740804,73.17824873692001,-0.1204111039050819,-0.0039994538597010205,-0.06452239603260089
21,-0.7959167831395251,73.17824873692001,-0.1228768360907577,-0.0040219266308623184,-0.06789832168251561
22,-0.7978090759236943,73.17824873692001,-0.12751871883069593,-0.004043942904426856,-0.07411572690881797
23,-0.8006612805704688,73.17824873692001,-0.1336475782601257,-0.004061599930825992,-0.08252177888898836
24,-0.8040027260622191,73.17824873692001,-0.1405068449299598,-0.004072468587084777,-0.0922225147403433
25,-0.807422848906268,73.17824873692001,-0.14734193481670027,-0.004075912084691229,-0.1021910136480447
26,-0.8106025724538164,73.17824873692001,-0.15345566144695766,-0.004072583044223664,-0.11139398785615631
27,-0.8133253661625969,73.17824873692001,-0.15827019277105334,-0.004063820448633634,-0.11892901844222571
28,-0.8154732823688567,73.17824873692001,-0.16139412179402937,-0.004051319855034102,-0.12414882096349944
29,-0.8170131325025225,73.17824873692001,-0.16267202529849153,-0.004036954828692332,-0.1267386717099825
30,-0.8179773542097714,73.17824873692001,-0.16219350477090955,-0.004022586637998287,-0.12672964649132187
31,-0.8184432501810094,73.17824873692001,-0.1602556225765105,-0.0040099469723793146,-0.12445633080972253
32,-0.8185133138593111,73.17824873692001,-0.1572941543449208,-0.0040006144621137435,-0.12047791825167865
33,-0.8182984166452762,73.17824873692001,-0.1538090585540125,-0.003995851843887041,-0.11547943647389004
34,-0.8179047982941936,73.17824873692001,-0.15029770246809446,-0.003996243115051274,-0.11016834218266469
35,-0.817425125418351,73.17824873692001,-0.1471942233102844,-0.004001415956495779,-0.10518177545898304
36,-0.8169333821512048,73.17824873692001,-0.14481727285717907,-0.004010081516434716,-0.10101694192047043
37,-0.8164830293472657,73.17824873692001,-0.14333895404106373,-0.004020399939598579,-0.09799202979046494
38,-0.8161076955034299,73.17824873692001,-0.14278265189324127,-0.004030516528483317,-0.0962398627141625
39,-0.8158236155920293,73.17824873692001,-0.14304321458634042,-0.004038959458959503,-0.09572968584698881
40,-0.8156330807497378,73.17824873692001,-0.1439191944834282,-0.004044688413143755,-0.09630581007218277
41,-0.8155282700310162,73.17824873692001,-0.14515166328233747,-0.0040468277998516175,-0.09773122532229438
42,-0.8154949762742458,73.17824873692001,-0.14646589471083216,-0.004044374357562717,-0.0997296234747037
43,-0.8155158878038833,73.17824873692001,-0.14761289919524745,-0.0040363716485623076,-0.10202394955242121
44,-0.815573228502321,73.17824873692001,-0.1484077356533306,-0.004022548795929993,-0.1043696064201484
45,-0.8156506790742584,73.17824873692001,-0.14875583155458733,-0.004003760847524116,-0.10657902867108653
46,-0.8157345958886297,73.17824873692001,-0.14865724609029704,-0.003981935496672507,-0.10853660795656928
47,-0.815814608901273,73.17824873692001,-0.1481917372956101,-0.003959896075994244,-0.11020614349964358
48,-0.8158837184765431,73.17824873692001,-0.14749935372006376,-0.003941256308410681,-0.11163108670280966
49,-0.8159380262993693,73.17824873692001,-0.14676573337075238,-0.0039300209688707165,-0.11292355873377417
50,-0.8159762330526358,73.17824873692001,-0.146208339379915,-0.003929676794306034,-0.11423830176833011
51,-0.8159990205193702,73.17824873692001,-0.14605649144292496,-0.003942290115161129,-0.11573269085839126
52,-0.8160084133467747,73.17824873692001,-0.14652355443952145,-0.003968175134835901,-0.11751940453860431
53,-0.8160071902477937,73.17824873692001,-0.14777414439530442,-0.004005968487443802,-0.1196220905768864
54,-0.8159983893310786,73.17824873692001,-0.1498907235158899,-0.0040526202014954,-0.1219462252395647
55,-0.8159849299370235,73.17824873692001,-0.15284524927654475,-0.004103317776454663,-0.12427530406003053
56,-0.8159693552449528,73.17824873692001,-0.15648179413167504,-0.004151858127617863,-0.12629392007105752
57,-0.8159536866025698,73.17824873692001,-0.16051374893020287,-0.004191603149347535,-0.12762812335972407
58,-0.8159393719599882,73.17824873692001,-0.1645365778119726,-0.004216465868888135,-0.1278893400370925
59,-0.8159273064550706,73.17824873692001,-0.16805561425837667,-0.004221524107982282,-0.1267145352609248
60,-0.8159179023070687,73.17824873692001,-0.1705269692039174,-0.004203506291387394,-0.12380500333538047
61,-0.8159111868270192,73.17824873692001,-0.17141361406282526,-0.004161444547425918,-0.11896970546836609
62,-0.8159069106481677,73.17824873692001,-0.1702672494509634,-0.004097388398884406,-0.11217272143012666
63,-0.8159046524146033,73.17824873692001,-0.16683708819941553,-0.00401692807317608,-0.10357323704999279
64,-0.8159039104856514,73.17824873692001,-0.16117445560814095,-0.003929209387121752,-0.09354140437452133
65,-0.8159041762322871,73.17824873692001,-0.15368425948876474,-0.003845921898735868,-0.08263988006398029
66,-0.8159049869047365,73.17824873692001,-0.14509370967742957,-0.0037789824626513896,-0.07157308893442889
67,-0.8159059586747449,73.17824873692001,-0.13634153494168877,-0.0037375618204446718,-0.06111462460326052
68,-0.8159068022637336,73.17824873692001,-0.12841307797887144,-0.0037258872465854177,-0.05202438205685309
69,-0.8159073246138251,73.17824873692001,-0.12216141211550081,-0.003742859562189341,-0.04496590247705382
70,-0.8159074204575393,73.17824873692001,-0.11816504197433401,-0.0037832387907407133,-0.0404352807255503
71,-0.8159070575404161,73.17824873692001,-0.116663331091283,-0.003839484372784269,-0.03871289606787861
72,-0.8159062588032628,73.17824873692001,-0.11757505453516984,-0.0039036012707557017,-0.039844930663601105
73,-0.8159050841816019,73.17824873692001,-0.12056918340841083,-0.003968566966825239,-0.04365506348500815
74,-0.8159036139522002,73.17824873692001,-0.12515118862217933,-0.004029034731746612,-0.04978108541744163
75,-0.8159019348456685,73.17824873692001,-0.1307480454680263,-0.004081337569304018,-0.05772843330513376
76,-0.8159001295162658,73.17824873692001,-0.1367873545049491,-0.004123087378250048,-0.06693180582596475
77,-0.8158982694540452,73.17824873692001,-0.14276091805283145,-0.004152816871339664,-0.07681446250611362
78,-0.8158964110558089,73.17824873692001,-0.148261996817679,-0.004169965301055823,-0.08683380750458874
79,-0.8158945943372691,73.17824873692001,-0.15299441986416082,-0.004174967202992286,-0.09650628540866887
80,-0.8158928436539487,73.17824873692001,-0.1567608434509359,-0.004169063541099683,-0.10541538413100708
81,-0.8158911697798239,73.17824873692001,-0.15944347204155582,-0.004153935281002038,-0.1132154262158382
82,-0.8158895727446023,73.17824873692001,-0.16099078205502498,-0.004131461533650812,-0.11964186502735288
83,-0.8158880449273537,73.17824873692001,-0.16141676370912086,-0.004103667621852617,-0.12452878268549007
84,-0.8158865740233481,73.17824873692001,-0.16080855393406424,-0.004072773511789909,-0.1278257522616316
85,-0.8158851456240546,73.17824873692001,-0.159329146004587,-0.00404120476006576,-0.12960387789240602
86,-0.815883745263874,73.17824873692001,-0.15720370640589787,-0.004011537096601931,-0.13004482246281757
87,-0.8158823598826883,73.17824873692001,-0.15469240812194032,-0.003986454484318434,-0.1294146004223532
88,-0.8158809787263859,73.17824873692001,-0.15206128553706758,-0.00396851564040794,-0.12802957270101287
89,-0.815879593757318,73.17824873692001,-0.14955688571928652,-0.003959548550613864,-0.12622089193756353
90,-0.8158781996748975,73.17824873692001,-0.14738505976701954,-0.0039600967191576976,-0.12429963262440945
91,-0.8158767936566398,73.17824873692001,-0.14569588285207563,-0.003969358307769857,-0.12252501604082314
92,-0.8158753749261055,73.17824873692001,-0.14457650154300433,-0.003985462519235196,-0.12108170955152602
93,-0.8158739442408254,73.17824873692001,-0.1440495197544382,-0.004005759612849933,-0.12007229199142655
94,-0.8158725033744605,73.17824873692001,-0.14407613409612496,-0.004027095837059919,-0.11952567461093824
95,-0.8158710546466281,73.17824873692001,-0.1445688331204691,-0.004046151414612009,-0.11941512366347819
96,-0.8158696005336564,73.17824873692001,-0.145411764894683,-0.004059757560464128,-0.11967492835050832
97,-0.8158681433758568,73.17824873692001,-0.14647542673445704,-0.004065181613207436,-0.12020845409570945
98,-0.8158666851827603,73.17824873692001,-0.147620538744796,-0.004060591755861351,-0.12089191970367086
99,-0.815865227527555,73.17824873692001,-0.1487026620726922,-0.004045721499357885,-0.12158544370755667
100,-0.815863771515567,73.17824873692001,-0.14958684625404597,-0.004022347653161031,-0.12215653035729805
101,-0.8158623178085975,73.17824873692001,-0.1501683625263871,-0.003994180635655741,-0.12250794147597127
102,-0.8158608666865839,73.17824873692001,-0.150392343270058,-0.003966139645162872,-0.12259621318360958
103,-0.8158594181296637,73.17824873692001,-0.15027030023419854,-0.003943267704086553,-0.1224339187890717
104,-0.8158579719065583,73.17824873692001,-0.14989354563113813,-0.003929646431111151,-0.12207875187685792
105,-0.8158565276586184,73.17824873692001,-0.14943633634007553,-0.003927792635524832,-0.12161633849533529
106,-0.8158550849723798,73.17824873692001,-0.1491345784646974,-0.00393874274707332,-0.12114161050554935
107,-0.8158536434366878,73.17824873692001,-0.14923776691637725,-0.003962289452123222,-0.12073890958786825
108,-0.815852202683127,73.17824873692001,-0.14995347831864989,-0.003996848322947905,-0.12045905686780818
109,-0.8158507624105265,73.17824873692001,-0.15140585781860802,-0.0040393684116574,-0.1202964417709191
110,-0.8158493223956792,73.17824873692001,-0.15361212045882636,-0.004085821371686356,-0.12017364747085213
111,-0.8158478824931787,73.17824873692001,-0.1564700782512038,-0.004131861008765188,-0.1199378122351411
112,-0.8158464426275259,73.17824873692001,-0.15975312975613176,-0.004172977597987776,-0.11936713216385954
113,-0.8158450027805209,73.17824873692001,-0.16311492929149998,-0.004204213280365489,-0.11818478649353042
114,-0.8158435629765612,73.17824873692001,-0.1661082652382207,-0.004220075842045853,-0.11608154244522623
115,-0.815842123267919,73.17824873692001,-0.1682223509661663,-0.004215174397343398,-0.11275217430200037
116,-0.8158406837214744,73.17824873692001,-0.16894135067791183,-0.004185568709631475,-0.10794721625122707
117,-0.8158392444078121,73.17824873692001,-0.16782608173492758,-0.004130361089885224,-0.10153268126796533
118,-0.8158378053930906,73.17824873692001,-0.16461464697744518,-0.004052937453668923,-0.0935468361856139
119,-0.8158363667336969,73.17824873692001,-0.1593202764249119,-0.003961295665551837,-0.08424421007385154
120,-0.8158349284734182,73.17824873692001,-0.1522862944342715,-0.0038670757946309493,-0.07411285869665526
121,-0.8158334906426893,73.17824873692001,-0.14416296605680257,-0.003783371851711077,-0.06384679939203813
122,-0.8158320532593905,73.17824873692001,-0.13580472018837247,-0.003721961295474082,-0.0542667660604459
123,-0.8158306163306721,73.17824873692001,-0.12811896016331303,-0.003690938689146377,-0.04620445211092192
124,-0.8158291798553248,73.17824873692001,-0.12190761075615343,-0.003693535727188761,-0.04037896328840425
125,-0.8158277438263017,73.17824873692001,-0.1177408343430197,-0.003728067406667985,-0.03729371755178387
126,-0.8158263082330993,73.17824873692001,-0.11589338838048477,-0.0037883744827458426,-0.03717363457592205
127,-0.8158248730637958,73.17824873692001,-0.11635040492095185,-0.003864690012653374,-0.03995138465420451
128,-0.8158234383066449,73.17824873692001,-0.11886133570520381,-0.003945504941985044,-0.04530236527860581
129,-0.8158220039511922,73.17824873692001,-0.12301174011134663,-0.004020269121703348,-0.05271998350578962
130,-0.8158205699889404,73.17824873692001,-0.12829870033929713,-0.004081554097314843,-0.061610934755748935
131,-0.815819136413628,73.17824873692001,-0.13420826485221837,-0.0041256175637790484,-0.07138054960302188
132,-0.815817703221204,73.17824873692001,-0.1402815672951015,-0.004151825905976419,-0.08148422607879142
133,-0.8158162704095879,73.17824873692001,-0.14614596734250432,-0.004161920112725409,-0.09144168407670616
134,-0.8158148379783033,73.17824873692001,-0.15150361163520587,-0.004159289139457813,-0.10082963032755016
135,-0.8158134059280554,73.17824873692001,-0.15609930450417062,-0.004148022203856755,-0.10927424443600608
136,-0.8158119742603128,73.17824873692001,-0.15970334908913375,-0.004131932738183879,-0.1164592099508829
137,-0.815810542976934,73.17824873692001,-0.16212806335896462,-0.004113912451656339,-0.1221514645080058
138,-0.8158091120798617,73.17824873692001,-0.16326685382547013,-0.004095787225705054,-0.12623149186262886
139,-0.8158076815708974,73.17824873692001,-0.16313065144990727,-0.004078621807930488,-0.1287100423653323
140,-0.8158062514515545,73.17824873692001,-0.16186251231236787,-0.004063119220624893,-0.12972301836318745
141,-0.8158048217229831,73.17824873692001,-0.15972228462541002,-0.004049732239450023,-0.12950735749253292
142,-0.8158033923859526,73.17824873692001,-0.15704249961171324,-0.004038546088217928,-0.1283632860350365
143,-0.8158019634408772,73.17824873692001,-0.15416924685112562,-0.004029225572825912,-0.12661081706684646
144,-0.8158005348878699,73.17824873692001,-0.1514112578624475,-0.004021104190247619,-0.12455222610878075
145,-0.8157991067268107,73.17824873692001,-0.14901227824311145,-0.0040134684076406635,-0.12244663478610615
146,-0.8157976789574186,73.17824873692001,-0.1471434307211581,-0.004006045689884888,-0.12049384210320485
147,-0.8157962515793189,73.17824873692001,-0.1459039822321528,-0.003999295605517942,-0.11882570114851208
148,-0.8157948245921,73.17824873692001,-0.1453237276403188,-0.003994190819976439,-0.11750767923216902
149,-0.8157933979953588,73.17824873692001,-0.1453647668570733,-0.0039917381127442106,-0.1165496325900756
150,-0.8157919717887311,73.17824873692001,-0.14592145266694417,-0.0039925792208298306,-0.11591918760388717
151,-0.8157905459719095,73.17824873692001,-0.14682438730264494,-0.003996772296453412,-0.1155527297408845
152,-0.8157891205446507,73.17824873692001,-0.14786048853272335,-0.004003685461058773,-0.11536579408604825
153,-0.8157876955067743,73.17824873692001,-0.14881092725466682,-0.004011894024685297,-0.11526778438277849
154,-0.8157862708581555,73.17824873692001,-0.1494928238061324,-0.004019285978550886,-0.11518070095230927
155,-0.8157848465987139,73.17824873692001,-0.14978873366156387,-0.004023793131821839,-0.11505454344056928
156,-0.815783422728402,73.17824873692001,-0.1496584790133716,-0.004024439280127316,-0.1148730059914065
157,-0.8157819992471934,73.17824873692001,-0.14913579463373247,-0.004021658176295301,-0.11464941637079917
158,-0.8157805761550722,73.17824873692001,-0.148314971123087,-0.004016693227636868,-0.11441667393000277
159,-0.8157791534520241,73.17824873692001,-0.1473369135749158,-0.0040110702167564065,-0.11421618353818185
160,-0.8157777311380304,73.17824873692001,-0.14638015509078103,-0.004006583321287285,-0.11408959262387662
161,-0.8157763092130638,73.17824873692001,-0.14564773534503447,-0.004005201061596139,-0.11407217464931343
162,-0.8157748876770864,73.17824873692001,-0.14534144711328306,-0.004008577502583723,-0.11418399381093726
163,-0.8157734665300497,73.17824873692001,-0.14563343071060542,-0.004017585213818269,-0.11441902134778616
164,-0.8157720457718951,73.17824873692001,-0.1466487457767914,-0.004032180768632461,-0.11473633229660782
165,-0.8157706254025553,73.17824873692001,-0.148455033486374,-0.004051405705533697,-0.11505450224826114
166,-0.8157692054219563,73.17824873692001,-0.1510444544927322,-0.004073378201626605,-0.11524546723796111
167,-0.8157677858300203,73.17824873692001,-0.15430322492885626,-0.004095468049183209,-0.11512765349265053
168,-0.8157663666266671,73.17824873692001,-0.15798355695539293,-0.004114656229753477,-0.11446829153844276
169,-0.8157649478118154,73.17824873692001,-0.16170063984916566,-0.0041277325094794355,-0.11300621836555447
170,-0.815763529385384,73.17824873692001,-0.16496367954973046,-0.004131258704517931,-0.11049335173364751
171,-0.8157621113472927,73.17824873692001,-0.1672322671487362,-0.004121670613678044,-0.10674053120076644
172,-0.8157606936974634,73.17824873692001,-0.16798907934328788,-0.00409584583909722,-0.10165479600044568
173,-0.8157592764358198,73.17824873692001,-0.166828153630135,-0.004052290487205604,-0.0952646015803304
174,-0.8157578595622872,73.17824873692001,-0.16355304004285404,-0.003992836924462117,-0.08773623997725499
175,-0.8157564430767923,73.17824873692001,-0.1582620988936585,-0.003923961229996377,-0.07938499112109314
176,-0.8157550269792634,73.17824873692001,-0.15138694193044339,-0.003856399259947489,-0.0706776984776846
177,-0.8157536112696294,73.17824873692001,-0.14365492093037546,-0.0038026723260342252,-0.06221438741051471
178,-0.81575219594782,73.17824873692001,-0.1359675571690046,-0.00377351435426281,-0.05467661069822784
179,-0.8157507810137649,73.17824873692001,-0.12922226525757577,-0.0037747319519755252,-0.04874397305002198
180,-0.8157493664673937,73.17824873692001,-0.12413857232310077,-0.0038056788687548517,-0.0449972783037698
181,-0.8157479523086362,73.17824873692001,-0.12114882780254126,-0.0038597702529723286,-0.043832807736103645
182,-0.8157465385374222,73.17824873692001,-0.12037365157625549,-0.003926700017645467,-0.04540534693786172
183,-0.8157451251536811,73.17824873692001,-0.1216616776309538,-0.003995408757255051,-0.049607688888112546
184,-0.8157437121573421,73.17824873692001,-0.12466036006160404,-0.004056562948463164,-0.056088364542440754
185,-0.8157422995483339,73.17824873692001,-0.12889743049669822,-0.004103811656230328,-0.06430415859751035
186,-0.8157408873265846,73.17824873692001,-0.13386535013124407,-0.004134028020738731,-0.07359575440282713
187,-0.815739475492022,73.17824873692001,-0.13909532712737807,-0.00414708516501678,-0.08326786802020213
188,-0.8157380640445743,73.17824873692001,-0.14420055344028607,-0.004145400979738384,-0.0926573392382636
189,-0.8157366529841694,73.17824873692001,-0.14888044984742377,-0.004133090376954999,-0.10118331766049425
190,-0.8157352423107354,73.17824873692001,-0.15289894662441272,-0.004114533666621351,-0.10838316624865417
191,-0.8157338320242001,73.17824873692001,-0.15606158729088843,-0.0040928778534734984,-0.11393956968435484
192,-0.8157324221244919,73.17824873692001,-0.1582130033708794,-0.0040695699767452674,-0.11770043655047725
193,-0.8157310126115387,73.17824873692001,-0.1592595477373759,-0.004045164219614786,-0.11968808821622981
194,-0.8157296034852685,73.17824873692001,-0.1592014051078002,-0.004020437843690194,-0.12009141334084293
195,-0.8157281947456098,73.17824873692001,-0.15815283494738896,-0.0039969622666913875,-0.119236673114296
196,-0.8157267863924907,73.17824873692001,-0.15633780239627523,-0.003976957413850309,-0.11753975206732685
197,-0.8157253784258393,73.17824873692001,-0.15405853988134663,-0.003962546852723318,-0.11544949383682339
198,-0.8157239708455836,73.17824873692001,-0.1516465972864033,-0.003954832130413737,-0.11339260557301364
199,-0.815722563651652,73.17824873692001,-0.14941169498546103,-0.0039534330537455125,-0.11172737150579452
200,-0.8157211568439733,73.17824873692001,-0.14759743370490114,-0.003956736114158696,-0.1107101627770868
201,-0.815719750422476,73.17824873692001,-0.14635125518750666,-0.00396257512799652,-0.1104765417089112
202,-0.8157183443870885,73.17824873692001,-0.14571876942643147,-0.00396905039974091,-0.11103809783234013
203,-0.815716938737739,73.17824873692001,-0.14566221758225856,-0.0039751454454858,-0.11229447300711534
204,-0.815715533474356,73.17824873692001,-0.1460872941012535,-0.003980659860500534,-0.11405512736494001
205,-0.8157141285968679,73.17824873692001,-0.14686155636734663,-0.003985565582225925,-0.11606342348233299
206,-0.8157127241052026,73.17824873692001,-0.14782224627937188,-0.003989706280078519,-0.11802151863746099
207,-0.8157113199992883,73.17824873692001,-0.14878655472145128,-0.003993342236583582,-0.1196213592497512
208,-0.815709916279053,73.17824873692001,-0.14957643846913657,-0.00399771751844039,-0.12058602351020006
209,-0.8157085129444251,73.17824873692001,-0.1500532083672934,-0.004004513901224965,-0.12071696804459686
210,-0.8157071099953331,73.17824873692001,-0.15014464146076448,-0.004014364441709944,-0.11993395899325351
211,-0.8157057074317051,73.17824873692001,-0.14985259773636828,-0.004025799740939702,-0.11829441526826684
212,-0.8157043052534693,73.17824873692001,-0.1492411400753685,-0.004035607676920418,-0.11598765058092249
213,-0.8157029034605539,73.17824873692001,-0.14841246046171713,-0.00404035415624784,-0.11330742437606389
214,-0.815701502052887,73.17824873692001,-0.1474830584230693,-0.004038031700367815,-0.11060769369889432
215,-0.8157001010303974,73.17824873692001,-0.1465718332933766,-0.004028831363084799,-0.10824586577144595
216,-0.8156987003930132,73.17824873692001,-0.1457994297133624,-0.004014858481389783,-0.10652128292974819
217,-0.8156973001406628,73.17824873692001,-0.14528652135212855,-0.003999464052827932,-0.10562280550410778
218,-0.8156959002732744,73.17824873692001,-0.14514172038871673,-0.003986639420069009,-0.10559960425842929
219,-0.8156945007907762,73.17824873692001,-0.14544430045672058,-0.0039802484469168625,-0.1063605239335633
220,-0.8156931016930964,73.17824873692001,-0.1462351930331941,-0.003983054841415816,-0.10769821200659091
221,-0.8156917029801636,73.17824873692001,-0.14752011051025624,-0.0039960913778265,-0.10933121967850086
222,-0.815690304651906,73.17824873692001,-0.14927567590511404,-0.004018719408784191,-0.1109563510917673
223,-0.8156889067082518,73.17824873692001,-0.15145173373821555,-0.0040490258059326075,-0.11230040556035342
224,-0.8156875091491292,73.17824873692001,-0.15397200555896975,-0.004084124154481337,-0.1131583234168911
225,-0.8156861119744667,73.17824873692001,-0.1567344093472613,-0.004120369599052187,-0.1134082587855309
226,-0.8156847151841925,73.17824873692001,-0.15960795529875946,-0.004153752284157525,-0.11300300701781724
227,-0.8156833187782346,73.17824873692001,-0.16242668014678827,-0.004180554791977512,-0.11194580155838493
228,-0.8156819227565214,73.17824873692001,-0.16498541742951678,-0.004197789388359034,-0.11026080069023045
229,-0.8156805271189812,73.17824873692001,-0.16703904846523168,-0.004203002650153977,-0.1079654642247903
230,-0.8156791318655422,73.17824873692001,-0.16830401688680632,-0.00419396097255703,-0.10504918121545785
231,-0.8156777369961329,73.17824873692001,-0.16846779599960277,-0.004168784942111544,-0.10146326412780961
232,-0.8156763425106814,73.17824873692001,-0.16722116378285362,-0.004126425622719333,-0.09713019408969628
233,-0.8156749484091161,73.17824873692001,-0.16432460755691392,-0.00406747117492633,-0.09197863976944248
234,-0.8156735546913652,73.17824873692001,-0.15970155009107695,-0.003995393867256346,-0.08600009131955313
235,-0.8156721613573568,73.17824873692001,-0.1535257827515217,-0.003917593529048786,-0.07930829893056582
236,-0.8156707684070192,73.17824873692001,-0.1462565886840279,-0.0038449648512927335,-0.07217697552671189
237,-0.8156693758402813,73.17824873692001,-0.13859078300803065,-0.0037893433499304194,-0.06503908262657922
238,-0.815667983657071,73.17824873692001,-0.1313364046880163,-0.0037598547551015702,-0.05844519399731314
239,-0.8156665918573169,73.17824873692001,-0.12524558289326734,-0.0037602374865529846,-0.05299080421510861
240,-0.815665200440947,73.17824873692001,-0.12086633621353496,-0.003788321570229281,-0.04922957272343846
241,-0.8156638094078894,73.17824873692001,-0.11846908619499726,-0.003837231995396424,-0.047591180315041504
242,-0.8156624187580723,73.17824873692001,-0.11806104216712818,-0.0038974545640054342,-0.048319931021441116
243,-0.8156610284914243,73.17824873692001,-0.11945330786229416,-0.003959254742475055,-0.05144460692745084
244,-0.8156596386078735,73.17824873692001,-0.12233606617489266,-0.0040147982798421425,-0.05678283025823199
245,-0.8156582491073483,73.17824873692001,-0.12634228110719242,-0.004059159429930978,-0.06397553773277925
246,-0.815656859989777,73.17824873692001,-0.13109988321037583,-0.004090106005289701,-0.07254046072210801
247,-0.815655471255088,73.17824873692001,-0.13626835709176785,-0.004107337641772702,-0.08193090691136884
248,-0.8156540829032095,73.17824873692001,-0.1415473100277918,-0.004111774424231726,-0.09158920996644639
249,-0.81565269493407,73.17824873692001,-0.14665504663820098,-0.004105168995334597,-0.10099046633951506
250,-0.8156513073475976,73.17824873692001,-0.1513022014252727,-0.004090129241202498,-0.10967796912444022
251,-0.8156499201437203,73.17824873692001,-0.1551952189262128,-0.004070136975302914,-0.11729274237264345
252,-0.8156485333223664,73.17824873692001,-0.15807778534707784,-0.004048977488165115,-0.1235948615440612
253,-0.8156471468834643,73.17824873692001,-0.15978797171237627,-0.004029732829309974,-0.12847078911050713
254,-0.8156457608269423,73.17824873692001,-0.16030171159797516,-0.0040140537901913655,-0.13192415549897357
255,-0.8156443751527286,73.17824873692001,-0.15974085852680664,-0.004002124693139199,-0.1340537226558442
256,-0.8156429898607515,73.17824873692001,-0.1583431536862985,-0.003993247374222997,-0.1350258921150866
257,-0.8156416049509392,73.17824873692001,-0.15641280104997624,-0.003986744562246268,-0.13504743319356535
258,-0.8156402204232199,73.17824873692001,-0.1542703813185411,-0.003982705819347879,-0.13433920420711784
259,-0.8156388362775222,73.17824873692001,-0.15220676901497995,-0.003981985115631732,-0.13311001828204994
260,-0.8156374525137745,73.17824873692001,-0.15044269568570987,-0.003985290171815902,-0.13153363731574502
261,-0.8156360691319049,73.17824873692001,-0.14910113050624296,-0.003992101207335592,-0.12973564101283297
262,-0.8156346861318414,73.17824873692001,-0.1482015083435109,-0.004000458405018118,-0.12779592439496587
263,-0.8156333035135124,73.17824873692001,-0.14768112074295306,-0.004007847459639406,-0.12576614226938918
264,-0.8156319212768461,73.17824873692001,-0.1474367138581695,-0.004012362273962993,-0.12369339479513275
265,-0.8156305394217711,73.17824873692001,-0.1473651617930209,-0.004013187625351591,-0.12163907841598653
266,-0.8156291579482158,73.17824873692001,-0.1473862929337842,-0.004010347266524658,-0.11968619217995481
267,-0.8156277768561087,73.17824873692001,-0.14745053131764263,-0.00400443429910249,-0.1179340508874016
268,-0.8156263961453779,73.17824873692001,-0.14754079672116296,-0.003996711990578861,-0.11648328433577665
269,-0.8156250158159516,73.17824873692001,-0.1476681669213394,-0.003989147456874965,-0.11541684776493012
270,-0.8156236358677581,73.17824873692001,-0.1478566626548537,-0.003983808153996588,-0.11478494175300202
271,-0.8156222563007255,73.17824873692001,-0.14812119970448484,-0.0039818446814145455,-0.11460021944008959
272,-0.8156208771147818,73.17824873692001,-0.14845018980576294,-0.003983002525531701,-0.1148431719734453
273,-0.8156194983098555,73.17824873692001,-0.14880158662039,-0.00398616344770656,-0.11547276492313381
274,-0.8156181198858746,73.17824873692001,-0.14911475176282207,-0.003990308343057102,-0.11643819987812701
275,-0.8156167418427678,73.17824873692001,-0.1493332924026763,-0.0039949679458138425,-0.11768895146031091
276,-0.8156153641804633,73.17824873692001,-0.14942360542467406,-0.003999935083713709,-0.11917910862215447
277,-0.8156139868988893,73.17824873692001,-0.14937455124818086,-0.004004786378980364,-0.12086216359758566
278,-0.8156126099979744,73.17824873692001,-0.14918336073737423,-0.004008781762670404,-0.1226774379546761
279,-0.8156112334776469,73.17824873692001,-0.14884487229649543,-0.004011103818321852,-0.12453642635588046
280,-0.8156098573378349,73.17824873692001,-0.1483510442739548,-0.004011069719238888,-0.12631779139338598
281,-0.8156084815784668,73.17824873692001,-0.14769788898752242,-0.004008219467798849,-0.12787279397944604
282,-0.8156071061994707,73.17824873692001,-0.1468973759370865,-0.0040024688138488125,-0.12903806820056116
283,-0.8156057312007752,73.17824873692001,-0.14599139576900616,-0.003994432073313148,-0.12965347229868202
284,-0.8156043565823082,73.17824873692001,-0.14506207620597938,-0.00398567519596025,-0.12958431128284975
285,-0.8156029823439981,73.17824873692001,-0.14423116355211393,-0.003978560875879015,-0.12874593857705652
286,-0.8156016084857731,73.17824873692001,-0.14364620791159805,-0.003975817140178844,-0.12712567463986246
287,-0.8156002350075618,73.17824873692001,-0.1434642334390524,-0.003980195822733333,-0.1247963492876974
288,-0.8155988619092926,73.17824873692001,-0.1438448546750574,-0.003994105558373238,-0.12191780163130932
289,-0.8155974891908937,73.17824873692001,-0.14494577484211116,-0.004018947946904864,-0.11872124722343884
290,-0.8155961168522932,73.17824873692001,-0.14690157265067944,-0.004054422070489103,-0.1154683813447176
291,-0.8155947448934191,73.17824873692001,-0.1497801593139218,-0.004098216109249108,-0.11238498462394281
292,-0.8155933733141999,73.17824873692001,-0.15353245814012903,-0.004146065176791156,-0.1095876882823006
293,-0.8155920021145642,73.17824873692001,-0.15795751840590563,-0.004192033468021918,-0.1070328810327859
294,-0.8155906312944401,73.17824873692001,-0.1626949915209098,-0.00422912431266754,-0.10450763069091479
295,-0.815589260853756,73.17824873692001,-0.16724173155208039,-0.004250248439582198,-0.10166564019090085
296,-0.81558789079244,73.17824873692001,-0.17098800214437573,-0.0042493770924042365,-0.0980995287882045
297,-0.8155865211104205,73.17824873692001,-0.17328371801723344,-0.0042227438585490835,-0.09343503462897505
298,-0.8155851518076261,73.17824873692001,-0.17354645360496276,-0.004169894627234163,-0.08742849547290138
299,-0.8155837828839848,73.17824873692001,-0.17139389075825087,-0.00409432336329272,-0.08004468210590723
300,-0.8155824143394247,73.17824873692001,-0.16675543666437748,-0.004003622441994732,-0.07149436902638893
301,-0.8155810461738738,73.17824873692001,-0.15992252311834407,-0.003908993818753084,-0.06222386720900471
302,-0.8155796783872606,73.17824873692001,-0.15152295830603313,-0.0038236809973302963,-0.05286282320986998
303,-0.8155783109795133,73.17824873692001,-0.14242545824606354,-0.00376026388304749,-0.044143310131507275
304,-0.8155769439505602,73.17824873692001,-0.13359295339910351,-0.0037276767279143803,-0.03680480215612423
305,-0.8155755773003297,73.17824873692001,-0.12591846164783038,-0.0037291911481288145,-0.031499935517515516
306,-0.81557421102875,73.17824873692001,-0.12008866411912236,-0.0037620446319778394,-0.028715261800438797
307,-0.8155728451357498,73.17824873692001,-0.1165100994572407,-0.0038185703622317523,-0.02871808284354025
308,-0.8155714796212573,73.17824873692001,-0.11530471982927208,-0.003888325437502321,-0.03153480035586847
309,-0.815570114485201,73.17824873692001,-0.11635214960375517,-0.003960607870893442,-0.0369603030932921
310,-0.8155687497275094,73.17824873692001,-0.11934458777228166,-0.004026527399907554,-0.04459373422720197
311,-0.8155673853481105,73.17824873692001,-0.12384018907210617,-0.004079946277238318,-0.0538937826218382
312,-0.8155660213469323,73.17824873692001,-0.12932338639035507,-0.004117360622801991,-0.06424486140886522
313,-0.8155646577239033,73.17824873692001,-0.13527266173611033,-0.004137402873097793,-0.0750237387240665
314,-0.8155632944789516,73.17824873692001,-0.1412181900244863,-0.00414056498673615,-0.08565714224945027
315,-0.8155619316120054,73.17824873692001,-0.14677245601773584,-0.004129162886339962,-0.09566328095046059
316,-0.8155605691229932,73.17824873692001,-0.15163249041305493,-0.004107094669526159,-0.1046711943368779
317,-0.8155592070118434,73.17824873692001,-0.1555682855801595,-0.004079065625584087,-0.11241751891900123
318,-0.8155578452784841,73.17824873692001,-0.15841725243357332,-0.00404948317059022,-0.11873276008713661
319,-0.8155564839228436,73.17824873692001,-0.160094322165637,-0.0040215684954264695,-0.12353420815415483
320,-0.8155551229448502,73.17824873692001,-0.1606108783684021,-0.003997072917361195,-0.126831381976558
321,-0.8155537623444321,73.17824873692001,-0.16008834353418222,-0.003976649492989351,-0.12873472077324213
322,-0.8155524021215176,73.17824873692001,-0.15875334986376777,-0.003960583406928903,-0.1294537654971549
323,-0.8155510422760354,73.17824873692001,-0.15690535646793802,-0.0039492183894257495,-0.1292761922518194
324,-0.8155496828079135,73.17824873692001,-0.1548594760781268,-0.003942750258920365,-0.12852674349504986
325,-0.8155483237170803,73.17824873692001,-0.1528841052900245,-0.003940903932677325,-0.12751424430139163
326,-0.815546965003464,73.17824873692001,-0.15115857847995154,-0.00394295106408949,-0.12648288426248142
327,-0.8155456066669929,73.17824873692001,-0.14976380596468936,-0.003947830167339698,-0.125583607657698
328,-0.8155442487075955,73.17824873692001,-0.14870102325124945,-0.003954211585242198,-0.12487259577379063
329,-0.8155428911251998,73.17824873692001,-0.14792674661393695,-0.003960882504497546,-0.12433302706330693
330,-0.8155415339197343,73.17824873692001,-0.14739291342068508,-0.003967445665958526,-0.12390764581903414
331,-0.8155401770911271,73.17824873692001,-0.14707638216926644,-0.00397451088850089,-0.12352686578426701
332,-0.8155388206393065,73.17824873692001,-0.14698080564794297,-0.003983019479688884,-0.1231234212430558
333,-0.815537464564201,73.17824873692001,-0.1471122924204593,-0.0039934794809077835,-0.12263480391628354
334,-0.8155361088657388,73.17824873692001,-0.14745172707694323,-0.004005821572022817,-0.12200086084103479
335,-0.8155347535438482,73.17824873692001,-0.14794515099658123,-0.0040196516401656245,-0.1211646744003618
336,-0.8155333985984571,73.17824873692001,-0.14851361672978663,-0.004034317832072512,-0.12008119763426744
337,-0.815532044029494,73.17824873692001,-0.14907040380614128,-0.004048668362235745,-0.1187318609844878
338,-0.8155306898368874,73.17824873692001,-0.14953753223066646,-0.004060972770116257,-0.1171393810122434
339,-0.8155293360205658,73.17824873692001,-0.14986197674855328,-0.00406939915347086,-0.11537601053984084
340,-0.8155279825804576,73.17824873692001,-0.15002861901419437,-0.0040726434697652145,-0.11355765882986085
341,-0.8155266295164909,73.17824873692001,-0.15005749245098685,-0.00407007054038005,-0.1118198987693542
342,-0.815525276828594,73.17824873692001,-0.14997997450799191,-0.00406158501086819,-0.11028294419110338
343,-0.8155239245166948,73.17824873692001,-0.1498104019681978,-0.00404780304120129,-0.1090210527556856
344,-0.8155225725807215,73.17824873692001,-0.14953521539450154,-0.004030297621725847,-0.10805030949825824
345,-0.8155212210206024,73.17824873692001,-0.14912421726759573,-0.004011335540950947,-0.1073412254339028
346,-0.8155198698362662,73.17824873692001,-0.14855145844954026,-0.003993162649743829,-0.10684992913251957
347,-0.815518519027641,73.17824873692001,-0.14781098102734502,-0.003977432736209462,-0.10654986105920418
348,-0.8155171685946555,73.17824873692001,-0.1469232780148187,-0.003965233090615783,-0.10644772234698109
349,-0.8155158185372381,73.17824873692001,-0.14593986783105434,-0.00395759220520977,-0.10657985276254323
350,-0.8155144688553168,73.17824873692001,-0.14495041975796066,-0.003955892927862908,-0.1069952188926787
351,-0.8155131195488199,73.17824873692001,-0.1440847736950306,-0.00396173570578399,-0.10773480761390807
352,-0.8155117706176758,73.17824873692001,-0.1435013369430689,-0.003976369099679659,-0.10881520328941864
353,-0.8155104220618127,73.17824873692001,-0.1433637790914149,-0.0040000834828920065,-0.11021937952045109
354,-0.8155090738811587,73.17824873692001,-0.1438147982585166,-0.004031759898488067,-0.11189440797220344
355,-0.8155077260756423,73.17824873692001,-0.14495526750797233,-0.0040687005215964255,-0.11375373241693691
356,-0.8155063786451915,73.17824873692001,-0.14683062538568342,-0.004106980060527313,-0.11567969489799299
357,-0.8155050315897345,73.17824873692001,-0.14941852083545387,-0.004142319715746401,-0.11752195210354598
358,-0.8155036849091998,73.17824873692001,-0.15261565575799296,-0.004170996819810245,-0.11909210580964218
359,-0.8155023386035156,73.17824873692001,-0.15623409251838266,-0.004190230275612977,-0.12016220734981763
360,-0.8155009926726102,73.17824873692001,-0.1600153290349219,-0.004198062081645922,-0.12047564522470226
361,-0.8154996471164122,73.17824873692001,-0.1636535724108547,-0.004193198824076986,-0.11977008123123255
362,-0.8154983019348498,73.17824873692001,-0.16681205497297383,-0.004174920595016645,-0.11780367414273857
363,-0.8154969571278515,73.17824873692001,-0.1691269265085902,-0.004142816093236659,-0.11437757043312631
364,-0.8154956126953454,73.17824873692001,-0.17021121493852312,-0.00409654603884249,-0.10935706858844434
365,-0.81549426863726,73.17824873692001,-0.16968354302668054,-0.004036270890405354,-0.10269924333385905
366,-0.8154929249535239,73.17824873692001,-0.1672389564952688,-0.003963911266490312,-0.09448878540699902
367,-0.8154915816440652,73.17824873692001,-0.16275154659395544,-0.003884521303426185,-0.08497226352531767
368,-0.8154902387088123,73.17824873692001,-0.15637075624631938,-0.0038067859826490043,-0.07457461874095081
369,-0.8154888961476933,73.17824873692001,-0.1485645277962326,-0.003742041385450788,-0.06388564816257697
370,-0.8154875539606367,73.17824873692001,-0.1400789241568092,-0.003701683334243436,-0.053615193829376906
371,-0.8154862121475707,73.17824873692001,-0.13181833711787486,-0.003693710893594748,-0.044524500768652504
372,-0.8154848707084232,73.17824873692001,-0.12468420588934664,-0.0037201972163535433,-0.037343096475953394
373,-0.8154835296431227,73.17824873692001,-0.11942295818780167,-0.003777037186907558,-0.03267955078178922
374,-0.8154821889515969,73.17824873692001,-0.11651681876859081,-0.003855550938519831,-0.03093634519740107
375,-0.815480848633774,73.17824873692001,-0.11612630919525983,-0.003944595846839531,-0.03224523911663941
376,-0.8154795086895826,73.17824873692001,-0.11808984881404942,-0.0040324754407899035,-0.03644356624645635
377,-0.815478169118951,73.17824873692001,-0.12198641155467341,-0.004108740885487516,-0.043104709372368696
378,-0.8154768299218076,73.17824873692001,-0.12724412393402088,-0.0041657640742458184,-0.051618069253367774
379,-0.8154754910980808,73.17824873692001,-0.13325306622771843,-0.004199509718917389,-0.06129524550619718
380,-0.8154741526476991,73.17824873692001,-0.13944618000563924,-0.004209422494974789,-0.07146996960231183
381,-0.8154728145705908,73.17824873692001,-0.14534130457303415,-0.004197939999488477,-0.08156582249964402
382,-0.8154714768666844,73.17824873692001,-0.15055823707160865,-0.004169821003273755,-0.09112541747864313
383,-0.8154701395359079,73.17824873692001,-0.1548218184665721,-0.004131079618585463,-0.09981289199605255
384,-0.8154688025781895,73.17824873692001,-0.1579555200343286,-0.004087708019667955,-0.10740544535344786
385,-0.8154674659934579,73.17824873692001,-0.15987480951966543,-0.004044809027290969,-0.1137824353724283
386,-0.815466129781641,73.17824873692001,-0.16058872746118047,-0.004006347107516786,-0.11891287230741306
387,-0.8154647939426674,73.17824873692001,-0.16020294429096038,-0.003975166172023319,-0.12283866200695111
388,-0.8154634584764654,73.17824873692001,-0.15890848963361745,-0.003953035776405756,-0.1256512281291529
389,-0.8154621233829633,73.17824873692001,-0.15695186561992724,-0.003940691787284306,-0.12746352325091698
390,-0.8154607886620895,73.17824873692001,-0.15459944473961093,-0.00393775430688224,-0.12838591890820225
391,-0.8154594543137722,73.17824873692001,-0.15211089510879833,-0.003942542361096182,-0.12851464745874328
392,-0.8154581203379396,73.17824873692001,-0.14972423462662574,-0.003952193586349792,-0.12793234082230132
393,-0.8154567867345199,73.17824873692001,-0.1476450320544022,-0.003963417043328388,-0.12671317702293597
394,-0.8154554535034413,73.17824873692001,-0.146033372977052,-0.003973560442535593,-0.12492773400030013
395,-0.8154541206446323,73.17824873692001,-0.1449889228756368,-0.003981340757353033,-0.12264657427443053
396,-0.8154527881580212,73.17824873692001,-0.14453728434908378,-0.003986855920951295,-0.11994195437453242
397,-0.8154514560435364,73.17824873692001,-0.14462354619122203,-0.003990960546564214,-0.11688972648812757
398,-0.815450124301106,73.17824873692001,-0.1451237917879767,-0.0039945307843645425,-0.11357598124747023
399,-0.8154487929306588,73.17824873692001,-0.14587843154513766,-0.003998139173019963,-0.11010696037908742
400,-0.815447461932123,73.17824873692001,-0.14673421594723465,-0.004002116817779345,-0.10661378653667541
401,-0.8154461313054268,73.17824873692001,-0.14757696142303176,-0.004006661828617682,-0.10324769514131438
402,-0.8154448010504983,73.17824873692001,-0.14834553319928037,-0.004011868722049395,-0.10016991128446921
403,-0.8154434711672658,73.17824873692001,-0.14902486909921725,-0.0040177424948283245,-0.09754045246025873
404,-0.8154421416556575,73.17824873692001,-0.14962260486437204,-0.004024129987591334,-0.09550487437126622
405,-0.815440812515602,73.17824873692001,-0.1501415930301418,-0.004030478861806034,-0.09417804205413247
406,-0.8154394837470273,73.17824873692001,-0.15056095511411902,-0.004035640113180863,-0.09362957628365651
407,-0.815438155349862,73.17824873692001,-0.15083307131215806,-0.00403802947402458,-0.09387778967636695
408,-0.8154368273240338,73.17824873692001,-0.15089887251278256,-0.004036155466732303,-0.09489473942054504
409,-0.8154354996694712,73.17824873692001,-0.1507154707226619,-0.0040292534469730705,-0.09661915837628018
410,-0.8154341723861022,73.17824873692001,-0.15028147126460298,-0.004017727895459323,-0.09897049390889062
411,-0.8154328454738554,73.17824873692001,-0.14964532152468338,-0.004003185916471678,-0.10185762643634519
412,-0.8154315189326594,73.17824873692001,-0.14889080950497627,-0.003988008363439112,-0.1051799937320804
413,-0.815430192762443,73.17824873692001,-0.1481076132011317,-0.003974694672379769,-0.10882518267564706
414,-0.8154288669631345,73.17824873692001,-0.14736691974826546,-0.003965335182958732,-0.11267183854728618
415,-0.8154275415346622,73.17824873692001,-0.14671849897282668,-0.003961330636252793,-0.11660306997213205
416,-0.8154262164769545,73.17824873692001,-0.14620415727153885,-0.003963395005314154,-0.12052261774724903
417,-0.8154248917899392,73.17824873692001,-0.14587005020149302,-0.003971888693680181,-0.12436046177591051
418,-0.8154235674735444,73.17824873692001,-0.14577486230069936,-0.00398722193060455,-0.12806655135611755
419,-0.8154222435276984,73.17824873692001,-0.14600249186669467,-0.004009910593359968,-0.1315999628493496
420,-0.8154209199523293,73.17824873692001,-0.14667092093048573,-0.004040128757505713,-0.13491233591613241
421,-0.8154195967473654,73.17824873692001,-0.14791364843039526,-0.004076995520245611,-0.13792132531697227
422,-0.8154182739127351,73.17824873692001,-0.1498290776103263,-0.004118102185677573,-0.14048350821868635
423,-0.8154169514483671,73.17824873692001,-0.15242287282040823,-0.0041594882489137145,-0.1423851678966758
424,-0.8154156293541898,73.17824873692001,-0.1555714672923143,-0.0041958584389790955,-0.1433607206970207
425,-0.8154143076301317,73.17824873692001,-0.15901942246732997,-0.004221150827447077,-0.14313387828844448
426,-0.8154129862761212,73.17824873692001,-0.16240801081501277,-0.0042297050145840235,-0.14146750702042296
427,-0.8154116652920865,73.17824873692001,-0.16531844564462594,-0.00421760759185161,-0.1382059765492062
428,-0.8154103446779556,73.17824873692001,-0.16731247352102604,-0.004183501719607481,-0.13329904570968032
429,-0.8154090244336566,73.17824873692001,-0.16797199061139753,-0.004128628736340903,-0.12680764615740753
430,-0.8154077045591179,73.17824873692001,-0.16695253896985177,-0.004056423174528043,-0.11890027482452585
431,-0.8154063850542678,73.17824873692001,-0.16405280196445104,-0.003972234227473105,-0.1098474345586293
432,-0.8154050659190346,73.17824873692001,-0.15928210886576816,-0.003883459073269497,-0.10001515456020603
433,-0.8154037471533468,73.17824873692001,-0.15290322824249383,-0.0037996063368859346,-0.0898536189591536
434,-0.8154024287571326,73.17824873692001,-0.14543140241186112,-0.003731400533575139,-0.07987459172311503
435,-0.8154011107303203,73.17824873692001,-0.13757758447174723,-0.003688766474377299,-0.07061252892497887
436,-0.8153997930728383,73.17824873692001,-0.13014328072596046,-0.0036786013078414837,-0.06257117493453847
437,-0.8153984757846146,73.17824873692001,-0.12389618673813005,-0.0037032197908889283,-0.0561665911717397
438,-0.8153971588655776,73.17824873692001,-0.119458207790433,-0.003759646444889446,-0.05168076954767719
439,-0.8153958423156558,73.17824873692001,-0.11722134910570942,-0.003839792427481887,-0.0492358121542642
440,-0.8153945261347775,73.17824873692001,-0.11729768560647987,-0.003931803875118017,-0.04879354486827222
441,-0.8153932103228709,73.17824873692001,-0.11951831783639187,-0.004022567415835871,-0.05018135513904534
442,-0.8153918948798646,73.17824873692001,-0.12349352705468578,-0.0041005173125609334,-0.05313735886617854
443,-0.8153905798056866,73.17824873692001,-0.12871487859682318,-0.004157591757622732,-0.057357824370670656
444,-0.8153892651002655,73.17824873692001,-0.13465388496853278,-0.004189941147523052,-0.062527180055867
445,-0.8153879507635299,73.17824873692001,-0.14082180599878064,-0.004197736622169656,-0.06832272658717076
446,-0.8153866367954079,73.17824873692001,-0.14678833609910505,-0.004184389570769667,-0.07440525799902961
447,-0.8153853231958279,73.17824873692001,-0.15218021786613506,-0.004155261913909067,-0.08041632652813276
448,-0.8153840099647179,73.17824873692001,-0.15667779624385664,-0.004116080456154276,-0.08599588640843836
449,-0.8153826971020063,73.17824873692001,-0.16001574047611258,-0.004071699104013788,-0.0908216365895174
450,-0.8153813846076212,73.17824873692001,-0.16199514310279609,-0.004025909767285473,-0.0946640398453841
451,-0.815380072481491,73.17824873692001,-0.16251645674332135,-0.003982100943976926,-0.09744543714754102
452,-0.815378760723544,73.17824873692001,-0.16162538231883902,-0.0039438053292633135,-0.09928248191624944
453,-0.8153774493337085,73.17824873692001,-0.15954033861454098,-0.003914548733268405,-0.10048624790641225
454,-0.8153761383119128,73.17824873692001,-0.1566321069366721,-0.003896995639164319,-0.10150796988554991
455,-0.8153748276580851,73.17824873692001,-0.15335562634942623,-0.0038918947579891254,-0.10284468580492781
456,-0.8153735173721537,73.17824873692001,-0.1501624738009952,-0.0038978126347267703,-0.10493480547078153
457,-0.8153722074540468,73.17824873692001,-0.14742730567145654,-0.003912033988162169,-0.10807135826163661
458,-0.8153708979036927,73.17824873692001,-0.14540373350344077,-0.00393184601747729,-0.1123516758724017
459,-0.8153695887210198,73.17824873692001,-0.14420794436915188,-0.003955320337707935,-0.11767254013411224
460,-0.8153682799059567,73.17824873692001,-0.14382830638685212,-0.003981289088781752,-0.12376722420270127
461,-0.8153669714584317,73.17824873692001,-0.1441596777268724,-0.004008774576324144,-0.13026747363083335
462,-0.8153656633783731,73.17824873692001,-0.14504854628691446,-0.004036541646875668,-0.13676768381328877
463,-0.8153643556657094,73.17824873692001,-0.14632962808046798,-0.004063076867834061,-0.14287429015384376
464,-0.8153630483203689,73.17824873692001,-0.14784779985764146,-0.004086641476443945,-0.14823389625024286
465,-0.81536174134228,73.17824873692001,-0.14946956725774882,-0.004105227436841847,-0.1525420243431357
466,-0.815360434731371,73.17824873692001,-0.1510828233974636,-0.004116683728344556,-0.15553993723432322
467,-0.8153591284875702,73.17824873692001,-0.15258154649446687,-0.004119103217328894,-0.15700889672474475
468,-0.8153578226108058,73.17824873692001,-0.15384489657971812,-0.00411128953796773,-0.1567703323747789
469,-0.8153565171010062,73.17824873692001,-0.1547307333569945,-0.004093257376493839,-0.1546997734188089
470,-0.8153552119580996,73.17824873692001,-0.1550956446113298,-0.00406672253394167,-0.1507585317896903
471,-0.8153539071820142,73.17824873692001,-0.15483236000596365,-0.0040351357698996575,-0.14503573192115238
472,-0.8153526027726783,73.17824873692001,-0.1539036500899949,-0.00400286251177741,-0.13778191746596397
473,-0.81535129873002,73.17824873692001,-0.15235936102214492,-0.003973938058941033,-0.1294155657030017
474,-0.8153499950539675,73.17824873692001,-0.15033319056302155,-0.003951276236737495,-0.12049410071430294
475,-0.8153486917444493,73.17824873692001,-0.14802154928990974,-0.003936651487876878,-0.1116522639727953
476,-0.8153473888013937,73.17824873692001,-0.14565373160934386,-0.00393109181362972,-0.10352086664122906
477,-0.8153460862247288,73.17824873692001,-0.1434644561873888,-0.003935182348273779,-0.09664708240261637
478,-0.8153447840143833,73.17824873692001,-0.14167437362847524,-0.00394903457437909,-0.09143699962707125
479,-0.8153434821702852,73.17824873692001,-0.14047783815713866,-0.0039720577514633735,-0.0881306228583318
480,-0.815342180692363,73.17824873692001,-0.1400328528156362,-0.0040028034445494295,-0.08680551420223026
481,-0.8153408795805454,73.17824873692001,-0.140447596579206,-0.0040389867015456805,-0.08739511831114241
482,-0.8153395788347608,73.17824873692001,-0.1417642162237517,-0.0040777232165713,-0.08970638543228708
483,-0.8153382784549379,73.17824873692001,-0.14394827535344962,-0.004115962918128658,-0.09342925006176947
484,-0.8153369784410046,73.17824873692001,-0.14689062566381897,-0.004150780817319734,-0.09814195305651639
485,-0.815335678792889,73.17824873692001,-0.15041839746834967,-0.004179178878942255,-0.10332232508018246
486,-0.8153343795105197,73.17824873692001,-0.15430609386429223,-0.004197774095095036,-0.10837324216307213
487,-0.8153330805938248,73.17824873692001,-0.1582829599017307,-0.0042031192688676,-0.1126650403090187
488,-0.8153317820427328,73.17824873692001,-0.16204043867330475,-0.004192603601581313,-0.11559196682642511
489,-0.8153304838571718,73.17824873692001,-0.16524451580859648,-0.004165135683863072,-0.11663413728738345
490,-0.8153291860370704,73.17824873692001,-0.16755399542652538,-0.0041211394416871844,-0.11541357376576986
491,-0.8153278885823569,73.17824873692001,-0.1686423153144294,-0.004062121033482978,-0.11173494613603481
492,-0.8153265914929594,73.17824873692001,-0.16822294308827038,-0.003990435208721602,-0.10560834632149547
493,-0.8153252947688062,73.17824873692001,-0.1660871548700777,-0.003909667725989378,-0.09725982920897804
494,-0.8153239984098256,73.17824873692001,-0.162162451076713,-0.00382543858344408,-0.08713559555090408
495,-0.8153227024159457,73.17824873692001,-0.15657863241208184,-0.003745971155458292,-0.0758929481533261
496,-0.8153214067870952,73.17824873692001,-0.1497068566200888,-0.0036817184495846382,-0.06436051274071351
497,-0.8153201115232023,73.17824873692001,-0.14214247766685334,-0.0036435899079195273,-0.05345697359275171
498,-0.8153188166241953,73.17824873692001,-0.134627684235881,-0.003639946622959021,-0.044077362060075405
499,-0.8153175220900019,73.17824873692001,-0.12792969993417017,-0.0036735663139920135,-0.03697435397006931
500,-0.8153162279205505,73.17824873692001,-0.12270457004672895,-0.0037403650516897456,-0.03266713124450115
501,-0.8153149341157694,73.17824873692001,-0.11939120547620878,-0.003830668674866607,-0.03139864582169896
502,-0.8153136406755871,73.17824873692001,-0.11817353720544418,-0.003932043468886846,-0.03314267797997792
503,-0.8153123475999319,73.17824873692001,-0.11900916970555564,-0.004032073923686092,-0.03764688881511
504,-0.8153110548887322,73.17824873692001,-0.12168456599872585,-0.004120183684490624,-0.04449132098457886
505,-0.8153097625419167,73.17824873692001,-0.12585819149976155,-0.004188454984129702,-0.05314489653445627
506,-0.8153084705594136,73.17824873692001,-0.13109050342121023,-0.004231872767453949,-0.06301417427396928
507,-0.8153071789411512,73.17824873692001,-0.13688550030173663,-0.004248459992408931,-0.0734881567123341
508,-0.8153058876870581,73.17824873692001,-0.1427512787755989,-0.004239397415610714,-0.08398122410159282
509,-0.8153045967970625,73.17824873692001,-0.14825753236920164,-0.0042088233409197625,-0.09396997959609713
510,-0.8153033062710927,73.17824873692001,-0.15306546314189104,-0.004163043354478923,-0.10301929806366825
511,-0.8153020161090768,73.17824873692001,-0.15692793903846872,-0.004109279817815773,-0.11079735565707154
512,-0.8153007263109434,73.17824873692001,-0.1596781397836834,-0.004054449742451303,-0.11708277048355067
513,-0.8152994368766209,73.17824873692001,-0.16122420248975813,-0.004004436453547828,-0.12176698431678254
514,-0.8152981478060378,73.17824873692001,-0.16155534746310604,-0.003963841409392372,-0.12485317644075146
515,-0.8152968590991222,73.17824873692001,-0.16075649648030713,-0.003935792371615902,-0.12645094529065068
516,-0.8152955707558023,73.17824873692001,-0.15901896518794092,-0.003921610375479561,-0.12676404104412614
517,-0.8152942827760065,73.17824873692001,-0.15662871204003126,-0.003920568721903072,-0.1260686588819677
518,-0.8152929951596628,73.17824873692001,-0.15392611242500315,-0.003930019108705807,-0.12468347473347968
519,-0.8152917079066994,73.17824873692001,-0.15125193609558737,-0.003946012490850694,-0.12293516485993801
520,-0.8152904210170446,73.17824873692001,-0.14889902900055407,-0.0039643230938479785,-0.1211228777328404
521,-0.8152891344906271,73.17824873692001,-0.14707922417978023,-0.00398143889091316,-0.11948650246568422
522,-0.8152878483273752,73.17824873692001,-0.14590679195526574,-0.00399507535355461,-0.11818577242087942
523,-0.8152865625272173,73.17824873692001,-0.14539696452038975,-0.004004234215450519,-0.11729517154308892
524,-0.8152852770900817,73.17824873692001,-0.14547693419817395,-0.004009056218576736,-0.11681352002984832
525,-0.8152839920158963,73.17824873692001,-0.14600775957181564,-0.004010552617130987,-0.11668134913003082
526,-0.8152827073045896,73.17824873692001,-0.14681658745933732,-0.004010251390804671,-0.11679816577847149
527,-0.8152814229560902,73.17824873692001,-0.14773349285662407,-0.004009793601235539,-0.11703649084667743
528,-0.8152801389703261,73.17824873692001,-0.14861923387358086,-0.004010484438581392,-0.11725499933149848
529,-0.8152788553472257,73.17824873692001,-0.1493733168110174,-0.004012999915396983,-0.11731480379036963
530,-0.8152775720867173,73.17824873692001,-0.1499284646435254,-0.0040174310000749835,-0.11710169474854726
531,-0.8152762891887293,73.17824873692001,-0.15024708780467888,-0.0040233567860845495,-0.11655261459653844
532,-0.8152750066531904,73.17824873692001,-0.15032531211756486,-0.004029727511880028,-0.11567740947242518
533,-0.815273724480029,73.17824873692001,-0.15019635998204733,-0.004035064379499899,-0.1145633976486121
534,-0.8152724426691733,73.17824873692001,-0.14992251557899555,-0.004038196763822816,-0.11335517905599705
535,-0.8152711612205519,73.17824873692001,-0.1495724805101576,-0.004038747665065772,-0.112213690469975
536,-0.8152698801340929,73.17824873692001,-0.1491926208364432,-0.004036855769767326,-0.11127004759347361
537,-0.8152685994097242,73.17824873692001,-0.14878759876869677,-0.004032680289298906,-0.11059254090328902
538,-0.8152673190473743,73.17824873692001,-0.14832203986439646,-0.004026234461399026,-0.11017775926473625
539,-0.8152660390469713,73.17824873692001,-0.14774410139437205,-0.004017532056836845,-0.10996593851372075
540,-0.8152647594084437,73.17824873692001,-0.14702145669388986,-0.004007023220035051,-0.10987194734145977
541,-0.81526348013172,73.17824873692001,-0.14617443729026458,-0.003996179270906805,-0.10981903321658067
542,-0.8152622012167283,73.17824873692001,-0.14529178792126274,-0.003987567653716885,-0.10976355273378897
543,-0.8152609226633969,73.17824873692001,-0.14452183241847882,-0.00398403061551396,-0.1097038449879509
544,-0.8152596444716542,73.17824873692001,-0.14404251011594715,-0.0039875274997320425,-0.10967176290818828
545,-0.8152583666414284,73.17824873692001,-0.1440211473549157,-0.003998404287600354,-0.1097106280195795
546,-0.8152570891726479,73.17824873692001,-0.14457714600928157,-0.004015416784515167,-0.10984969459766888
547,-0.8152558120652414,73.17824873692001,-0.14576069358452565,-0.004036457990899118,-0.11008758159983441
548,-0.8152545353191372,73.17824873692001,-0.14755430621238702,-0.004059502142361688,-0.1103887344744883
549,-0.8152532589342631,73.17824873692001,-0.1498914964370359,-0.004083091828048698,-0.11068446977464286
550,-0.8152519829105479,73.17824873692001,-0.15267671873948913,-0.004106138239242046,-0.11086878288875193
551,-0.8152507072479196,73.17824873692001,-0.15578807868686353,-0.004127316338417716,-0.11078990503592419
552,-0.8152494319463067,73.17824873692001,-0.15905570022850393,-0.004144437982547081,-0.11024691309064202
553,-0.8152481570056377,73.17824873692001,-0.16223072370894498,-0.004154115142004174,-0.10899889225056189
554,-0.8152468824258408,73.17824873692001,-0.16497101554335242,-0.0041520579855215374,-0.1067883073301719
555,-0.8152456082068442,73.17824873692001,-0.16686145452711323,-0.004134143005420694,-0.10337596488275204
556,-0.8152443343485765,73.17824873692001,-0.1674700423086905,-0.004097802284480853,-0.09858374016184111
557,-0.8152430608509658,73.17824873692001,-0.16642800297995056,-0.004043202133024037,-0.09234200733322417
558,-0.8152417877139403,73.17824873692001,-0.1635179363850396,-0.003974151353415152,-0.08473513564452385
559,-0.8152405149374282,73.17824873692001,-0.15875257167604523,-0.0038985785106101264,-0.07603005579647104
560,-0.8152392425213578,73.17824873692001,-0.15242173195901051,-0.0038278061236737744,-0.06667171314867194
561,-0.8152379704656577,73.17824873692001,-0.14508405801461713,-0.003774007939571556,-0.05724109987788799
562,-0.8152366987702563,73.17824873692001,-0.1374938113186699,-0.003746649721700383,-0.048386630062905736
563,-0.8152354274350814,73.17824873692001,-0.13047700925854014,-0.0037498734664720324,-0.040746546906662705
564,-0.8152341564600616,73.17824873692001,-0.12478559096119654,-0.0037819175605924384,-0.0348775390210394
565,-0.8152328858451254,73.17824873692001,-0.12096247290345827,-0.0038359822784708552,-0.03119890655824655
566,-0.8152316155902013,73.17824873692001,-0.11925638548660036,-0.003901819245473816,-0.029957618469568036
567,-0.8152303456952177,73.17824873692001,-0.11961732783645035,-0.003968047964415015,-0.031217608712038367
568,-0.8152290761601031,73.17824873692001,-0.12176714505421612,-0.004024889230024883,-0.03487381819275559
569,-0.8152278069847857,73.17824873692001,-0.1253030797999694,-0.00406629142625418,-0.040685452674592455
570,-0.8152265381691938,73.17824873692001,-0.12978850544728035,-0.004090654399252284,-0.04831696149189187
571,-0.8152252697132556,73.17824873692001,-0.13481196722493802,-0.004100107027053983,-0.05737611099174888
572,-0.8152240016168992,73.17824873692001,-0.14002012897936067,-0.00409885011937605,-0.06744417574083542
573,-0.8152227338800528,73.17824873692001,-0.14513014340663605,-0.0040913448101584935,-0.07809567729552386
574,-0.8152214665026446,73.17824873692001,-0.14991903577806912,-0.004080993837494187,-0.08890664307438698
575,-0.8152201994846032,73.17824873692001,-0.15419309872607956,-0.0040695728872249745,-0.0994569852075134
576,-0.8152189328258572,73.17824873692001,-0.15775578354461053,-0.004057423592320661,-0.10933732430408803
577,-0.8152176665263351,73.17824873692001,-0.16040168949486894,-0.004044281344364083,-0.1181656161557626
578,-0.8152164005859652,73.17824873692001,-0.16195033965202568,-0.00403026018202521,-0.12561152189916527
579,-0.8152151350046764,73.17824873692001,-0.16230233051847623,-0.004016238577338458,-0.13142517661096428
580,-0.8152138697823965,73.17824873692001,-0.16148273884265932,-0.004003393291510482,-0.13546702936565808
581,-0.8152126049190538,73.17824873692001,-0.15964875698192532,-0.00399254542277262,-0.13773084956761228
582,-0.8152113404145764,73.17824873692001,-0.15706448843610094,-0.003984029325119227,-0.13834939600304264
583,-0.8152100762688927,73.17824873692001,-0.1540596654859802,-0.00397797889198305,-0.1375784618585589
584,-0.815208812481931,73.17824873692001,-0.15098326123574643,-0.003974509381104461,-0.13576367008444734
585,-0.8152075490536191,73.17824873692001,-0.1481539091284176,-0.003973576585947757,-0.1332974005476068
586,-0.8152062859838852,73.17824873692001,-0.14581273889959023,-0.003974702082270599,-0.13057257365639105
587,-0.8152050232726575,73.17824873692001,-0.14409454947569142,-0.003976913750770631,-0.12793972271560214
588,-0.8152037609198648,73.17824873692001,-0.1430304779274879,-0.003979031336000744,-0.12567313995670554
589,-0.8152024989254355,73.17824873692001,-0.14257644970709982,-0.00398003762773152,-0.12394995338388401
590,-0.8152012372892983,73.17824873692001,-0.1426480945582086,-0.003979282742936562,-0.12284374787914314
591,-0.8151999760113815,73.17824873692001,-0.14314682084375405,-0.003976620683240137,-0.12233256945692308
592,-0.8151987150916137,73.17824873692001,-0.14397213739290535,-0.003972630298378271,-0.122319372002719
593,-0.8151974545299231,73.17824873692001,-0.14502330959584628,-0.0039687393104414735,-0.12266011345862511
594,-0.815196194326238,73.17824873692001,-0.14619893951425791,-0.00396691941517644,-0.12319251665884341
595,-0.8151949344804869,73.17824873692001,-0.14740146344360003,-0.003968971423969395,-0.1237600268113759
596,-0.8151936749925975,73.17824873692001,-0.14854402978733175,-0.003975822021194276,-0.12422866854630854
597,-0.8151924158624981,73.17824873692001,-0.14955174371065078,-0.003987098225632232,-0.1244957538221453
598,-0.8151911570901172,73.17824873692001,-0.15035627772949645,-0.004000939743992691,-0.12449108713793536
599,-0.8151898986753832,73.17824873692001,-0.15089295142781375,-0.004014281806009932,-0.12417583543620185
600,-0.8151886406182245,73.17824873692001,-0.1511091788377347,-0.0040239676105258805,-0.123545803002855
601,-0.8151873829185696,73.17824873692001,-0.15098244151234333,-0.004028231311584304,-0.12263913877374409
602,-0.8151861255763468,73.17824873692001,-0.15053515860493863,-0.0040274656999378655,-0.12153996777770419
603,-0.8151848685914845,73.17824873692001,-0.14983468140633976,-0.004023763466138214,-0.12036934222645164
604,-0.815183611963911,73.17824873692001,-0.1489799541303179,-0.0040196289764918335,-0.11926352978190655
605,-0.8151823556935545,73.17824873692001,-0.1480853627722159,-0.004016652795897337,-0.1183483662499899
606,-0.8151810997803431,73.17824873692001,-0.14726798179980458,-0.004014976304184913,-0.11771994308679129
607,-0.8151798442242053,73.17824873692001,-0.146640974795243,-0.004013961660459351,-0.11743628402463796
608,-0.8151785890250695,73.17824873692001,-0.14631493235072704,-0.004013518531485443,-0.11751698587221593
609,-0.8151773341828641,73.17824873692001,-0.146400667017113,-0.00401495783778221,-0.11794431475258649
610,-0.8151760796975174,73.17824873692001,-0.14700347640452183,-0.004020736878441987,-0.11866248808048387
611,-0.8151748255689576,73.17824873692001,-0.14820699941668777,-0.004033358488755283,-0.1195765961193042
612,-0.8151735717971132,73.17824873692001,-0.15005096807032534,-0.004054193905685795,-0.12055302005236423
613,-0.8151723183819127,73.17824873692001,-0.15250784812760715,-0.004082824816768502,-0.12142146800488564
614,-0.8151710653232842,73.17824873692001,-0.15546470398577475,-0.0041168585833283484,-0.12197957155519704
615,-0.8151698126211562,73.17824873692001,-0.15871662986338494,-0.004151947282381652,-0.12200266690266032
616,-0.815168560275457,73.17824873692001,-0.16197059459556057,-0.004182155129917087,-0.12125937355041558
617,-0.8151673082861148,73.17824873692001,-0.16485259078057804,-0.004200838966169151,-0.1195305574377546
618,-0.8151660566530581,73.17824873692001,-0.16692282331874328,-0.004201725958689334,-0.11663119965627577
619,-0.8151648053762152,73.17824873692001,-0.16771931556733874,-0.0041800019195151,-0.11243833899339856
620,-0.8151635544555144,73.17824873692001,-0.1668393415633998,-0.0041335998241110936,-0.10692589968591076
621,-0.8151623038908836,73.17824873692001,-0.16403782778921186,-0.004064466657223675,-0.10020010599685342
622,-0.8151610536822516,73.17824873692001,-0.15930909051636286,-0.003979231944211754,-0.09252448438307762
623,-0.815159803829546,73.17824873692001,-0.15292902403191116,-0.0038889359838439204,-0.08432317575479613
624,-0.8151585543326955,73.17824873692001,-0.1454440571333898,-0.003807387051856214,-0.0761535258976437
625,-0.8151573051916283,73.17824873692001,-0.13760022819779724,-0.0037479652605858075,-0.06864515115999645
626,-0.8151560564062729,73.17824873692001,-0.13022565671309788,-0.0037200880292978804,-0.06241422017397972
627,-0.8151548079765578,73.17824873692001,-0.12409860141397039,-0.003727065362232971,-0.05797196462944375
628,-0.8151535599024116,73.17824873692001,-0.11983024814780756,-0.003765732302447829,-0.0556474031349955
629,-0.8151523121837626,73.17824873692001,-0.11777474257798813,-0.0038274253239648903,-0.055537953778983525
630,-0.8151510648205391,73.17824873692001,-0.11797581901779633,-0.0039002717609288914,-0.057495740955993184
631,-0.8151498178126697,73.17824873692001,-0.12017361499865399,-0.003972391190324348,-0.061154754403584005
632,-0.8151485711600828,73.17824873692001,-0.12389038272453604,-0.004034616980650388,-0.06600002509868308
633,-0.8151473248627066,73.17824873692001,-0.12857184879308978,-0.0040816388206240655,-0.07146810654501849
634,-0.8151460789204693,73.17824873692001,-0.13372214312827113,-0.004111663167904391,-0.0770512946699303
635,-0.8151448333332991,73.17824873692001,-0.13897648715060684,-0.004125338279226965,-0.08237042873474629
636,-0.8151435881011241,73.17824873692001,-0.1440987332830581,-0.0041247098552653445,-0.08719259856938802
637,-0.8151423432238729,73.17824873692001,-0.148928525394198,-0.004112586745744655,-0.09139579936380181
638,-0.815141098701474,73.17824873692001,-0.15331319386638131,-0.004092147787372955,-0.09490826978889738
639,-0.8151398545338554,73.17824873692001,-0.1570570171983753,-0.004066543812305202,-0.0976600307626142
640,-0.8151386107209456,73.17824873692001,-0.1599149167036492,-0.004038538622154074,-0.09957198085842524
641,-0.8151373672626732,73.17824873692001,-0.161639422325994,-0.004010366585612104,-0.10058411636368471
642,-0.8151361241589664,73.17824873692001,-0.16205984522991135,-0.0039839438946991405,-0.10070320747802748
643,-0.8151348814097537,73.17824873692001,-0.16115319382914656,-0.003961268000887755,-0.10004111348266233
644,-0.8151336390149634,73.17824873692001,-0.15907503592191066,-0.003944429786607043,-0.09882236111675045
645,-0.815132396974524,73.17824873692001,-0.15614207853367734,-0.003934949876047047,-0.09735613712026103
646,-0.8151311552883636,73.17824873692001,-0.1527755650303496,-0.003933100889991175,-0.09598119448925642
647,-0.8151299139564103,73.17824873692001,-0.14942493626886563,-0.003937994488673069,-0.09499930470459512
648,-0.8151286729785926,73.17824873692001,-0.1464933818033214,-0.003948074302840505,-0.09461543071300876
649,-0.8151274323548386,73.17824873692001,-0.1442780423262774,-0.003961236824212002,-0.0949022413188297
650,-0.8151261920850769,73.17824873692001,-0.14293268032604253,-0.003974878410664195,-0.09580183519067405
651,-0.8151249521692355,73.17824873692001,-0.14246262964770556,-0.003986582658678335,-0.09716308490995439
652,-0.8151237126072429,73.17824873692001,-0.14275290515882333,-0.003995013677283072,-0.09879542231897076
653,-0.8151224733990275,73.17824873692001,-0.14361464881648728,-0.0040000577166374495,-0.10051728220294412
654,-0.8151212345445177,73.17824873692001,-0.14483257973430946,-0.004002303303494081,-0.10218960742693137
655,-0.8151199960436418,73.17824873692001,-0.14620434803368418,-0.00400258553494136,-0.10373544846437549
656,-0.815118757896328,73.17824873692001,-0.14756713248973785,-0.004001776178230796,-0.1051490359938715
657,-0.8151175201025047,73.17824873692001,-0.14880700861039273,-0.004000614783410966,-0.1064948727782423
658,-0.8151162826621003,73.17824873692001,-0.1498516844966528,-0.003999549979987423,-0.10789463135813218
659,-0.8151150455750432,73.17824873692001,-0.15065709176017894,-0.00399868378811908,-0.10950157567275949
660,-0.8151138088412617,73.17824873692001,-0.15119932667737737,-0.003997796877054499,-0.11146667415236886
661,-0.8151125724606846,73.17824873692001,-0.15147090603670493,-0.003996408016339505,-0.11390205710699045
662,-0.8151113364332401,73.17824873692001,-0.15147345271548399,-0.003994001119999055,-0.11684683480982357
663,-0.8151101007588563,73.17824873692001,-0.15120953879197804,-0.003990519508378678,-0.12024235518517676
664,-0.8151088654374614,73.17824873692001,-0.15068781366150275,-0.003986944143656924,-0.1239283539877865
665,-0.8151076304689837,73.17824873692001,-0.14994857343814375,-0.003985557622474713,-0.1276694297377541
666,-0.8151063958533517,73.17824873692001,-0.14909315729690722,-0.0039894400783692,-0.13120529620939325
667,-0.8151051615904936,73.17824873692001,-0.14828590990169005,-0.0040011555046189145,-0.13429955148528294
668,-0.815103927680338,73.17824873692001,-0.14771612881475013,-0.004021410187450212,-0.1367636560814361
669,-0.8151026941228133,73.17824873692001,-0.14754348755892224,-0.004048664227987411,-0.1384561013794188
670,-0.8151014609178481,73.17824873692001,-0.1478624991862357,-0.004079772104079815,-0.13927470199505293
671,-0.8151002280653704,73.17824873692001,-0.1486974608767435,-0.004110904406658058,-0.1391554707080262
672,-0.8150989955653088,73.17824873692001,-0.1500143237261302,-0.0041383102541761915,-0.13807594236331733
673,-0.8150977634175918,73.17824873692001,-0.15173834517142742,-0.004159042866970282,-0.13605370597440486
674,-0.8150965316221476,73.17824873692001,-0.1537753999969627,-0.004171525639315826,-0.13313597752498468
675,-0.8150953001789041,73.17824873692001,-0.1560274504456229,-0.004175463746979396,-0.12938295238112696
676,-0.8150940690877897,73.17824873692001,-0.1583835854325627,-0.004171011440727876,-0.12484924337291417
677,-0.8150928383487329,73.17824873692001,-0.16068025296286725,-0.0041578289921681555,-0.11956580988794903
678,-0.8150916079616618,73.17824873692001,-0.16265425335279413,-0.004134764648047068,-0.11352648520540094
679,-0.8150903779265047,73.17824873692001,-0.1639317019834075,-0.004100252346732476,-0.10669184505673303
680,-0.81508914824319,73.17824873692001,-0.16408124032220475,-0.004053045034063675,-0.09902549063318834
681,-0.8150879189116462,73.17824873692001,-0.16271845264607507,-0.003993152039973026,-0.0905577779572376
682,-0.8150866899318021,73.17824873692001,-0.15961976038662798,-0.003922949943914339,-0.08144557476221144
683,-0.8150854613035858,73.17824873692001,-0.1548081394812012,-0.0038479985619750885,-0.07199734721043381
684,-0.8150842330269253,73.17824873692001,-0.14858889016788224,-0.003776969095920336,-0.06265836403585631
685,-0.8150830051017486,73.17824873692001,-0.14152423121768992,-0.003720385329437608,-0.053968407199362696
686,-0.8150817775279843,73.17824873692001,-0.134346693728263,-0.003688283535557636,-0.046503540290097976
687,-0.8150805503055609,73.17824873692001,-0.1278310378657576,-0.0036874547051152415,-0.04080989985011176
688,-0.8150793234344069,73.17824873692001,-0.12266291655799545,-0.003719184814522727,-0.037339239497802094
689,-0.815078096914451,73.17824873692001,-0.11933706063298125,-0.0037784140103474125,-0.03639679452542882
690,-0.8150768707456215,73.17824873692001,-0.11809674263526192,-0.003855047252174469,-0.038108581389600535
691,-0.8150756449278467,73.17824873692001,-0.11892021595938328,-0.003936938694835904,-0.04241163426475847
692,-0.8150744194610547,73.17824873692001,-0.1215598662077655,-0.004012935819681776,-0.04906836818884732
693,-0.8150731943451742,73.17824873692001,-0.12562312310367313,-0.004074899220271652,-0.05770200123491168
694,-0.8150719695801331,73.17824873692001,-0.13066391306644126,-0.00411861404163347,-0.06784401481134612
695,-0.8150707451658596,73.17824873692001,-0.13625171350942175,-0.004143759700079479,-0.0789816083142447
696,-0.815069521102282,73.17824873692001,-0.14200440761705282,-0.004153050817005403,-0.09059566239645259
697,-0.8150682973893284,73.17824873692001,-0.1475941693687699,-0.004150794613505379,-0.10218609703385352
698,-0.8150670740269275,73.17824873692001,-0.15274202800733486,-0.00414139146444476,-0.1132870090208737
699,-0.8150658510150081,73.17824873692001,-0.15720820158688611,-0.00412832046108109,-0.12347577532248594
700,-0.8150646283534984,73.17824873692001,-0.16078028574817782,-0.00411374219356008,-0.13238072866101647
701,-0.8150634060423267,73.17824873692001,-0.16326733196184742,-0.004098451320696692,-0.13969319341607797
702,-0.8150621840814215,73.17824873692001,-0.16451311785877687,-0.004082027327895079,-0.1451887490719353
703,-0.815060962470711,73.17824873692001,-0.1644336660790757,-0.004063385824918196,-0.14875622219432777
704,-0.8150597412101236,73.17824873692001,-0.16306567215948448,-0.004041742064444878,-0.15042458586862648
705,-0.8150585202995874,73.17824873692001,-0.16059967139266326,-0.0040175387338866305,-0.15037515388828823
706,-0.8150572997390305,73.17824873692001,-0.15737646239803554,-0.0039929238866493934,-0.14893068359084002
707,-0.8150560795283817,73.17824873692001,-0.15384190223322575,-0.003971517249794896,-0.14652012001407003
708,-0.8150548596675693,73.17824873692001,-0.15046824238399042,-0.003957234225658372,-0.14362350043161257
709,-0.8150536401565217,73.17824873692001,-0.14765954873248063,-0.003952575716895033,-0.1407043897828275
710,-0.8150524209951675,73.17824873692001,-0.14567104990305169,-0.003957540248757988,-0.1381409248279699
711,-0.815051202183435,73.17824873692001,-0.14457445524110327,-0.003969844370943282,-0.1361712706551125
712,-0.8150499837212523,73.17824873692001,-0.14428067719347945,-0.003986077120259485,-0.13486654779662438
713,-0.8150487656085478,73.17824873692001,-0.1446017884177276,-0.004003039367819233,-0.1341340892723369
714,-0.8150475478452496,73.17824873692001,-0.14531879000032685,-0.004018578606229412,-0.13374620854640304
715,-0.8150463304312863,73.17824873692001,-0.14622873745490048,-0.004031537096843561,-0.13338624789190842
716,-0.8150451133665862,73.17824873692001,-0.14716336274310046,-0.004041185208873157,-0.1327023692112193
717,-0.8150438966510777,73.17824873692001,-0.14798751993706674,-0.004046832621797483,-0.13136340890349013
718,-0.815042680284689,73.17824873692001,-0.14859342684312052,-0.004047813363578404,-0.12911642088357214
719,-0.8150414642673484,73.17824873692001,-0.14890468766628406,-0.0040436383835203765,-0.1258422300093199
720,-0.8150402485989843,73.17824873692001,-0.1488916876198633,-0.004034094537564638,-0.12159482958435872
721,-0.8150390332795251,73.17824873692001,-0.14858393881818105,-0.004019295759664139,-0.11660499289652392
722,-0.8150378183088992,73.17824873692001,-0.14806302133049043,-0.003999953446552152,-0.11123717719792346
723,-0.815036603687035,73.17824873692001,-0.14743564670055467,-0.0039777492131615935,-0.10591092992585294
724,-0.8150353894138607,73.17824873692001,-0.1468024287083041,-0.0039552018114083235,-0.1010186723988626
725,-0.8150341754893043,73.17824873692001,-0.14624146302171326,-0.003935059358050753,-0.09687039068063258
726,-0.8150329619132946,73.17824873692001,-0.14581548251856138,-0.003919969352001817,-0.09367314269343195
727,-0.8150317486857597,73.17824873692001,-0.14559421057739527,-0.003912552637366808,-0.09153400983405847
728,-0.8150305358066279,73.17824873692001,-0.14567456334901846,-0.0039153508521714885,-0.09047325928789732
729,-0.8150293232758279,73.17824873692001,-0.14618525909003272,-0.003930490629529831,-0.09043971686239327
730,-0.8150281110932882,73.17824873692001,-0.1472688696608096,-0.003959144719581582,-0.09132128122606166
731,-0.8150268992589371,73.17824873692001,-0.14903972154198528,-0.004000752140829953,-0.0929438513746173
732,-0.8150256877727029,73.17824873692001,-0.15152753384452625,-0.004052236211994694,-0.09506024901670383
733,-0.815024476634514,73.17824873692001,-0.15463004037318495,-0.0041077450782300365,-0.09734288296548768
734,-0.815023265844299,73.17824873692001,-0.1580966457734156,-0.004159249055146588,-0.09939649274923942
735,-0.815022055401986,73.17824873692001,-0.16154781656592127,-0.004197803769869091,-0.10079665436273703
736,-0.8150208453075034,73.17824873692001,-0.16451893758132843,-0.004214980360506006,-0.10114545306069724
737,-0.8150196355607794,73.17824873692001,-0.1665160219835622,-0.004204354928055093,-0.10012843701205533
738,-0.8150184261617424,73.17824873692001,-0.16707824599577356,-0.004163209961626982,-0.09755853762806588
739,-0.8150172171103206,73.17824873692001,-0.1658472245220428,-0.004093922827223834,-0.0933995409220247
740,-0.8150160084064426,73.17824873692001,-0.16264116153223665,-0.004004059522190813,-0.08777105125084586
741,-0.8150148000500369,73.17824873692001,-0.15752093532915157,-0.0039050041246024305,-0.08094278654594411
742,-0.8150135920410316,73.17824873692001,-0.1508227497066705,-0.003809856498301726,-0.07332437800675212
743,-0.8150123843793549,73.17824873692001,-0.1431369926388029,-0.003731225153452768,-0.06545100613203654
744,-0.8150111770649349,73.17824873692001,-0.13523367158872004,-0.0036792749905599446,-0.057957710360182456
745,-0.8150099700977004,73.17824873692001,-0.1279520081539367,-0.0036604319325144155,-0.05153100949175987
746,-0.8150087634775797,73.17824873692001,-0.12207881462367108,-0.0036768376519436077,-0.04683412475695172
747,-0.8150075572045009,73.17824873692001,-0.11823919739394356,-0.0037261947502228838,-0.04441700321343648
748,-0.8150063512783927,73.17824873692001,-0.11681462783839812,-0.0038018213917716866,-0.044630992631220584
749,-0.8150051456991835,73.17824873692001,-0.11789497130991705,-0.0038933881002762684,-0.0475680199818842
750,-0.8150039404668015,73.17824873692001,-0.12127212713351469,-0.003988860842838455,-0.053040323942598805
751,-0.8150027355811752,73.17824873692001,-0.12648587131794012,-0.004077173803057169,-0.060608080346582355
752,-0.8150015310422326,73.17824873692001,-0.13291646707863408,-0.004150333030196597,-0.06964719972803751
753,-0.8150003268499021,73.17824873692001,-0.1398900425438249,-0.004204018766450062,-0.0794366289269007
754,-0.8149991230041121,73.17824873692001,-0.1467586919023048,-0.004236766842075035,-0.0892439591550964
755,-0.8149979195047913,73.17824873692001,-0.1529451747944519,-0.004248655714162081,-0.09839769915458908
756,-0.8149967163518679,73.17824873692001,-0.1579690842067119,-0.00424050699942536,-0.10634345346745751
757,-0.8149955135452704,73.17824873692001,-0.1614743230371622,-0.0042138853314116174,-0.1126853087212838
758,-0.8149943110849273,73.17824873692001,-0.1632631476209921,-0.004171539696244698,-0.11721452451954537
759,-0.8149931089707665,73.17824873692001,-0.16332710104067655,-0.004117801824304961,-0.11992391429636787
760,-0.8149919072027163,73.17824873692001,-0.16185732405902267,-0.004058529358043987,-0.12100023992034714
761,-0.8149907057807053,73.17824873692001,-0.1592191764684851,-0.00400043515557711,-0.12078746892218388
762,-0.8149895047046619,73.17824873692001,-0.15589084749327237,-0.003950061318028877,-0.11972365151851681
763,-0.8149883039745143,73.17824873692001,-0.1523804822501466,-0.003912758888904048,-0.11826488596667023
764,-0.8149871035901907,73.17824873692001,-0.14914089091982183,-0.003891796036079308,-0.11681337940338628
765,-0.8149859035516196,73.17824873692001,-0.1465019336313779,-0.0038877903700915727,-0.11566391118334325
766,-0.8149847038587296,73.17824873692001,-0.1446403346402004,-0.0038989174735277565,-0.11497760010670145
767,-0.8149835045114489,73.17824873692001,-0.14359322427745022,-0.003921885800917959,-0.11478446393260815
768,-0.8149823055097061,73.17824873692001,-0.1432972058403291,-0.003952868578228394,-0.11500884956267732
769,-0.81498110685343,73.17824873692001,-0.1436263987286139,-0.003987765496563583,-0.11550850945763476
770,-0.8149799085425485,73.17824873692001,-0.1444202119253263,-0.004022110152700723,-0.11611834126906671
771,-0.8149787105769905,73.17824873692001,-0.1455048516075311,-0.004051251725738341,-0.11668846521193696
772,-0.8149775129566839,73.17824873692001,-0.14670748487472898,-0.004070964987891204,-0.11710552568412137
773,-0.8149763156815567,73.17824873692001,-0.14786257483663595,-0.004078325539427305,-0.11729427036411395
774,-0.8149751187515373,73.17824873692001,-0.1488219463544523,-0.004072556196691442,-0.11720933443532468
775,-0.8149739221665538,73.17824873692001,-0.14947693838794138,-0.004055298365210301,-0.11683038490049866
776,-0.8149727259265345,73.17824873692001,-0.14977936194824157,-0.004030082553868048,-0.11616533920469281
777,-0.8149715300314078,73.17824873692001,-0.14974195136253696,-0.00400147749701787,-0.11525663137178652
778,-0.8149703344811021,73.17824873692001,-0.1494224622521971,-0.003974333521365705,-0.11418253941853929
779,-0.8149691392755458,73.17824873692001,-0.14891390902835788,-0.003953116611649916,-0.11305007321151511
780,-0.8149679444146672,73.17824873692001,-0.1483487106845025,-0.003941332503356624,-0.11198103914738279
781,-0.8149667498983949,73.17824873692001,-0.14789989983378743,-0.003941055866098638,-0.11109245058339476
782,-0.8149655557266571,73.17824873692001,-0.14776097352113443,-0.003952582971148541,-0.11047054463759923
783,-0.8149643618993823,73.17824873692001,-0.14810495198832468,-0.00397446805731433,-0.11014094034633935
784,-0.814963168416499,73.17824873692001,-0.1490413704970938,-0.004004123991015576,-0.11004392718015925
785,-0.8149619752779357,73.17824873692001,-0.1505922373214621,-0.0040386043568856,-0.11002613625268678
786,-0.8149607824836208,73.17824873692001,-0.15269267893799623,-0.0040749331965288325,-0.10985444756312543
787,-0.8149595900334827,73.17824873692001,-0.1552042134757791,-0.0041098064536576944,-0.1092490239714277
788,-0.8149583979274497,73.17824873692001,-0.15792513864212307,-0.0041390965063668565,-0.10792615390356249
789,-0.8149572061654503,73.17824873692001,-0.16059159778182017,-0.0041576736111283465,-0.10564037137353399
790,-0.8149560147474126,73.17824873692001,-0.1628739522754427,-0.004159790084462895,-0.10221807448539089
791,-0.814954823673265,73.17824873692001,-0.1643823576858779,-0.004140121184060118,-0.09758046239408379
792,-0.8149536329429359,73.17824873692001,-0.16470028046502144,-0.004095357764331821,-0.09176040977932395
793,-0.8149524425563534,73.17824873692001,-0.16345745523074917,-0.004025970859436236,-0.0849203342380556
794,-0.8149512525134457,73.17824873692001,-0.16043129148771595,-0.0039375438457679626,-0.07737065260499618
795,-0.8149500628141411,73.17824873692001,-0.15564171288863726,-0.003840839539475213,-0.06957724669601884
796,-0.8149488734583679,73.17824873692001,-0.1493998818014666,-0.003750089976990959,-0.06214392237753776
797,-0.8149476844460545,73.17824873692001,-0.14228886701581045,-0.003679985921355002,-0.0557627276207461
798,-0.8149464957771297,73.17824873692001,-0.13507763234663575,-0.0036424295553274203,-0.05113436326144082
799,-0.814945307451522,73.17824873692001,-0.12858682624213782,-0.003643962569548757,-0.04887070375227789
800,-0.8149441194691599,73.17824873692001,-0.12353841950375863,-0.0036845124676721484,-0.04939875868547321
801,-0.8149429318299717,73.17824873692001,-0.12043274792171184,-0.0037577183577904177,-0.052886985157697165
802,-0.8149417445338859,73.17824873692001,-0.11949042507248617,-0.0038525529792099262,-0.059212003511741156
803,-0.8149405575808305,73.17824873692001,-0.12066509767983889,-0.003955722813364532,-0.06797450516039726
804,-0.8149393709707338,73.17824873692001,-0.12370066488959588,-0.004054247282141422,-0.07855634703908514
805,-0.8149381847035242,73.17824873692001,-0.12819913199683097,-0.004137480374718312,-0.09019704989490096
806,-0.81493699877913,73.17824873692001,-0.13368113601881498,-0.004198207549681672,-0.1020683832462049
807,-0.8149358131974794,73.17824873692001,-0.13964037613568067,-0.00423304598715217,-0.11333863100300344
808,-0.814934627958501,73.17824873692001,-0.14559511065819447,-0.004242298318454402,-0.12323039250311855
809,-0.8149334430621229,73.17824873692001,-0.15112602416865722,-0.004229176794988782,-0.13107613071537214
810,-0.8149322585082734,73.17824873692001,-0.15588724860736433,-0.004198651054645194,-0.13636902537137013
811,-0.8149310742968808,73.17824873692001,-0.15959814426699845,-0.00415641832186409,-0.1388048051605955
812,-0.8149298904278738,73.17824873692001,-0.16204028734319922,-0.004108193612019759,-0.13831212112479666
813,-0.8149287069011808,73.17824873692001,-0.16307603329780526,-0.004059214209396706,-0.13506799233712538
814,-0.8149275237167302,73.17824873692001,-0.16268456420330307,-0.004013922421083567,-0.1294916882330173
815,-0.8149263408744503,73.17824873692001,-0.16099381406357158,-0.003975884954581084,-0.12220875647787481
816,-0.8149251583742695,73.17824873692001,-0.15828255153527312,-0.003947765363241733,-0.11398162857506351
817,-0.8149239762161166,73.17824873692001,-0.15494199619677407,-0.003931106905086114,-0.10561687749715934
818,-0.8149227943999199,73.17824873692001,-0.15140915013898956,-0.003926117692042199,-0.09787055196418189
819,-0.8149216129256076,73.17824873692001,-0.1480973805011232,-0.003931760016383932,-0.09137018031444283
820,-0.814920431793108,73.17824873692001,-0.14534514120944791,-0.0039459993303870705,-0.08656201027401653
821,-0.8149192510023493,73.17824873692001,-0.14338589425248383,-0.0039659344780287875,-0.08368557740185903
822,-0.81491807055326,73.17824873692001,-0.1423304931405779,-0.0039879565811600055,-0.0827742105042026
823,-0.8149168904457684,73.17824873692001,-0.14215953164661102,-0.0040083092664312935,-0.08367903049623629
824,-0.814915710679803,73.17824873692001,-0.14273329337455692,-0.004023986700834895,-0.0861161120957683
825,-0.8149145312552918,73.17824873692001,-0.1438242262189818,-0.004033455414695564,-0.08973263947571032
826,-0.8149133521721632,73.17824873692001,-0.14516631972487415,-0.004036867762125467,-0.09417319082973524
827,-0.8149121734303456,73.17824873692001,-0.1465077464728712,-0.004035704336772273,-0.09912058886952577
828,-0.8149109950297675,73.17824873692001,-0.14765164275944787,-0.004031864906279357,-0.10430342153559292
829,-0.814909816970357,73.17824873692001,-0.14847719410781463,-0.004026682908492042,-0.10948627703098227
830,-0.8149086392520425,73.17824873692001,-0.1489423593942078,-0.0040206235227147015,-0.11446235328727321
831,-0.8149074618747526,73.17824873692001,-0.1490720049275353,-0.004013766725225714,-0.11905401022394663
832,-0.8149062848384157,73.17824873692001,-0.1489369002677166,-0.004006455108795616,-0.12311729486841148
833,-0.8149051081429599,73.17824873692001,-0.14863479832828044,-0.003999582238460118,-0.12654965733075338
834,-0.8149039317883139,73.17824873692001,-0.14828417734935898,-0.003994515935382681,-0.12930168789680865
835,-0.814902755774406,73.17824873692001,-0.14802824218739746,-0.0039929592677797575,-0.1313851503124649
836,-0.8149015801011646,73.17824873692001,-0.1480348065777435,-0.003996827684136588,-0.13286437385164218
837,-0.8149004047685184,73.17824873692001,-0.14848071081432407,-0.004007843055062878,-0.13382799835841305
838,-0.8148992297763955,73.17824873692001,-0.1495210554711735,-0.0040267939643050575,-0.1343534495519011
839,-0.8148980551247242,73.17824873692001,-0.1512509384028514,-0.004052891628472934,-0.1344802724573747
840,-0.8148968808134331,73.17824873692001,-0.15366974085586685,-0.004083537988817674,-0.13419842076267188
841,-0.8148957068424504,73.17824873692001,-0.15665512923448144,-0.004114485295558179,-0.13344699273820732
842,-0.8148945332117041,73.17824873692001,-0.15994801074160692,-0.004140224002588022,-0.13211753362323542
843,-0.8148933599211228,73.17824873692001,-0.1631525029620216,-0.004154442853886946,-0.13006124723774815
844,-0.8148921869706346,73.17824873692001,-0.1657638601519617,-0.00415079332242198,-0.12710417744431243
845,-0.814891014360168,73.17824873692001,-0.16723303558440888,-0.0041243884288079775,-0.12307359692504231
846,-0.8148898420896513,73.17824873692001,-0.16705904829975265,-0.004073667145934472,-0.11783325463340441
847,-0.8148886701590131,73.17824873692001,-0.1648918508791761,-0.004001688026395055,-0.11132180979753263
848,-0.814887498568182,73.17824873692001,-0.16063038780063912,-0.0039164945351808506,-0.10358959123953021
849,-0.8148863273170861,73.17824873692001,-0.15449231752909154,-0.003830434501003506,-0.09482739800019445
850,-0.8148851564056538,73.17824873692001,-0.1470222954265656,-0.0037579558808451814,-0.08537771060424967
851,-0.8148839858338139,73.17824873692001,-0.13901987790287373,-0.003712037853220861,-0.07572074830419065
852,-0.8148828156014946,73.17824873692001,-0.13139959809917917,-0.003700735051195712,-0.06643438907568376
853,-0.8148816457086241,73.17824873692001,-0.12502257378861423,-0.003725462899495782,-0.05813267562307196
854,-0.8148804761551308,73.17824873692001,-0.12054537290730721,-0.0037812919593306236,-0.05139302927836291
855,-0.8148793069409429,73.17824873692001,-0.11831900617554461,-0.003858329171249756,-0.046686918377940805
856,-0.8148781380659887,73.17824873692001,-0.11835931916746756,-0.003943669132249526,-0.04432729551532358
857,-0.8148769695301967,73.17824873692001,-0.12039745732899852,-0.004024090750062875,-0.04443742746303407
858,-0.8148758013334952,73.17824873692001,-0.12398799871015523,-0.004089006529433967,-0.04693828240146509
859,-0.8148746334758126,73.17824873692001,-0.12862469227587112,-0.00413248936146251,-0.051554313485527
860,-0.8148734659570772,73.17824873692001,-0.13382374781723816,-0.004153743063784368,-0.05784321619052497
861,-0.8148722987772177,73.17824873692001,-0.1391703074812966,-0.004156053493485988,-0.06525066836484171
862,-0.8148711319361623,73.17824873692001,-0.1443405949070557,-0.0041446679523369934,-0.07317974500050137
863,-0.8148699654338395,73.17824873692001,-0.149100404834197,-0.004124654108597458,-0.0810583127744547
864,-0.8148687992701774,73.17824873692001,-0.15327615503816167,-0.004099781493034097,-0.08838963793309991
865,-0.8148676334451047,73.17824873692001,-0.15671235328809902,-0.004072491720177657,-0.09478088856899951
866,-0.8148664679585498,73.17824873692001,-0.15924609672902323,-0.004044387281505589,-0.09995578557978264
867,-0.8148653028104407,73.17824873692001,-0.16072421393727013,-0.004016845015798407,-0.10376095218246108
868,-0.8148641380007059,73.17824873692001,-0.16105911774921164,-0.00399145287101403,-0.10616900105383316
869,-0.8148629735292738,73.17824873692001,-0.16028777209141723,-0.0039698995744093775,-0.10727515914154649
870,-0.8148618093960729,73.17824873692001,-0.15859479515426353,-0.003953386869963599,-0.10728377163853858
871,-0.8148606456010317,73.17824873692001,-0.15628459855806787,-0.003942231804816897,-0.10648192978791667
872,-0.814859482144078,73.17824873692001,-0.15371397047122365,-0.003936094780071743,-0.10519911016907248
873,-0.8148583190251402,73.17824873692001,-0.15121327622578795,-0.003934520913583037,-0.10375907478834367
874,-0.8148571562441469,73.17824873692001,-0.14902795981190115,-0.003937220094953671,-0.10243939575337788
875,-0.8148559938010266,73.17824873692001,-0.14729780872834838,-0.003943826318845441,-0.10145342692559392
876,-0.8148548316957074,73.17824873692001,-0.14606997394620747,-0.0039535098790600505,-0.10095644158740054
877,-0.8148536699281178,73.17824873692001,-0.14533034388610416,-0.003965063319747736,-0.10106234259004664
878,-0.8148525084981864,73.17824873692001,-0.14503601596785115,-0.003977330193699866,-0.10185340115491472
879,-0.8148513474058415,73.17824873692001,-0.14513332006068466,-0.0039893216463162155,-0.10337560941102848
880,-0.8148501866510115,73.17824873692001,-0.14555480842961435,-0.003999963338990012,-0.10562526935160284
881,-0.8148490262336245,73.17824873692001,-0.14620309447973037,-0.004007932882526397,-0.10853714835089964
882,-0.814847866153609,73.17824873692001,-0.14694012621210858,-0.0040118977792833075,-0.11198196365890697
883,-0.8148467064108936,73.17824873692001,-0.14760073571297538,-0.004011178668504108,-0.11577727095982385
884,-0.8148455470054066,73.17824873692001,-0.1480354434464154,-0.004006415396325294,-0.11971151087114192
885,-0.8148443879370763,73.17824873692001,-0.1481656366185526,-0.003999513606467902,-0.12357560465747176
886,-0.8148432292058307,73.17824873692001,-0.14802117834670334,-0.0039928134363451905,-0.12719292987679165
887,-0.8148420708115985,73.17824873692001,-0.14773754812770057,-0.00398832792426314,-0.13043786813861225
888,-0.8148409127543081,73.17824873692001,-0.14751213195055446,-0.003987637834026128,-0.13323615005413073
889,-0.814839755033888,73.17824873692001,-0.14754205116780905,-0.0039920624627374475,-0.1355484709008259
890,-0.8148385976502666,73.17824873692001,-0.14797408104493326,-0.004002470213554595,-0.13734711858744494
891,-0.8148374406033726,73.17824873692001,-0.1488861397853406,-0.004018853260033137,-0.13859597692932127
892,-0.8148362838931344,73.17824873692001,-0.150298193070526,-0.004040426795229951,-0.13923883937803297
893,-0.8148351275194804,73.17824873692001,-0.15219246941108436,-0.004066282346258764,-0.13919482507887448
894,-0.8148339714823387,73.17824873692001,-0.15452054809247615,-0.004095521840409967,-0.13835628133470113
895,-0.8148328157816375,73.17824873692001,-0.15718841225443284,-0.004126313903681664,-0.13658802039994447
896,-0.8148316604173049,73.17824873692001,-0.16002665276299388,-0.004154841445353341,-0.1337339184052547
897,-0.8148305053892693,73.17824873692001,-0.16276297598283898,-0.0041754596456753884,-0.12963730245359487
898,-0.8148293506974589,73.17824873692001,-0.16501847832743163,-0.004182175021580497,-0.12417425007148912
899,-0.814828196341802,73.17824873692001,-0.1663456139743456,-0.004170454324319932,-0.11729353163860971
900,-0.8148270423222271,73.17824873692001,-0.16631020973184127,-0.004138530393411314,-0.10905627968864677
901,-0.8148258886386626,73.17824873692001,-0.1645962497347718,-0.0040880229699247605,-0.09966719754439378
902,-0.8148247352910366,73.17824873692001,-0.1610985754327991,-0.004023952296673181,-0.08948774184340146
903,-0.814823582279278,73.17824873692001,-0.15597491795751167,-0.003954161911955631,-0.079024478896927
904,-0.8148224296033153,73.17824873692001,-0.14964061995459466,-0.0038880021822767477,-0.06889069377156339
905,-0.8148212772630771,73.17824873692001,-0.14270221734357375,-0.0038343620222040893,-0.059743609053324896
906,-0.8148201252584918,73.17824873692001,-0.1358488797527903,-0.003799799332503987,-0.05220561998600839
907,-0.8148189735894876,73.17824873692001,-0.1297405485015387,-0.0037875263815471015,-0.04678696951170774
908,-0.814817822255993,73.17824873692001,-0.12492435426607754,-0.0037972575992517165,-0.043831024111163415
909,-0.8148166712579361,73.17824873692001,-0.12178191561949606,-0.003825639721903475,-0.043491737847043514
910,-0.8148155205952454,73.17824873692001,-0.12049573973480775,-0.0038672349771026286,-0.045735303957005216
911,-0.8148143702678494,73.17824873692001,-0.12103825852027818,-0.003915850571818499,-0.050353815707320386
912,-0.8148132202756763,73.17824873692001,-0.1231970647198755,-0.003965595284823358,-0.056987144357815434
913,-0.8148120706186543,73.17824873692001,-0.1266322429612254,-0.004011290598432553,-0.0651559720706902
914,-0.8148109212967122,73.17824873692001,-0.13094247509507057,-0.0040485628014760525,-0.07430863081353486
915,-0.8148097723097782,73.17824873692001,-0.13571981577109055,-0.004074175561257234,-0.08387918436805222
916,-0.8148086236577808,73.17824873692001,-0.1405905302826061,-0.00408662142195364,-0.09334760435272721
917,-0.8148074753406482,73.17824873692001,-0.14524446815294687,-0.004086394347739258,-0.10228766470925135
918,-0.8148063273583088,73.17824873692001,-0.14944360048301403,-0.004075576477646938,-0.11038682261417065
919,-0.8148051797106908,73.17824873692001,-0.15300306968582056,-0.004057132088749767,-0.11743002491184018
920,-0.8148040323977224,73.17824873692001,-0.1557630369759497,-0.004034470830849893,-0.1232578117955835
921,-0.814802885419332,73.17824873692001,-0.15758289009847465,-0.004011170024050051,-0.12772819685480225
922,-0.8148017387754481,73.17824873692001,-0.15837078262647067,-0.003990516963412045,-0.13071192641901783
923,-0.8148005924659991,73.17824873692001,-0.1581295352790309,-0.003975062546768217,-0.13212390920018904
924,-0.8147994464909135,73.17824873692001,-0.1569859331622312,-0.003966320947890649,-0.1319640337776365
925,-0.8147983008501196,73.17824873692001,-0.15518239239525436,-0.00396434459806711,-0.1303394268367208
926,-0.814797155543546,73.17824873692001,-0.15303037830170052,-0.003967383987382866,-0.12746266854478622
927,-0.8147960105711212,73.17824873692001,-0.15084094926709055,-0.003972323939321503,-0.12363614900228988
928,-0.8147948659327733,73.17824873692001,-0.14885955452515648,-0.003975931843418422,-0.11922954162706881
929,-0.8147937216284311,73.17824873692001,-0.14723245788497114,-0.003976157640070597,-0.11464909260131731
930,-0.8147925776580228,73.17824873692001,-0.14601384880033927,-0.003972863036490989,-0.11029766289165352
931,-0.8147914340214767,73.17824873692001,-0.14520016387285206,-0.003967758322066134,-0.10653191555059253
932,-0.814790290718721,73.17824873692001,-0.14476603006343497,-0.003963425318845747,-0.10362679329600051
933,-0.8147891477496843,73.17824873692001,-0.14467889247951013,-0.0039618293887261164,-0.10175223548339407
934,-0.8147880051142947,73.17824873692001,-0.14489017985274932,-0.003963439230273341,-0.10096127672656849
935,-0.8147868628124811,73.17824873692001,-0.14532296809821896,-0.003967567706223608,-0.101190349858575
936,-0.8147857208441719,73.17824873692001,-0.14587520944548737,-0.003973262057186684,-0.10227708560407324
937,-0.814784579209295,73.17824873692001,-0.14644089901000193,-0.0039797933414460656,-0.10399782815546538
938,-0.8147834379077789,73.17824873692001,-0.14693771961261712,-0.00398659540225274,-0.10611448629605263
939,-0.8147822969395515,73.17824873692001,-0.14732432436719872,-0.003993088663190945,-0.10841151258805722
940,-0.8147811563045416,73.17824873692001,-0.14759871809518965,-0.003998649287577228,-0.11071262839945126
941,-0.8147800160026776,73.17824873692001,-0.14778507860150153,-0.004002714461716491,-0.11288393659612282
942,-0.8147788760338878,73.17824873692001,-0.1479206383874592,-0.004005111300572466,-0.11483440345386936
943,-0.8147777363981006,73.17824873692001,-0.1480489575681713,-0.004006532665145204,-0.11651602252574403
944,-0.8147765970952447,73.17824873692001,-0.14822408149994898,-0.004008620770700537,-0.1179190623163554
945,-0.8147754581252484,73.17824873692001,-0.14852477782464615,-0.004013371323061609,-0.11905841830252004
946,-0.8147743194880401,73.17824873692001,-0.14906499122107708,-0.004022323678879567,-0.11995232079961524
947,-0.814773181183548,73.17824873692001,-0.14998267054673892,-0.004036085123979773,-0.12060022001409419
948,-0.8147720432117004,73.17824873692001,-0.15140348727205596,-0.004054269479261731,-0.12096703254993071
949,-0.8147709055724257,73.17824873692001,-0.15339405149330504,-0.004075653116543689,-0.12097507560217857
950,-0.8147697682656524,73.17824873692001,-0.1559233175968525,-0.0040983143050316835,-0.12050005082390947
951,-0.8147686312913087,73.17824873692001,-0.15884165545050266,-0.004119669905669352,-0.11936992787163124
952,-0.8147674946493231,73.17824873692001,-0.16187964763199666,-0.004136553759001869,-0.11737268614336244
953,-0.8147663583396239,73.17824873692001,-0.16466878417183736,-0.004145459932780377,-0.1142811513973425
954,-0.8147652223621394,73.17824873692001,-0.1667842359083811,-0.004142915157411544,-0.10989631917006348
955,-0.8147640867167982,73.17824873692001,-0.16780240604079047,-0.004126042048478251,-0.10410027308034762
956,-0.8147629514035286,73.17824873692001,-0.16736245806358807,-0.004093456346785263,-0.09690399069707498
957,-0.8147618164222593,73.17824873692001,-0.16522628801817396,-0.00404625185771259,-0.0884769786198085
958,-0.8147606817729186,73.17824873692001,-0.16133540922757839,-0.003988554893610874,-0.07915225800786524
959,-0.8147595474554349,73.17824873692001,-0.1558552349136715,-0.0039274327975111975,-0.06940716940804521
960,-0.8147584134697368,73.17824873692001,-0.14918632878615964,-0.003872081933837887,-0.05982421599356951
961,-0.8147572798157524,73.17824873692001,-0.14192652646311524,-0.0038321045298291743,-0.05103611885250761
962,-0.8147561464934101,73.17824873692001,-0.13478679183500922,-0.0038150371435824422,-0.04365979986282492
963,-0.8147550135026382,73.17824873692001,-0.1284795951664471,-0.003823990433571705,-0.038227552533074326
964,-0.8147538808433651,73.17824873692001,-0.12360237945692741,-0.003856567860051361,-0.035125606067355195
965,-0.8147527485155192,73.17824873692001,-0.12054051079304043,-0.003905666070617131,-0.03454978141411824
966,-0.8147516165190288,73.17824873692001,-0.11941989911445486,-0.003961649600259015,-0.03648848226472131
967,-0.8147504848538223,73.17824873692001,-0.12012998615144427,-0.00401483437661787,-0.04073975851913895
968,-0.814749353519828,73.17824873692001,-0.12240295928887993,-0.004057510121763563,-0.046956532502770834
969,-0.8147482225169742,73.17824873692001,-0.12590383900693242,-0.004085157852524496,-0.054702228821350944
970,-0.8147470918451893,73.17824873692001,-0.13028950455497837,-0.004096742656921589,-0.06349926800466824
971,-0.8147459615044018,73.17824873692001,-0.13522746972472785,-0.00409403134019365,-0.07286254290237969
972,-0.8147448314945402,73.17824873692001,-0.14039322921394073,-0.004080090172315246,-0.08232043937667924
973,-0.8147437018155328,73.17824873692001,-0.14546561979364628,-0.004057777354883081,-0.09143125675486255
974,-0.8147425724673079,73.17824873692001,-0.15012695559429742,-0.004029289948196636,-0.0998013803294918
975,-0.8147414434497939,73.17824873692001,-0.15407120054787873,-0.003996849177411681,-0.10710663239152214
976,-0.8147403147629195,73.17824873692001,-0.1570284551132638,-0.003963473758896337,-0.11311436597453374
977,-0.814739186406613,73.17824873692001,-0.15880974430457037,-0.003932854431109787,-0.11770234132285538
978,-0.8147380583808027,73.17824873692001,-0.15935726669572248,-0.003908471594185527,-0.12087047652655451
979,-0.8147369306854171,73.17824873692001,-0.15877091158320158,-0.0038928295443571635,-0.1227423201092378
980,-0.8147358033203844,73.17824873692001,-0.15729026926921744,-0.0038871367970368825,-0.12355420976955672
981,-0.8147346762856335,73.17824873692001,-0.1552393347254025,-0.0038911464132017183,-0.12363216278550587
982,-0.8147335495810927,73.17824873692001,-0.15296204977168298,-0.003903103919754102,-0.1233591471313271
983,-0.8147324232066905,73.17824873692001,-0.1507697398325388,-0.003920026398149421,-0.12313530245432924
984,-0.8147312971623549,73.17824873692001,-0.14890497979858464,-0.00393849177149704,-0.12333076331028671
985,-0.8147301714480143,73.17824873692001,-0.1475228793431428,-0.003955837925311708,-0.1242323836375713
986,-0.814729046063597,73.17824873692001,-0.14668915495154625,-0.003971061579151646,-0.12599505952146456
987,-0.8147279210090311,73.17824873692001,-0.14638823728495867,-0.003984666750673132,-0.12861524176959543
988,-0.8147267962842453,73.17824873692001,-0.14653718729403475,-0.0039977025994566845,-0.13193760959947
989,-0.814725671889168,73.17824873692001,-0.1470077454352454,-0.004010853787459278,-0.13568882255689732
990,-0.8147245478237277,73.17824873692001,-0.1476543774240394,-0.004023952411863136,-0.13952126905323226
991,-0.8147234240878526,73.17824873692001,-0.14833925772777537,-0.0040358206701465085,-0.1430557130928914
992,-0.8147223006814711,73.17824873692001,-0.14894859101035238,-0.004044587765834849,-0.14592271122345019
993,-0.8147211776045115,73.17824873692001,-0.14939975035441616,-0.004048536269537884,-0.1478026903365481
994,-0.8147200548569021,73.17824873692001,-0.14963999490420501,-0.004046855814474558,-0.14845914059390602
995,-0.8147189324385716,73.17824873692001,-0.14964196446929118,-0.004039740610857751,-0.14776046204467957
996,-0.8147178103494483,73.17824873692001,-0.14940211518756083,-0.004028084717249167,-0.14569107544827647
997,-0.8147166885894603,73.17824873692001,-0.1489396201539535,-0.004013272957324301,-0.142353611336689
998,-0.8147155671585361,73.17824873692001,-0.14829052781515617,-0.003997144031019431,-0.1379618620802614
999,-0.8147144460566038,73.17824873692001,-0.14750137487343132,-0.0039818623065053654,-0.13282271801227127
1000,-0.8147133252835921,73.17824873692001,-0.14663038079717705,-0.003969465194352336,-0.12730547518700155
1001,-0.8147122048394294,73.17824873692001,-0.14575527084609133,-0.003961246307330662,-0.12180059823463583
1002,-0.8147110847240444,73.17824873692001,-0.14497907686968348,-0.003957469888796702,-0.11667678411464978
1003,-0.8147099649373656,73.17824873692001,-0.14442846076491284,-0.003957666058035026,-0.11224712996681938
1004,-0.8147088454793214,73.17824873692001,-0.1442453492181466,-0.003961289006109968,-0.10874841982043901
1005,-0.8147077263498401,73.17824873692001,-0.1445736104189839,-0.003968380338224566,-0.10632923123383212
1006,-0.8147066075488499,73.17824873692001,-0.14554165689251183,-0.003979924355125593,-0.10504098533381948
1007,-0.8147054890762794,73.17824873692001,-0.14724366875802478,-0.003997699955329011,-0.1048303633468036
1008,-0.8147043709320569,73.17824873692001,-0.14972128709496665,-0.004023575199632446,-0.10553418530974638
1009,-0.8147032531161109,73.17824873692001,-0.15294226794716292,-0.004058285028958795,-0.10687692498846639
1010,-0.8147021356283697,73.17824873692001,-0.1567719421099304,-0.00410010550408235,-0.10847264401571194
1011,-0.8147010184687615,73.17824873692001,-0.1609417558776324,-0.004144260286769119,-0.10983923154457571
1012,-0.8146999016372147,73.17824873692001,-0.16503128512686385,-0.004183567740379635,-0.11043577562658112
1013,-0.8146987851336578,73.17824873692001,-0.16848675834416893,-0.004210020891609458,-0.10972556933908123
1014,-0.8146976689580193,73.17824873692001,-0.1706903288791763,-0.0042165889887020875,-0.10725196656096916
1015,-0.8146965531102275,73.17824873692001,-0.17107125250606345,-0.004198701441376296,-0.10270798131788957
1016,-0.8146954375902108,73.17824873692001,-0.16923040941544298,-0.0041553657563340885,-0.09598881901546975
1017,-0.8146943223978977,73.17824873692001,-0.16504642339896936,-0.004090062165722913,-0.08722522173850128
1018,-0.8146932075332167,73.17824873692001,-0.15873580069169893,-0.004010894455206875,-0.07679435494656864
1019,-0.8146920929960962,73.17824873692001,-0.1508436209728258,-0.003929111447991326,-0.06530198399668764
1020,-0.8146909787864645,73.17824873692001,-0.14215756214764028,-0.003856220830506693,-0.05353388474949533
1021,-0.8146898649042497,73.17824873692001,-0.13356727076766695,-0.003801125974522419,-0.042382655694878625
1022,-0.8146887513493801,73.17824873692001,-0.12591354911312247,-0.0037684692666746,-0.032760513158120834
1023,-0.8146876381217839,73.17824873692001,-0.1198719753413944,-0.003758403170508027,-0.025507035105719333
1024,-0.8146865252213895,73.17824873692001,-0.11589028380891539,-0.003767554821516876,-0.021298324337001438
1025,-0.8146854126481252,73.17824873692001,-0.11416920101260249,-0.0037907608210385915,-0.02056691436706125
1026,-0.8146843004019199,73.17824873692001,-0.11467498688852354,-0.003822862421998558,-0.02344810966129735
1027,-0.8146831884827019,73.17824873692001,-0.11718506383752335,-0.0038598825207031232,-0.029767803731386225
1028,-0.8146820768903997,73.17824873692001,-0.12135646226985149,-0.003899237685676801,-0.03907399296344162
1029,-0.8146809656249417,73.17824873692001,-0.12678488737000443,-0.003939147333749736,-0.05069990399324097
1030,-0.8146798546862564,73.17824873692001,-0.13303227495303382,-0.003977917776733211,-0.06384326119288447
1031,-0.8146787440742721,73.17824873692001,-0.1396352667804295,-0.004013646255733788,-0.07764970808009956
1032,-0.8146776337889174,73.17824873692001,-0.14612144242822175,-0.004044349977097877,-0.091289394009234
1033,-0.814676523830121,73.17824873692001,-0.15204149836892097,-0.00406831524474422,-0.10401842451736963
1034,-0.814675414197811,73.17824873692001,-0.15700633942406317,-0.004084488647033042,-0.11522626297863761
1035,-0.8146743048919156,73.17824873692001,-0.16071989042863938,-0.004092674208863877,-0.1244745031479681
1036,-0.8146731959123631,73.17824873692001,-0.1630065965573216,-0.004093336811144972,-0.13152359748983192
1037,-0.8146720872590817,73.17824873692001,-0.16383197268974717,-0.004087271696071754,-0.13633747438198646
1038,-0.8146709789319995,73.17824873692001,-0.16330924136249012,-0.004075603668618236,-0.13906374250440298
1039,-0.8146698709310451,73.17824873692001,-0.16168307951283595,-0.004059919567198701,-0.1399961360259227
1040,-0.814668763256147,73.17824873692001,-0.15928719954564438,-0.004042076137126997,-0.13952469635383363
1041,-0.8146676559072338,73.17824873692001,-0.1564851286173189,-0.004023867657279419,-0.13807803669507146
1042,-0.8146665488842341,73.17824873692001,-0.15361282177802285,-0.004006851778070615,-0.13606672938808237
1043,-0.8146654421870761,73.17824873692001,-0.15093887989796043,-0.003992242745517233,-0.13383763153155062
1044,-0.8146643358156886,73.17824873692001,-0.14864751600867263,-0.003980897111590402,-0.1316438801378707
1045,-0.8146632297699999,73.17824873692001,-0.14684040825083686,-0.003973492628376147,-0.12963276557451445
1046,-0.8146621240499382,73.17824873692001,-0.14555035272815184,-0.003970687758847526,-0.12785319922622038
1047,-0.8146610186554317,73.17824873692001,-0.14476078399579928,-0.003973037866527373,-0.1262798033224511
1048,-0.8146599135864088,73.17824873692001,-0.14442693921115507,-0.003980666815387795,-0.12484438669751409
1049,-0.8146588088427978,73.17824873692001,-0.1444933525699497,-0.003992884411342844,-0.12346508831648725
1050,-0.8146577044245273,73.17824873692001,-0.14490089594330274,-0.004008164450836891,-0.12206875012325762
1051,-0.8146566003315259,73.17824873692001,-0.14558198158647814,-0.004024567873577528,-0.12060584559465173
1052,-0.8146554965637218,73.17824873692001,-0.14645211221541252,-0.004040057491306633,-0.11905737702859537
1053,-0.8146543931210437,73.17824873692001,-0.14740755163786362,-0.004052461751501069,-0.1174345913702216
1054,-0.8146532900034198,73.17824873692001,-0.14833199958053345,-0.004059566882183459,-0.11577476909324652
1055,-0.8146521872107785,73.17824873692001,-0.1491099014560671,-0.004059635477799224,-0.11413628018078044
1056,-0.8146510847430481,73.17824873692001,-0.1496424027966857,-0.004052012837723056,-0.11259527333023496
1057,-0.8146499826001574,73.17824873692001,-0.14985938284543426,-0.004037327347334083,-0.11124408413094716
1058,-0.8146488807820348,73.17824873692001,-0.1497220978326565,-0.004017182671870311,-0.11018686737697761
1059,-0.8146477792886083,73.17824873692001,-0.1492232552618512,-0.003993714546172052,-0.10952792637426773
1060,-0.8146466781198063,73.17824873692001,-0.14839887295529205,-0.0039694188868111616,-0.10935464783670534
1061,-0.8146455772755568,73.17824873692001,-0.14734939790409357,-0.003947276312681594,-0.10972063626512217
1062,-0.8146444767557882,73.17824873692001,-0.14624869927926343,-0.003930769712435612,-0.11063239024978182
1063,-0.8146433765604293,73.17824873692001,-0.14532726801036272,-0.0039233391605716355,-0.11204124796760652
1064,-0.8146422766894085,73.17824873692001,-0.14483505573043085,-0.003927476217444853,-0.11384240384681364
1065,-0.8146411771426543,73.17824873692001,-0.14499842272444396,-0.003944173782787139,-0.1158815443625869
1066,-0.8146400779200951,73.17824873692001,-0.14598336653237629,-0.003972891035988592,-0.11796741463709422
1067,-0.8146389790216592,73.17824873692001,-0.14786706166402763,-0.004011560940365425,-0.11988494657997015
1068,-0.8146378804472746,73.17824873692001,-0.1506147295535223,-0.004056432458764015,-0.12140224328524336
1069,-0.8146367821968696,73.17824873692001,-0.1540669933863717,-0.004102006712483727,-0.12227165713325912
1070,-0.8146356842703731,73.17824873692001,-0.1579468926959388,-0.0041413851423118975,-0.12223264783635622
1071,-0.8146345866677135,73.17824873692001,-0.1618833850520007,-0.004167188819515614,-0.1210222349945944
1072,-0.814633489388819,73.17824873692001,-0.16543767330565837,-0.004172884119058492,-0.11839339729029455
1073,-0.8146323924336178,73.17824873692001,-0.16812780317770876,-0.004153984338439328,-0.11414042859517617
1074,-0.8146312958020386,73.17824873692001,-0.16946264555751517,-0.004108769738160819,-0.1081316739451469
1075,-0.8146301994940096,73.17824873692001,-0.16899930345013528,-0.004038736528542224,-0.10035060547080343
1076,-0.8146291035094595,73.17824873692001,-0.16642825399576636,-0.003949094167529866,-0.0909420201453269
1077,-0.814628007848317,73.17824873692001,-0.16167357602644034,-0.0038492726185268954,-0.0802500239571288
1078,-0.8146269125105104,73.17824873692001,-0.15497495543210957,-0.0037527739629042134,-0.06882795080114829
1079,-0.8146258174959682,73.17824873692001,-0.14690717852372012,-0.003675203419644592,-0.05740809513827138
1080,-0.8146247228046187,73.17824873692001,-0.1383089426932386,-0.003630405094228326,-0.046834407359727555
1081,-0.8146236284363902,73.17824873692001,-0.1301334591159727,-0.003626615895688926,-0.037969982221464964
1082,-0.8146225343912112,73.17824873692001,-0.12327142200883423,-0.00366458958939972,-0.03159281776628372
1083,-0.8146214406690097,73.17824873692001,-0.11840382136465542,-0.003737995942580676,-0.02829479846501255
1084,-0.8146203472697142,73.17824873692001,-0.1159135545788536,-0.0038353451874111487,-0.028400548092701986
1085,-0.8146192541932531,73.17824873692001,-0.11585537257592356,-0.003942540442642647,-0.03192218023509897
1086,-0.8146181614395548,73.17824873692001,-0.11798474193494476,-0.00404538578680693,-0.0385614267856001
1087,-0.8146170690085478,73.17824873692001,-0.12184786419470367,-0.004131768306782589,-0.04775991038644435
1088,-0.8146159769001606,73.17824873692001,-0.12690482140658493,-0.004193463184054572,-0.05878359226024254
1089,-0.8146148851143217,73.17824873692001,-0.1326327251075947,-0.004227278590859815,-0.0708178246974202
1090,-0.8146137936509592,73.17824873692001,-0.13857658532955516,-0.004234907481506561,-0.08305215119825911
1091,-0.814612702510002,73.17824873692001,-0.1443583243077827,-0.0042213087123308575,-0.09474574580598116
1092,-0.8146116116913783,73.17824873692001,-0.1496707614847164,-0.004192543127912734,-0.1052742524820519
1093,-0.8146105211950163,73.17824873692001,-0.15426900312342792,-0.004154329171564237,-0.11416014848287499
1094,-0.8146094310208445,73.17824873692001,-0.15795917709878124,-0.0041116586021839865,-0.1210870036904095
1095,-0.8146083411687912,73.17824873692001,-0.1605863327081274,-0.00406880829927757,-0.12590127528402745
1096,-0.8146072516387847,73.17824873692001,-0.16203037597302605,-0.004029146050549367,-0.12860972675090054
1097,-0.8146061624307536,73.17824873692001,-0.16222245032268556,-0.003994841078047378,-0.12937627829100046
1098,-0.814605073544626,73.17824873692001,-0.16118208069819373,-0.003966851273796657,-0.12851187745564538
1099,-0.8146039849803303,73.17824873692001,-0.15905317403803645,-0.003945282218945365,-0.12644688249975708
1100,-0.8146028967377951,73.17824873692001,-0.15611179653772997,-0.003929956687297396,-0.12368110309416037
1101,-0.8146018088169485,73.17824873692001,-0.15273507101133169,-0.003920817479176277,-0.12071756877733314
1102,-0.814600721217719,73.17824873692001,-0.1493395143580726,-0.003917824129563088,-0.11799637008261571
1103,-0.8145996339400352,73.17824873692001,-0.14631015811227727,-0.00392066327422315,-0.11584707165411563
1104,-0.8145985469838258,73.17824873692001,-0.1439442404075075,-0.003928849715002054,-0.11446939582539647
1105,-0.8145974603490196,73.17824873692001,-0.1424210516625772,-0.003941980225329274,-0.11393910960927196
1106,-0.8145963740355447,73.17824873692001,-0.14179603292486406,-0.003959487374610108,-0.11422920916475006
1107,-0.8145952880433295,73.17824873692001,-0.1420138494889476,-0.003980001132166243,-0.11523838749544724
1108,-0.8145942023723021,73.17824873692001,-0.14293390526174762,-0.004001083905769395,-0.11682267188996023
1109,-0.8145931170223907,73.17824873692001,-0.1443596603374796,-0.004019728322717526,-0.11882619949879011
1110,-0.8145920319935235,73.17824873692001,-0.14606803261701667,-0.004033205327036509,-0.1211062977964954
1111,-0.814590947285629,73.17824873692001,-0.1478422098143392,-0.004039738076902604,-0.12354779329036579
1112,-0.8145898628986358,73.17824873692001,-0.14950597087750211,-0.00403896502459446,-0.12605942183198496
1113,-0.8145887788324724,73.17824873692001,-0.15094401061740992,-0.004032216170649658,-0.1285478150376837
1114,-0.8145876950870671,73.17824873692001,-0.15209435324619672,-0.004022335469093417,-0.13087834848799595
1115,-0.8145866116623484,73.17824873692001,-0.1529208398418478,-0.004012856901923697,-0.13284624918610022
1116,-0.814585528558245,73.17824873692001,-0.15338817541649655,-0.004006674917067193,-0.1341801093544817
1117,-0.8145844457746851,73.17824873692001,-0.15345287277109687,-0.004004723892313999,-0.13458511404263582
1118,-0.8145833633115973,73.17824873692001,-0.15306855687290968,-0.00400550164031486,-0.13381703576503573
1119,-0.8145822811689096,73.17824873692001,-0.15220045054446654,-0.004005950699289351,-0.131763875794082
1120,-0.8145811993465507,73.17824873692001,-0.15084690345784266,-0.004003233923639918,-0.12850216030605724
1121,-0.814580117844449,73.17824873692001,-0.14906492697477214,-0.003996299404128988,-0.12430148025406856
1122,-0.8145790366625328,73.17824873692001,-0.1469899694139734,-0.003986337472561285,-0.11957641876934821
1123,-0.8145779558007308,73.17824873692001,-0.14483661923580426,-0.003976022907610035,-0.11480917661988928
1124,-0.8145768752589712,73.17824873692001,-0.14287273180785276,-0.003968212152179741,-0.11046965347401941
1125,-0.8145757950371821,73.17824873692001,-0.1413700565933302,-0.003964873683053121,-0.10694737408755547
1126,-0.8145747151352922,73.17824873692001,-0.14054703034557123,-0.003966608727389104,-0.10450061054792843
1127,-0.8145736355532296,73.17824873692001,-0.1405287608971558,-0.003972817571819438,-0.10322984455095593
1128,-0.8145725562909226,73.17824873692001,-0.14134059342922856,-0.003982373638839465,-0.10308285077672914
1129,-0.8145714773482999,73.17824873692001,-0.1429288806290654,-0.003994366128206958,-0.10388733066526411
1130,-0.8145703987252901,73.17824873692001,-0.14519200470738078,-0.004008533800735283,-0.10539587066247019
1131,-0.8145693204218215,73.17824873692001,-0.14801056878424823,-0.004025409114061374,-0.10732863330974754
1132,-0.8145682424378226,73.17824873692001,-0.15126772248370896,-0.004046037432809309,-0.10940420091749278
1133,-0.8145671647732217,73.17824873692001,-0.15484872837978783,-0.004070958705257589,-0.11135227777711287
1134,-0.8145660874279472,73.17824873692001,-0.15861851328204105,-0.00409894844501352,-0.11290825537094171
1135,-0.8145650104019276,73.17824873692001,-0.16238963673497783,-0.004126496888649438,-0.11379824224161102
