,PPG_Raw,PPG_Clean,PPG_Rate,PPG_Peaks
0,-4.87766751703697,-0.7711431239342912,117.88896504455107,0.0
1,-5.5222169341307135,-1.3275462110884368,117.88896504455107,0.0
2,-6.1563146253269165,-1.8819423961574788,117.88896504455107,0.0
3,-6.773105992376446,-2.4316235957980608,117.88896504455107,0.0
4,-7.368936612214439,-2.973012256619045,117.88896504455107,0.0
5,-7.942954264827159,-3.501010780873541,117.88896504455107,0.0
6,-8.495343365818878,-4.008313649783705,117.88896504455107,0.0
7,-9.024639318063924,-4.484907665106079,117.88896504455107,0.0
8,-9.524981996582957,-4.918045845309903,117.88896504455107,0.0
9,-9.984367444749942,-5.292942000343114,117.88896504455107,0.0
10,-10.384833251941656,-5.594289398778728,117.88896504455107,0.0
11,-10.705020503457996,-5.808487320085609,117.88896504455107,0.0
12,-10.924789109057585,-5.9262225622466005,117.88896504455107,0.0
13,-11.030775454822821,-5.944871808713629,117.88896504455107,0.0
14,-11.021287491580178,-5.870129426667875,117.88896504455107,0.0
15,-10.908959403152329,-5.7163583522217305,117.88896504455107,0.0
16,-10.720159061560445,-5.505400826634897,117.88896504455107,0.0
17,-10.49106603921404,-5.263919187919604,117.88896504455107,0.0
18,-10.261299272778258,-5.019682916762383,117.88896504455107,0.0
19,-10.066657504763294,-4.797487540896381,117.88896504455107,0.0
20,-9.93274176641216,-4.615512310276227,117.88896504455107,0.0
21,-9.87092706094922,-4.482862422302993,117.88896504455107,0.0
22,-9.877473069449053,-4.3988092671240455,117.88896504455107,0.0
23,-9.935746439493037,-4.353891183326908,117.88896504455107,0.0
24,-10.02081668840849,-4.332646468181407,117.88896504455107,0.0
25,-10.105256471876476,-4.317405049783637,117.88896504455107,0.0
26,-10.164878170867784,-4.292337316841084,117.88896504455107,0.0
27,-10.183317118852981,-4.2468929815436125,117.88896504455107,0.0
28,-10.154714858649523,-4.17787096019118,117.88896504455107,0.0
29,-10.084150999630081,-4.089622200536118,117.88896504455107,0.0
30,-9.985840593715539,-3.99225428651899,117.88896504455107,0.0
31,-9.879415918362538,-3.898115614344785,117.88896504455107,0.0
32,-9.784839674477954,-3.8172165755616305,117.88896504455107,0.0
33,-9.716668544415326,-3.752525824230376,117.88896504455107,0.0
34,-9.67853401462836,-3.696202344044985,117.88896504455107,0.0
35,-9.658849803490948,-3.627749570671687,117.88896504455107,0.0
36,-9.628853820393322,-3.5147964560528857,117.88896504455107,0.0
37,-9.544028713587032,-3.316749611358614,117.88896504455107,0.0
38,-9.349563386609216,-2.9909890405091852,117.88896504455107,0.0
39,-8.98973911066794,-2.50070236568922,117.88896504455107,0.0
40,-8.420038233753798,-1.8229944330419963,117.88896504455107,0.0
41,-7.619645907576563,-0.9556905484763631,117.88896504455107,0.0
42,-6.601246403549361,0.07864618445953786,117.88896504455107,0.0
43,-5.4150447498855305,1.2325260711149997,117.88896504455107,0.0
44,-4.145024103630399,2.437512956565768,117.88896504455107,0.0
45,-2.8974172901218163,3.611891092094192,117.88896504455107,0.0
46,-1.7836316570305728,4.670782578266549,117.88896504455107,0.0
47,-0.9016114462757882,5.536976787712362,117.88896504455107,0.0
48,-0.32017280542704313,6.15060646517616,117.88896504455107,0.0
49,-0.06995871774186413,6.476081731621513,117.88896504455107,0.0
50,-0.1426413518947409,6.505294569792861,117.88896504455107,1.0
51,-0.49758172534656864,6.256871971583135,118.28755435761158,0.0
52,-1.0732001810059462,5.7719921753532315,118.68731990736386,0.0
53,-1.79945471207753,5.107816311873519,119.08825193705017,0.0
54,-2.6082440436305627,4.329829450832561,119.49034038224639,0.0
55,-3.439926469386249,3.504324250783601,119.89357486633521,0.0
56,-4.24583210584476,2.6919720887863905,120.29794469596044,0.0
57,-4.987981327918013,1.9430318863162697,120.70343885646147,0.0
58,-5.637784223716154,1.2943685453639806,121.11004600729142,0.0
59,-6.175227673575582,0.7681769482941968,121.51775447741863,0.0
60,-6.589222557633675,0.37216375761747866,121.92655226071466,0.0
61,-6.878817095914194,0.10090497446872698,122.33642701132898,0.0
62,-7.054300281366968,-0.061881700724203265,122.74736603905318,0.0
63,-7.137070121283833,-0.1403906348386962,123.1593563046755,0.0
64,-7.157532814155068,-0.1633642234359216,123.5723844153283,0.0
65,-7.151024863591253,-0.1606174425575217,123.98643661982956,0.0
66,-7.152496292591512,-0.15981270674169948,124.40149880402109,0.0
67,-7.191172132543164,-0.18386281534994459,124.81755648610458,0.0
68,-7.286465892794977,-0.2492794009416615,125.23459481197867,0.0
69,-7.446068033179394,-0.365635138168128,125.65259855057796,0.0
70,-7.666527195224143,-0.5360907139706292,126.07155208921714,0.0
71,-7.935991854485285,-0.7587022386430937,126.49143942894197,0.0
72,-8.238266606121337,-1.0280369243867538,126.91224417988978,0.0
73,-8.557062650417372,-1.3365460618537368,127.33394955666157,0.0
74,-8.879308226528314,-1.675212946531789,127.75653837370864,0.0
75,-9.196606213380317,-2.033210660368301,128.17999304073592,0.0
76,-9.50434191353152,-2.3966296668674616,128.60429555812505,0.0
77,-9.798506696303004,-2.7466909025913506,129.02942751237947,0.0
78,-10.070945736821841,-3.0581489584576858,129.45537007159487,0.0
79,-10.304353644615036,-3.298717729175659,129.8821039809575,0.0
80,-10.46877097002408,-3.430252924038335,130.30960955827337,0.0
81,-10.521379349030239,-3.4120902039945604,130.7378666895315,0.0
82,-10.410877191891112,-3.206417975607314,131.1668548245045,0.0
83,-10.086594301106718,-2.7849751265831078,131.59655297238913,0.0
84,-9.510962863620884,-2.135859929932546,132.0269396974909,0.0
85,-8.672459087518586,-1.2689701950257584,132.45799311495523,0.0
86,-7.595268204152023,-0.2186733250777455,132.88969088654966,0.0
87,-6.342210180193205,0.9572501134381852,133.32201021649962,0.0
88,-5.009024357651668,2.182615197695952,133.75492784738188,0.0
89,-3.7105549699516795,3.371173392473295,134.18842005607982,0.0
90,-2.5618818219458506,4.436917701266425,134.62246264980314,0.0
91,-1.6590734224995143,5.304535330117596,135.05703096217718,0.0
92,-1.0643813200412497,5.91816085188631,135.49209984940487,0.0
93,-0.7993010539437325,6.246978311748315,135.92764368650577,0.0
94,-0.846528149906017,6.28693047907969,136.36363636363637,1.0
95,-1.1592898221132486,6.058623359907015,136.80925463209073,0.0
96,-1.674666534487208,5.602247018404966,137.27296795483733,0.0
97,-2.3268673870275496,4.97079454583109,137.75367229967776,0.0
98,-3.0570873343895544,4.222964933334698,138.25023878099816,0.0
99,-3.8182131373789723,3.4169055979476592,138.76151040667008,0.0
100,-4.574613088855966,2.605499439426321,139.28629895898348,0.0
101,-5.298828674495168,1.8333887493944996,139.82338201841637,0.0
102,-5.967670198801253,1.1355055508582395,140.3715001414531,0.0
103,-6.5598737355407,0.5366437961383432,140.92935420604397,0.0
104,-7.056374739171124,0.05158698054396971,141.4956029406494,0.0
105,-7.442915111677199,-0.31455127818520845,142.06886065511728,0.0
106,-7.713663426201034,-0.565895701163905,142.64769519388128,0.0
107,-7.874141781569991,-0.7152074535439872,143.23062613412085,0.0
108,-7.9420752801244205,-0.7829190885178209,143.81612325355636,0.0
109,-7.945598225635144,-0.795612847547412,144.40260529443594,0.0
110,-7.919196979551816,-0.7838423911623513,144.9884390519606,0.0
111,-7.898476273374326,-0.7793401637230667,145.5719388168489,0.0
112,-7.915072252466313,-0.811793001650466,146.1513662029105,0.0
113,-7.9927742212807695,-0.9054716042102806,146.72493039132908,0.0
114,-8.145322383620108,-1.076052981257043,147.29078882378582,0.0
115,-8.375696671630983,-1.3279870839545593,147.84704837653314,0.0
116,-8.676275040616336,-1.6527456347995186,148.39176704698417,0.0
117,-9.029184851976641,-2.0282625828694623,148.92295618326136,0.0
118,-9.406501859653746,-2.4198262571872657,149.43858328538226,0.0
119,-9.770513378813211,-2.7825935112718776,149.93657540429817,0.0
120,-10.074798110567187,-3.065743022713218,150.41482316178565,0.0
121,-10.267110845675885,-3.2180588941688217,150.87118541018407,0.0
122,-10.294804308308892,-3.1944553811182037,151.30349454613346,0.0
123,-10.112754683161912,-2.9626709143664005,151.70956248678365,0.0
124,-9.692686930810694,-2.509151240036643,152.0871873104092,0.0
125,-9.031816238873015,-1.8430870118762503,152.43416055599158,0.0
126,-8.158284555437644,-0.9977247113304217,152.74827516815986,0.0
127,-7.1312831721328855,-0.028435714417981983,153.02733406497194,0.0
128,-6.034999781773311,0.9924491005782561,153.26915929646114,0.0
129,-4.967229838189187,1.98345900507547,153.4716017517803,0.0
130,-4.025033734740016,2.8633833035989196,153.63255136229182,0.0
131,-3.2906252250882484,3.560877358357704,153.74994773725217,0.0
132,-2.8204643565950724,4.022861133060622,153.82179115801452,0.0
133,-2.6394384907034065,4.220518300001057,153.84615384615384,1.0
134,-2.7405148399242205,4.152124810516079,153.7753831592872,0.0
135,-3.0889026356606335,3.842453789731244,153.56647917676815,0.0
136,-3.6289954934676514,3.3390089663999447,153.22507259205332,0.0
137,-4.292313700688193,2.705744345913409,152.75740970908544,0.0
138,-5.005178231705036,2.015186442733949,152.17025502896624,0.0
139,-5.695576113087589,1.339981501712969,151.47079268242817,0.0
140,-6.299240760224398,0.7448670565460045,150.66652888291824,0.0
141,-6.765125561515976,0.27994857542110274,149.76519733695656,0.0
142,-7.060187241814719,-0.024023689122566694,148.774669269139,0.0
143,-7.172937814659314,-0.1579182747269201,147.70286941592428,0.0
144,-7.114893580665421,-0.13384367733648073,146.55769903117195,0.0
145,-6.9191018371985855,0.017750371459061998,145.34696664129385,0.0
146,-6.635421474867772,0.25305930464234094,144.07832700036042,0.0
147,-6.3230168072861375,0.5212915583794078,142.75922843434836,0.0
148,-6.041304352203147,0.7715225235440263,141.39686853495988,0.0
149,-5.841078028855298,0.9590797584893649,139.99815797054262,0.0
150,-5.757553523926029,1.0505986106088088,138.56969202578796,0.0
151,-5.80661215647728,1.0271266901885028,137.11772936238256,0.0
152,-5.984738306923957,0.8849976906236463,135.64817740748566,0.0
153,-6.272273679981918,0.6345717064015195,134.16658372258922,0.0
154,-6.638906127893874,0.2972737080020888,132.6781326781327,0.0
155,-7.049951026036074,-0.09841128860960946,131.18764675498832,0.0
156,-7.472029860501597,-0.521246244805579,129.69959180836494,0.0
157,-7.877137594543522,-0.941178555506164,128.21808565870813,0.0
158,-8.24466311585004,-1.3324101686623737,126.74690941402993,0.0
159,-8.561506013569764,-1.6753462646501256,125.28952097541104,0.0
160,-8.820869473358739,-1.9574056138606006,123.84907022928327,0.0
161,-9.020514772621807,-2.172861801199293,122.42841548408768,0.0
162,-9.16121436751707,-2.321990042488315,121.03014076305809,0.0
163,-9.245876150685504,-2.4098174478954215,119.65657361767003,0.0
164,-9.279426520083575,-2.444735840838602,118.3098031765889,0.0
165,-9.269170869338048,-2.4371680586923645,116.99169819195247,0.0
166,-9.225133483158443,-2.398412310607039,115.70392488802541,0.0
167,-9.159894123442267,-2.339743544944675,114.44796445639768,0.0
168,-9.087668957148711,-2.2718268925925136,113.22513007688126,0.0
169,-9.022724337491098,-2.2044811995749543,112.03658337416302,0.0
170,-8.977524236115848,-2.146798313827198,110.88335024725666,0.0
171,-8.961182845046128,-2.1075590201359162,109.76633603212652,0.0
172,-8.97876723884783,-2.095788463066186,108.68633997781912,0.0
173,-9.031769722945432,-2.121183857052907,107.64406903337222,0.0
174,-9.119686953819274,-2.1940663058419596,106.64015095701141,0.0
175,-9.24218681396437,-2.3245062488759283,105.67514677103719,0.0
176,-9.400944524566523,-2.5203889182153105,104.74956259568383,0.0
177,-9.600047741974011,-2.7844343257844715,103.86386090341666,0.0
178,-9.844051948301711,-3.110534936519971,103.01847124192822,0.0
179,-10.133377746651744,-3.480146392167301,102.21380047978316,0.0
180,-10.457709197361247,-3.859751452578225,101.4502426335103,0.0
181,-10.789141896154037,-4.20049716624546,100.72818833919763,0.0
182,-11.07766527318431,-4.440893506319309,100.04803403554519,0.0
183,-11.251721559952406,-4.512939527575437,99.4101909290939,0.0
184,-11.225755136726246,-4.351283048115885,98.8150938161875,0.0
185,-10.91484398882669,-3.904184082123118,98.26320984035034,0.0
186,-10.254100552008895,-3.1443603227227874,97.75504726838706,0.0
187,-9.218318903411932,-2.0774638596364925,97.29116437384769,0.0
188,-7.836227838330874,-0.7461215891636128,96.87217852278714,0.0
189,-6.194341862656189,0.7718097940176074,96.49877556423326,0.0
190,-4.427861288652486,2.3709979946675857,96.17171963674693,0.0
191,-2.699709980669026,3.9313472972400003,95.89186351323549,0.0
192,-1.1724076281157625,5.333513099497839,95.6601596191452,0.0
193,0.020253658827878454,6.474420708422508,95.47767187475836,0.0
194,0.7946698773876,7.279984372647828,95.34558853109026,0.0
195,1.127083371039129,7.712856316844405,95.26523619147076,0.0
196,1.0500362987536052,7.774138969874755,95.23809523809524,1.0
197,0.6379239689074518,7.499274928114896,95.27510386954833,0.0
198,-0.013375525356016455,6.9494628498725435,95.38415439217853,0.0
199,-0.8069218103469542,6.200668313953956,95.56250798186656,0.0
200,-1.6602524605934292,5.332472840312091,95.8076913882833,0.0
201,-2.513345330173691,4.418655632537578,96.11745864943379,0.0
202,-3.3289383409337567,3.5206902030222498,96.4897562884658,0.0
203,-4.087307830789762,2.684496021095561,96.92269130378592,0.0
204,-4.778740083939448,1.9400475624568467,97.41450136457888,0.0
205,-5.396877910148384,1.302977210196093,97.96352670663406,0.0
206,-5.935099571012355,0.7771777113051608,98.5681832919865,0.0
207,-6.38655292339932,0.357571517900235,99.226936853557,0.0
208,-6.746979797911978,0.03254933426078166,99.93827749544411,0.0
209,-7.0185061785897345,-0.21405809831245592,100.70069456306844,0.0
210,-7.212398225096481,-0.4013469749465697,101.51265153698846,0.0
211,-7.349350019546153,-0.5498186164856005,102.37256074165944,0.0
212,-7.456883886912877,-0.6798030158490973,103.27875769730144,0.0
213,-7.564506952220484,-0.8098236841379092,104.22947498087737,0.0
214,-7.698023741819697,-0.9550719076740413,105.22281550237473,0.0
215,-7.874650343637901,-1.1262577247587477,106.25672514648349,0.0
216,-8.100288944904376,-1.32908329202925,107.32896477865785,0.0
217,-8.369635848063561,-1.5644439501954008,108.43708166963965,0.0
218,-8.66894136682707,-1.8292521046476287,109.57838045489746,0.0
219,-8.980472094690045,-2.1175762082486886,110.74989381600935,0.0
220,-9.287258156015083,-2.421670216106599,111.94835315046465,0.0
221,-9.576658902487516,-2.7324909532137034,113.1701595850043,0.0
222,-9.841650403597852,-3.0394708952062923,114.41135578532555,0.0
223,-10.079418692434231,-3.3295917272100186,115.66759912099883,0.0
224,-10.287654863514415,-3.5861101285714487,116.93413685726733,0.0
225,-10.459690080792173,-3.787524516986563,118.2057841625599,0.0
226,-10.580096165053387,-3.9074537939461425,119.47690583846894,0.0
227,-10.622469269124748,-3.9159780288676638,120.74140279276031,0.0
228,-10.550732966891372,-3.782673802781698,121.99270437942826,0.0
229,-10.324460987160931,-3.4811300385885757,123.22376781516333,0.0
230,-9.907577138196412,-2.994265701406821,124.42708593971972,0.0
231,-9.278626812347563,-2.3194184891676866,125.59470460818481,0.0
232,-8.440001682882668,-1.4720448126522672,126.71825097482,0.0
233,-7.423374510715639,-0.4870246605907341,127.78897383942368,0.0
234,-6.28932428191885,0.5830150975274297,128.79779706703707,0.0
235,-5.120579787888854,1.6723494085553643,129.735386850814,0.0
236,-4.0100723452298155,2.7091381912473307,130.592233259376,0.0
237,-3.0464943008060965,3.6236047846650195,131.3587460915879,0.0
238,-2.3007911698101733,4.3560224862168555,132.0253645567237,0.0
239,-1.8167144707637404,4.863186519787926,132.58267971678012,0.0
240,-1.607333419915384,5.122399920139972,133.02156798859838,0.0
241,-1.6576654791483127,5.132537973508293,133.33333333333334,1.0
242,-1.9319160519344958,4.912332198502716,133.57740344117806,0.0
243,-2.3827544906621965,4.496487896887829,133.8186415507588,0.0
244,-2.9599125504965578,3.930518729162649,134.0569130890454,0.0
245,-3.616150000403321,3.2652159360704354,134.29208231647485,0.0
246,-4.309935477581025,2.551507408523941,134.5240123785378,0.0
247,-5.0054990536269965,1.836190581497376,134.75256536043125,0.0
248,-5.671732995297952,1.158744901492744,134.97760234481032,0.0
249,-6.281500912865937,0.5492246200355928,135.19898347266488,0.0
250,-6.812331869063456,0.027135917055347458,135.41656800734512,0.0
251,-7.2485417499826035,-0.3988007730012558,135.63021440175166,0.0
252,-7.583950762879299,-0.7300617936295917,135.83978036870332,0.0
253,-7.823897367857088,-0.9769381898444622,136.04512295448794,0.0
254,-7.985345632242395,-1.1564262994715693,136.24609861559637,0.0
255,-8.094481648646683,-1.289553047173062,136.4425632986341,0.0
256,-8.182051100753926,-1.398427740473094,136.63437252339685,0.0
257,-8.277483432490431,-1.5034206064786027,136.8213814690911,0.0
258,-8.403301760837396,-1.6208988511794489,137.00344506367276,0.0
259,-8.571289062942359,-1.7618689389173854,137.18041807626955,0.0
260,-8.781392967411813,-1.9316821845385475,137.3521552126458,0.0
261,-9.023565708688729,-2.1307033431058278,137.5185112136598,0.0
262,-9.281891210552503,-2.3555915042718025,137.6793409566562,0.0
263,-9.539690557717108,-2.6006790435525344,137.83449955972745,0.0
264,-9.784005315256511,-2.8589185323098536,137.98384248877048,0.0
265,-10.008022254223713,-3.122019813065639,138.12722566725458,0.0
266,-10.210593505120642,-3.3796896086984543,138.26450558861026,0.0
267,-10.392879866794154,-3.6182375951609917,138.39553943113765,0.0
268,-10.553073705469139,-3.8191222204687754,138.52018517532522,0.0
269,-10.680883536850272,-3.9581747233439555,138.63830172346061,0.0
270,-10.753765819604746,-4.006191289195385,138.74974902140607,0.0
271,-10.736647268566095,-3.931308097458665,138.85438818240198,0.0
272,-10.586094226677888,-3.703125338442623,138.95208161275298,0.0
273,-10.258687352972984,-3.2980344421489374,139.0426931392427,0.0
274,-9.722015079059096,-2.7047683364213255,139.12608813811323,0.0
275,-8.965587424901189,-1.9289695880247058,139.2021336654383,0.0
276,-8.008513122092262,-0.9956391749098362,139.27069858870865,0.0
277,-6.901285503939482,0.051305017252929686,139.3316537194419,0.0
278,-5.72049587225236,1.152545912287005,139.3848719466192,0.0
279,-4.557345239918015,2.2394900671214333,139.43022837074503,0.0
280,-3.502751049028773,3.2419673903613804,139.46760043831648,0.0
281,-2.632906612602805,4.0961682595700255,139.49686807648465,0.0
282,-1.9989186594734991,4.7514879060895865,139.51791382768053,0.0
283,-1.6227136927294403,5.175259314651701,139.53062298397447,0.0
284,-1.4993371693248458,5.354865483720721,139.53488372093022,1.0
285,-1.6038559027824273,5.297276936550369,139.51750805441054,0.0
286,-1.899977665251713,5.02651005815034,139.4664061840589,0.0
287,-2.34752334600903,4.579744799353215,139.38314915995954,0.0
288,-2.9068968673216564,4.002852209693563,139.26934667232743,0.0
289,-3.5402301496502124,3.3459150608377524,139.12663995377767,0.0
290,-4.210320683557019,2.659079700746638,138.95669495523612,0.0
291,-4.879287262562835,1.9888630129420042,138.761195835146,0.0
292,-5.508772717487385,1.3749309469023532,138.54183879553125,0.0
293,-6.062617793619567,0.8473832606789542,138.30032629248748,0.0
294,-6.511639323474929,0.4246834025251926,138.03836164287762,0.0
295,-6.839030781686816,0.11248631904896056,137.75764404348976,0.0
296,-7.044421674116226,-0.09633959046280893,137.4598640137288,0.0
297,-7.144948094297355,-0.22027806491659896,137.14669926811854,0.0
298,-7.172626690459448,-0.2863013526841959,136.819811020516,0.0
299,-7.168486863174465,-0.325839001610017,136.48084071801765,0.0
300,-7.174865644080672,-0.3701172786330178,136.13140719907432,0.0
301,-7.2277118153033815,-0.44559863320220394,135.77310426733965,0.0
302,-7.350609947595231,-0.5702948439062975,135.40749867024428,0.0
303,-7.55165321862818,-0.7516028283168834,135.0361284692077,0.0
304,-7.823511815364688,-0.9860407126603996,134.66050178675306,0.0
305,-8.146315425930629,-1.260901493370202,134.28209591455104,0.0
306,-8.492471972360434,-1.5574693625071936,133.90235676556867,0.0
307,-8.832340568541214,-1.8551365576727266,133.52269865300127,0.0
308,-9.13971568589341,-2.135577690295234,133.14450437849632,0.0
309,-9.396256145749282,-2.386119251058781,132.76912561230668,0.0
310,-9.594213038736976,-2.6015899057004592,132.39788354840388,0.0
311,-9.737036816760773,-2.784228944352881,132.03206981821634,0.0
312,-9.837689961621425,-2.9416178247524565,131.6729476475016,0.0
313,-9.914787923007419,-3.08301678724756,131.32175324189367,0.0
314,-9.987047026391513,-3.2148586237682655,130.97969738786193,0.0
315,-10.0669075201804,-3.336399148070204,130.6479672571578,0.0
316,-10.154559014394186,-3.4365868032077156,130.32772840429303,0.0
317,-10.23382156639486,-3.4930581876188147,130.02012694817398,0.0
318,-10.271295229075337,-3.4737985737509454,129.72629193070054,0.0
319,-10.219761439173002,-3.34148037916866,129.4473378469165,0.0
320,-10.025966062386356,-3.059905611518682,129.18436734317208,0.0
321,-9.641760683109924,-2.6014564871074093,128.93847408171874,0.0
322,-9.036422681590532,-1.9541290965394973,128.71074577221634,0.0
323,-8.207212316597952,-1.1266840554769464,128.50226737279124,0.0
324,-7.185213583251755,-0.15073002177734407,128.31412446555353,0.0
325,-6.034406256749981,0.9208829174744597,128.14740681388284,0.0
326,-4.843580786861448,2.0192605305256133,128.0032121113365,0.0
327,-3.7126684750640906,3.067434554545246,127.88264993474873,0.0
328,-2.736665910574234,3.9897432622989237,127.78684591700907,0.0
329,-1.991001516729254,4.72101636114581,127.71694615815639,0.0
330,-1.5216637997321103,5.214063194742705,127.6741218968565,0.0
331,-1.3418770843801338,5.444373750863019,127.65957446808511,1.0
332,-1.4351408867335513,5.411538624999023,127.66863235202109,0.0
333,-1.7627541738083328,5.137519865090502,127.695362457284,0.0
334,-2.2730860209686203,4.662412615268785,127.73910963457016,0.0
335,-2.9100232426405093,4.038631702747325,127.79923087115863,0.0
336,-3.6190017675259756,3.3245135991319708,127.8750935851553,0.0
337,-4.350310798600277,2.5781859220165986,127.9660740034401,0.0
338,-5.060410372288962,1.8523095756298822,128.07155561752197,0.0
339,-5.712474503692496,1.190035920416524,128.1909277122222,0.0
340,-6.277204902631411,0.6223122043535945,128.32358396277,0.0
341,-6.734350681755429,0.16654066762060327,128.46892109651338,0.0
342,-7.07464530576251,-0.17346291029935346,128.62633761602464,0.0
343,-7.301348968908251,-0.4062955941219524,128.79523258092323,0.0
344,-7.430456126047539,-0.5507053048986088,128.97500444624842,0.0
345,-7.488916375308572,-0.6324460181737502,129.16504995569616,0.0
346,-7.510790668374254,-0.6805672091262407,129.36476308849248,0.0
347,-7.531905008603416,-0.7235681449446799,129.57353405910888,0.0
348,-7.584049875137551,-0.785918152763458,129.79074836943877,0.0
349,-7.689956652013109,-0.8854298879071274,130.01578591344781,0.0
350,-7.860123475520049,-1.0318526255998395,130.24802013468633,0.0
351,-8.092128550319988,-1.2268361461108948,130.48681723740978,0.0
352,-8.372490865201103,-1.4651436903905937,130.73153545239302,0.0
353,-8.68056175051031,-1.7367278057161588,130.98152435884882,0.0
354,-8.993477761999742,-2.029094824309273,131.23612426416372,0.0
355,-9.29096211084644,-2.329328533909107,131.49466564345366,0.0
356,-9.55877948805314,-2.6252480693849365,131.75646864120705,0.0
357,-9.789940023109885,-2.9054262063277516,132.0208426375298,0.0
358,-9.98327514226154,-3.1581386629613153,132.2870858817303,0.0
359,-10.139680458405998,-3.3696686125983737,132.55448519618145,0.0
360,-10.257004886383998,-3.5226574026240494,132.82231575356846,0.0
361,-10.325103014590429,-3.595288861166239,133.08984093077427,0.0
362,-10.322795652895916,-3.5619734150994358,133.3563122427661,0.0
363,-10.218260087670988,-3.395866415197476,133.62096935992176,0.0
364,-9.973633142787023,-3.073078523864719,133.88304021227367,0.0
365,-9.553443869010653,-2.5779288982620194,134.14174118414658,0.0
366,-8.935179821788859,-1.9081900969555834,134.3962774026175,0.0
367,-8.119262965465703,-1.079098379171368,134.64584312313457,0.0
368,-7.135405195642445,-0.1250242166319857,134.88962221548707,0.0
369,-6.042976184345743,0.9018913858991289,135.12678875312267,0.0
370,-4.924552283738175,1.936216445591489,135.35650770855494,0.0
371,-3.8737681950776723,2.906238588377363,135.577935757294,0.0
372,-2.980296639070205,3.7423695388421363,135.7902221923614,0.0
373,-2.3156260158562496,4.385507786854872,135.9925099510162,0.0
374,-1.9229951361156084,4.793948872561094,136.1839367548236,0.0
375,-1.813509830205219,4.947763069842896,136.36363636363637,1.0
376,-1.9686027320040782,4.85009707707294,136.53961806897365,0.0
377,-2.3472596223628805,4.525454017236497,136.7202170613475,0.0
378,-2.8953960866324806,4.015517850714584,136.905051263635,0.0
379,-3.5547150476043927,3.373408901744394,137.0937350224439,0.0
380,-4.269213820175716,2.6573480654537263,137.28587886023794,0.0
381,-4.988808610475284,1.9245977270405374,137.4810892477312,0.0
382,-5.670731271526808,1.2263136741899738,137.6789683970592,0.0
383,-6.279966118320106,0.6036742610756854,137.8791140762901,0.0
384,-6.789877689525863,0.08542269701486782,138.08111944589024,0.0
385,-7.183518163265032,-0.3131996635300056,138.28457291780464,0.0
386,-7.455293469279457,-0.5902405493447335,138.4890580378551,0.0
387,-7.612113109495738,-0.7557053078221365,138.69415339219555,0.0
388,-7.673081128948789,-0.8293089021143294,138.89943253859408,0.0
389,-7.667191732336781,-0.8375647853366397,139.10446396333825,0.0
390,-7.6291626516653315,-0.8105204733027108,139.30881106457775,0.0
391,-7.594184493742193,-0.7784880546112632,139.51203216293206,0.0
392,-7.592743434310185,-0.7691101199819951,139.7136805401962,0.0
393,-7.6466708323193435,-0.8050304109248616,139.91330450697535,0.0
394,-7.76721000494812,-0.9023091503952216,140.1104475000702,0.0
395,-7.955299363769593,-1.0695656111457914,140.3046482104166,0.0
396,-8.203638446985591,-1.3076917575203433,140.49544074235644,0.0
397,-8.499614266089573,-1.6099083141200525,140.6823548049818,0.0
398,-8.827960606156328,-1.9619585933928891,140.86491593624885,0.0
399,-9.172171501795273,-2.3423548033715615,141.04264576050312,0.0
400,-9.514175386138982,-2.722769616494298,141.21506227999384,0.0
401,-9.832489967255496,-3.0688378055839793,141.3816802008791,0.0
402,-10.099822798609152,-3.34172481505164,141.5420112941372,0.0
403,-10.281601206522566,-3.5007729383132116,141.6955647917057,0.0
404,-10.336959824243985,-3.5073319815670483,141.84184781805786,0.0
405,-10.22315168546772,-3.3295530284402437,141.98036585731313,0.0
406,-9.903256695116738,-2.947554160069823,142.11062325584487,0.0
407,-9.355749928774788,-2.3580683023684315,142.23212376021164,0.0
408,-8.58342707310153,-1.5775644671594802,142.3443710900874,0.0
409,-7.61882315826007,-0.6429626580362333,142.4468695457058,0.0
410,-6.523863972831041,0.39056019393866115,142.53912464916476,0.0
411,-5.382976946477191,1.4546257876117066,142.6206438187591,0.0
412,-4.290814102556827,2.474933836190042,142.69093707532232,0.0
413,-3.3374283409801775,3.3796501335783207,142.74951777936482,0.0
414,-2.5945558131811732,4.107549386540041,142.79590339759656,0.0
415,-2.1062676334390384,4.6146187958977025,142.8296162972165,0.0
416,-1.8858093934356455,4.878162983351242,142.85018456614225,0.0
417,-1.9185072051107783,4.89796220106925,142.85714285714286,1.0
418,-2.168920170840593,4.69458558166706,142.8316854298986,0.0
419,-2.5895601829908927,4.305415921317509,142.75616971798627,0.0
420,-3.1286980433316343,3.7792129297870107,142.63195555040454,0.0
421,-3.7358001469992828,3.170103975275918,142.4604953917649,0.0
422,-4.364454386597582,2.531782555548432,142.24332502434015,0.0
423,-4.973666232985327,1.9124900420971374,141.98205412286174,0.0
424,-5.528765056105913,1.3511353533816604,141.67835681069468,0.0
425,-6.002823893412375,0.8747262086943015,141.3339622808332,0.0
426,-6.378734433457502,0.4971633218745897,140.95064555910733,0.0
427,-6.651311129610405,0.21937071708875822,140.5302184802498,0.0
428,-6.8283912894014085,0.030670184381214938,140.07452094022275,0.0
429,-6.930017948217311,-0.08877096465736922,139.58541248061812,0.0
430,-6.985360311864209,-0.16468910448496676,139.06476425318712,0.0
431,-7.02778332312019,-0.2250437481718025,138.51445140477605,0.0
432,-7.089112414526019,-0.2963542208898313,137.93634591528527,0.0
433,-7.194416381182304,-0.4005113611314739,137.33230991384082,0.0
434,-7.358469697998633,-0.5524515549778214,136.70418949128336,0.0
435,-7.584540768500381,-0.7589346832711776,136.05380902041452,0.0
436,-7.865486100616435,-1.0184770808977657,135.3829659892651,0.0
437,-8.186543541664717,-1.3223007612883446,134.69342634701198,0.0
438,-8.528885188030552,-1.6560165211888083,133.9869203571027,0.0
439,-8.872979101029959,-2.0016923766146646,133.26513894766467,0.0
440,-9.20107345080183,-2.3399778004724685,132.52973054538663,0.0
441,-9.49853274165648,-2.652041344430548,131.78229837575302,0.0
442,-9.75416789743922,-2.9211991352589752,131.02439820977077,0.0
443,-9.959974957915886,-3.134222684267707,130.2575365351284,0.0
444,-10.110761300228527,-3.2823811065157393,129.48316912803276,0.0
445,-10.204013602356726,-3.3622764372184046,128.7027000007489,0.0
446,-10.240141248298212,-3.376473865709087,127.91748069907565,0.0
447,-10.223021590742462,-3.3338342372258185,127.1288099235878,0.0
448,-10.16064121681765,-3.249361048549515,126.33793344841715,0.0
449,-10.065562531465261,-3.143320111703035,125.54604431158967,0.0
450,-9.95490549875652,-3.0394130475890133,124.75428325143974,0.0
451,-9.849501355090302,-2.9619059213381433,123.96373936434759,0.0
452,-9.771882610349037,-2.931827831013096,123.17545095995145,0.0
453,-9.74289094372789,-2.9626290095157417,122.39040659103907,0.0
454,-9.776970804871002,-3.055964968671144,121.60954623648819,0.0
455,-9.87667665569649,-3.1984752041174414,120.83376261687762,0.0
456,-10.027476804940354,-3.3604730836304664,120.06390262369656,0.0
457,-10.194413857476786,-3.4972992547017374,119.30076884442367,0.0
458,-10.322341698169252,-3.5536989360750524,118.54512116710282,0.0
459,-10.341077282857063,-3.4710080811909467,117.79767844939533,0.0
460,-10.175792296682081,-3.1962809249424815,117.05912023842303,0.0
461,-9.76147074058276,-2.6919138003017515,116.3300885290207,0.0
462,-9.058674238962595,-1.9439801017238283,115.61118954927979,0.0
463,-8.06674868799441,-0.9675163499153995,114.90299556348162,0.0
464,-6.830507174292977,0.19256263924071826,114.20604668367966,0.0
465,-5.437611821861349,1.4654492683011462,113.52085268229493,0.0
466,-4.006187458816365,2.7628758741196067,112.84789479913228,0.0
467,-2.6649894009757817,3.9905984898581908,112.18762753720642,0.0
468,-1.5307733487254414,5.060872045557491,111.54048044268708,0.0
469,-0.6885004826479884,5.9036492950943,110.90685986513057,0.0
470,-0.17923276627138912,6.47454183848743,110.28715069496494,0.0
471,0.001730036562564926,6.75832269047816,109.68171807593582,0.0
472,-0.10306172941132881,6.767730387202313,109.09090909090908,1.0
473,-0.4277458747492246,6.538300520480906,108.49704299917393,0.0
474,-0.8996887864434551,6.120664136866149,107.8832142400963,0.0
475,-1.4535075918384834,5.572059708383925,107.25090473408282,0.0
476,-2.0395157990505783,4.94867461521612,106.60157256163801,0.0
477,-2.6256980374398986,4.2999524685528705,105.93664815114265,0.0
478,-3.1943932827365753,3.665346729542925,105.2575308785956,0.0
479,-3.736215459259136,3.0733659991060227,104.56558607151334,0.0
480,-4.24406194730929,2.5423038027033815,103.86214240597721,0.0
481,-4.709413454924572,2.0818601424319407,103.14848968308337,0.0
482,-5.121863111995638,1.6949375014587784,102.42587696876697,0.0
483,-5.471432333721178,1.379149831871923,101.69551107913026,0.0
484,-5.752220691706028,1.1279007329692752,100.95855539197034,0.0
485,-5.965599273264967,0.9311524887078425,100.21612896415516,0.0
486,-6.1215200295034355,0.7761458806905726,99.46930593379803,0.0
487,-6.237350417072882,0.6483223178761406,98.71911518580283,0.0
488,-6.334587488225982,0.5325770532501002,97.96654025925751,0.0
489,-6.434507789685151,0.41479906857760107,97.21251947530722,0.0
490,-6.55405736291364,0.28349869004871175,96.45794626450964,0.0
491,-6.703060740279992,0.13123894530177704,95.7036696732267,0.0
492,-6.883279826496694,-0.04440933862892993,94.95049502931248,0.0
493,-7.089224735625113,-0.24058733674166732,94.19918474818485,0.0
494,-7.31014200644456,-0.44961535815065146,93.45045926129099,0.0
495,-7.532422054288631,-0.6601469511221709,92.7049980499735,0.0
496,-7.741787385817975,-0.8588408089383881,91.96344076878779,0.0
497,-7.9249393937563966,-1.0323120556792262,91.22638844339728,0.0
498,-8.070686272025496,-1.169095752772429,90.49440472926047,0.0
499,-8.170791314641335,-1.2613595403300266,89.7680172184114,0.0
500,-8.220788681762093,-1.3061306582867278,89.04771878270743,0.0
501,-8.22083538685335,-1.3058512970773557,88.33396894296543,0.0
502,-8.176410642359526,-1.2681468587366471,87.62719525442357,0.0
503,-8.098473778453787,-1.2047872567462758,86.92779469994014,0.0
504,-8.002659282007787,-1.129939806881362,86.23613508327077,0.0
505,-7.907267102405512,-1.0579410693550657,85.55255641564611,0.0
506,-7.830164558524393,-1.0009300626020474,84.8773722897022,0.0
507,-7.785143560136444,-0.9667553657109323,84.21087123559063,0.0
508,-7.778613273585235,-0.9575648734149288,83.55331805481937,0.0
509,-7.807598574789552,-0.9693939806502407,82.90495512804297,0.0
510,-7.8597804628232195,-0.9928925626131686,82.26600369363807,0.0
511,-7.91580189975421,-1.0151046932839176,81.6366650944642,0.0
512,-7.953428520040576,-1.021987940656623,81.01712199072509,0.0
513,-7.952602339132153,-1.001187801799978,80.40753953731358,0.0
514,-7.9001335108956265,-0.9445139882795456,79.8080665244453,0.0
515,-7.792835713261405,-0.8496211664139415,79.21883648076557,0.0
516,-7.638317057155512,-0.7205676258349459,78.63996873845402,0.0
517,-7.453277347666521,-0.5671708111419445,78.07156946015274,0.0
518,-7.259839281781398,-0.4033383291927712,77.51373262781173,0.0
519,-7.080940446048922,-0.24476319167790012,76.96654099377945,0.0
520,-6.9359841656020915,-0.10648310153201491,76.4300669946731,0.0
521,-6.837766241194733,-0.0007933026674204202,75.90437362874131,0.0
522,-6.791259351066613,0.0641190917535743,75.38951529758613,0.0
523,-6.794304480624064,0.08464638829035703,74.88553861324358,0.0
524,-6.839776640567443,0.06137883439410832,74.39248317173417,0.0
525,-6.918466293893395,-0.0019083416642682316,73.91038229428925,0.0
526,-7.021811905187846,-0.0995735228573274,73.4392637375378,0.0
527,-7.143751651102891,-0.22539421103949092,72.97915037400283,0.0
528,-7.281293270443245,-0.37355020962731966,72.53006084430955,0.0
529,-7.433827877357275,-0.5391570026093793,72.09201018254944,0.0
530,-7.60160119978965,-0.7183359189171706,71.66501041627733,0.0
531,-7.783985697837931,-0.9079169618741727,71.24907114264413,0.0
532,-7.978205984057636,-1.104931335135035,70.84420008218775,0.0
533,-8.178962749937478,-1.306059564867343,70.45040361181776,0.0
534,-8.379046825108091,-1.5071713661110144,70.06768727854033,0.0
535,-8.570656963127965,-1.7030488907469936,69.69605629547756,0.0
536,-8.746874706364284,-1.8873488030376282,69.33551602173983,0.0
537,-8.90271474547915,-2.0528427809847245,68.98607242771489,0.0
538,-9.035377950109428,-2.1919759483982375,68.6477325473413,0.0
539,-9.143701564803944,-2.297778812701616,68.32050491893878,0.0
540,-9.227177696517508,-2.3651346313340134,68.00440001617419,0.0
541,-9.285148740663132,-2.3923215884948723,67.69943067075019,0.0
542,-9.316789201266747,-2.3826179252666293,67.40561248841527,0.0
543,-9.322222427664611,-2.3456049768499936,67.12296425990782,0.0
544,-9.304652345764426,-2.297679241500356,66.85150836846678,0.0
545,-9.272846408943748,-2.2612537650455082,66.59127119556503,0.0
546,-9.242873021328313,-2.2622469842375903,66.34228352655106,0.0
547,-9.237858386514315,-2.3257486242735372,66.10458095792096,0.0
548,-9.284796411427388,-2.4701929509716885,65.87820430798567,0.0
549,-9.408120033941685,-2.700879210484253,65.66320003274978,0.0
550,-9.620711479550469,-3.0041304633826824,65.45962064887792,0.0
551,-9.914094424452935,-3.343628352868296,65.26752516569493,0.0
552,-10.250446087353149,-3.6603753836065196,65.0869795282464,0.0
553,-10.559474804077606,-3.877253680348567,64.91805707353883,0.0
554,-10.742819359832723,-3.908303128850612,64.76083900218423,0.0
555,-10.687258620463227,-3.6717761204968844,64.61541486779441,0.0
556,-10.28576841074865,-3.1049776018969997,64.4818830866065,0.0
557,-9.462797619200803,-2.178147135128772,64.36035146997506,0.0
558,-8.197872766567246,-0.9044319011594528,64.25093778254026,0.0
559,-6.540731429624785,0.6565270446577203,64.15377032907682,0.0
560,-4.612348438089259,2.4027509794653885,64.06898857324825,0.0
561,-2.5895284458704997,4.201624112722404,63.99674379173788,0.0
562,-0.6753859735520944,5.907314362145293,63.93719976750459,0.0
563,0.9375191137150443,7.380801557365805,63.89053352622158,0.0
564,2.1020659004867945,8.508792436913414,63.85693612030454,0.0
565,2.740562856289546,9.218045331514919,63.836613465325115,0.0
566,2.8522419557145233,9.482664427363291,63.829787234042556,1.0
567,2.5036513582218474,9.323481168141988,63.863097124939976,0.0
568,1.806200817497397,8.800312070650232,63.961486319751394,0.0
569,0.888186355882478,7.999248810728511,64.12292022131736,0.0
570,-0.13092114344093647,7.017886710397352,64.34569810724179,0.0
571,-1.1580790815657305,5.951409440633476,64.62841509008749,0.0
572,-2.133651758853568,4.881805450216772,64.96992891090152,0.0
573,-3.028680380860696,3.87144167020181,65.36933062048477,0.0
574,-3.835841738123839,2.9610826500764693,65.82591834742009,0.0
575,-4.558478566757784,2.171513929564651,66.33917346354305,0.0
576,-5.201578223446567,1.507399625505641,66.9087385430188,0.0
577,-5.767010586434532,0.9619281791663246,67.53439657562909,0.0
578,-6.253379082395989,0.5210978389821339,68.21605094227021,0.0
579,-6.659170214310859,0.16699947329985187,68.95370569414342,0.0
580,-6.986989449890647,-0.12002021489502068,69.74744569920372,0.0
581,-7.246699080677629,-0.36004126457190067,70.59741623221102,0.0
582,-7.456048211984065,-0.5726508516229893,71.50380159001912,0.0
583,-7.63851023467082,-0.776016045857782,72.46680231323367,0.0
584,-7.8190786802957355,-0.985737650065053,73.4866105907476,0.0
585,-8.019390252797825,-1.2135220842627694,74.56338341671261,0.0
586,-8.253615536800348,-1.465915997907861,75.69721306224288,0.0
587,-8.526158337657268,-1.7434511015812069,76.88809441894408,0.0
588,-8.831549589444789,-2.0405228034635265,78.1358887710555,0.0
589,-9.156271491110326,-2.346193547058913,79.44028356104019,0.0
590,-9.481811924532963,-2.645914400655671,80.80074773403425,0.0
591,-9.788123760337802,-2.923949453258805,82.21648228471173,0.0
592,-10.056812929137902,-3.1661141683750085,83.68636569181659,0.0
593,-10.273669985875921,-3.3623342871110915,85.20889401784555,0.0
594,-10.430429585859954,-3.5085138805764102,86.7821155821052,0.0
595,-10.525772374498676,-3.6072745368750923,88.40356029343296,0.0
596,-10.565547559218606,-3.667287417983905,90.07016396364817,0.0
597,-10.562059504712462,-3.701151980450483,91.77818822371438,0.0
598,-10.532153428933809,-3.722054315697257,93.52313704030948,0.0
599,-10.493883007865636,-3.73972496078212,95.29967128775664,0.0
600,-10.461827575829725,-3.7564567965849234,97.1015233722591,0.0
601,-10.4416377366474,-3.7640757713418433,98.92141452970873,0.0
602,-10.42499443955759,-3.7427229229408887,100.75097811446396,0.0
603,-10.38662585522635,-3.6620715849671277,102.580692942862,0.0
604,-10.285055816177847,-3.4851776594578547,104.3998315162225,0.0
605,-10.06815722955772,-3.17460649401624,106.19642867123707,0.0
606,-9.68336399813543,-2.69991083949881,107.95727681960805,0.0
607,-9.090838815932484,-2.04509293730013,109.66795435310148,0.0
608,-8.276510487309453,-1.2145040389562902,111.31289389737968,0.0
609,-7.261257929608949,-0.23579988855220557,112.87549677958059,0.0
610,-6.103039831956118,0.8409203432429793,114.33829921150873,0.0
611,-4.890477726857234,1.9479087687468946,115.68319417825298,0.0
612,-3.728843040300055,3.0077872704152178,116.89171079185782,0.0
613,-2.721750852092795,3.9433881696016178,117.94534991058242,0.0
614,-1.9532434670487355,4.687637535396996,118.82597120742689,0.0
615,-1.4748049414015658,5.191733103904145,119.51622276906674,0.0
616,-1.3002226205309877,5.430292567867683,120.0,1.0
617,-1.408724004318009,5.402839896619575,120.37400131833341,0.0
618,-1.754397910432159,5.131766247777179,120.74471542387275,0.0
619,-2.2784025344604575,4.657550029799692,121.11193910993954,0.0
620,-2.9202921716156593,4.032402250572771,121.47546619774863,0.0
621,-3.6258338280689646,3.31356364053918,121.83508762703416,0.0
622,-4.350383234237171,2.5572612089653015,122.19059155463272,0.0
623,-5.0585489381915565,1.8139474742696124,122.54176346118835,0.0
624,-5.721932867934609,1.1250356873969265,122.8883862661321,0.0
625,-6.316942393327817,0.5210278732799793,123.23024045107323,0.0
626,-6.824100049989901,0.020773137916786033,123.5671041917239,0.0
627,-7.229258078156937,-0.36841110322231985,123.89875349846113,0.0
628,-7.526088905001523,-0.6499285522590754,124.22496236561149,0.0
629,-7.7185561564661525,-0.8364659093688125,124.54550292952374,0.0
630,-7.821985887929767,-0.9479309991045579,124.8601456354729,0.0
631,-7.8618324442749685,-1.0088039817574113,125.16865941341656,0.0
632,-7.870042033414085,-1.045054956849784,125.47081186259972,0.0
633,-7.879736558970284,-1.0809351976928825,125.76636944497879,0.0
634,-7.919482631735961,-1.136075702239484,126.05509768740909,0.0
635,-8.008524692602865,-1.223365968458959,126.33676139251062,0.0
636,-8.154064041970864,-1.3480040766533097,126.61112485809957,0.0
637,-8.351103830667466,-1.5079095135155083,126.87795210504032,0.0
638,-8.58475002185301,-1.6954123397093923,127.13700711334319,0.0
639,-8.83432879015236,-1.8998414540981832,127.38805406629918,0.0
640,-9.078349638753,-2.1104044928407513,127.63085760241081,0.0
641,-9.299234265787028,-2.3186460555416772,127.86518307484337,0.0
642,-9.486815786858239,-2.519827743073007,128.09079681808674,0.0
643,-9.639842061170338,-2.7127958114109694,128.3074664214825,0.0
644,-9.765047861850872,-2.8982546992108666,128.51496100923606,0.0
645,-9.8737735353531,-3.075778044101017,128.71305152649762,0.0
646,-9.97659763555922,-3.2402714422312053,128.9015110310602,0.0
647,-10.076991064798182,-3.3788565483529847,129.08011499018815,0.0
648,-10.165497411250529,-3.46919401764751,129.2486415820535,0.0
649,-10.2162274364604,-3.480061374068468,129.4068720012244,0.0
650,-10.187324573294985,-3.3745646702210608,129.5545907676153,0.0
651,-10.026377857551061,-3.115765266048328,129.6915860382757,0.0
652,-9.680556386843222,-2.673873813367983,129.81764992136365,0.0
653,-9.1097583586238,-2.03365863301658,129.93257879161965,0.0
654,-8.299745966263115,-1.2004798094333053,130.0361736066276,0.0
655,-7.2715962154654425,-0.20348438950291903,130.1282402231236,0.0
656,-6.084246109136234,0.9050140347154232,130.20858971258843,0.0
657,-4.8285227379100135,2.054190709281844,130.27703867533705,0.0
658,-3.6134295513980335,3.1627673966152696,130.33340955229932,0.0
659,-2.5478183825995444,4.149103578776344,130.37753093366754,0.0
660,-1.722028088246837,4.941519103174969,130.40923786357368,0.0
661,-1.1940393999165695,5.487023555870753,130.4283721399472,0.0
662,-0.983197312753625,5.757012441560166,130.43478260869566,1.0
663,-1.0721883582439002,5.7491704085274415,130.43098645162465,0.0
664,-1.4156267436749614,5.485612511843062,130.4198177458114,0.0
665,-1.9520857397779015,5.007995454187203,130.40160784647838,0.0
666,-2.6160821677546955,4.3707841903710385,130.37669009494797,0.0
667,-3.3472781612377105,3.6339909016210954,130.34539946889947,0.0
668,-4.095566775180506,2.8565336693579644,130.30807224847933,0.0
669,-4.822207415553061,2.0909882987852533,130.26504569872404,0.0
670,-5.498302990909449,1.3800633972802325,130.21665776868795,0.0
671,-6.1023832921365075,0.7547435221198676,130.16324680760104,0.0
672,-6.6186356625791065,0.23380217928637792,130.10515129831964,0.0
673,-7.036588996263255,-0.17569076351021995,130.0427096082736,0.0
674,-7.352148838355159,-0.47718697306049995,129.97625975805735,0.0
675,-7.569163203203369,-0.683001952660898,129.9061392077606,0.0
676,-7.700419867078726,-0.8122693713679278,129.8326846610863,0.0
677,-7.767184856800922,-0.8885464780347816,129.75623188725788,0.0
678,-7.7969418047912535,-0.9371419505765619,129.6771155606793,0.0
679,-7.8196287944565634,-0.9823315019788286,129.5956691182727,0.0
680,-7.863153139869907,-1.0447370194557675,129.51222463438782,0.0
681,-7.949160975500102,-1.1392188439664024,129.42711271314747,0.0
682,-8.089943986043894,-1.2736254738691493,129.3406623980692,0.0
683,-8.287069303830998,-1.4486419948912763,129.2532010987823,0.0
684,-8.531939062415145,-1.65878893828967,129.16505453464228,0.0
685,-8.808120155937205,-1.8943850132548348,129.0765466950318,0.0
686,-9.094985529299178,-2.1440560855208797,128.98799981612723,0.0
687,-9.371989117587079,-2.3972096712490205,128.89973437390395,0.0
688,-9.622752653163186,-2.645850632393701,128.81206909315136,0.0
689,-9.838081538752833,-2.8852188837689083,128.7253209722684,0.0
690,-10.017090026686583,-3.112980714806444,128.63980532361603,0.0
691,-10.16586808822033,-3.3270621256023922,128.55583582920886,0.0
692,-10.293605920418184,-3.5226022161337918,128.4737246115397,0.0
693,-10.406769057767592,-3.688832435423171,128.39378231934404,0.0
694,-10.502642630698503,-3.80685735928498,128.31631822812753,0.0
695,-10.56411228399512,-3.8492526026751763,128.2416403552997,0.0
696,-10.557683020892176,-3.7820819949087277,128.1700555897788,0.0
697,-10.436282436571547,-3.5694103823437113,128.10186983595779,0.0
698,-10.147318298802471,-3.179756710479598,128.03738817194977,0.0
699,-9.644932713400575,-2.5933471325171897,127.97691502206126,0.0
700,-8.903814575919618,-1.808652477173097,127.92075434347534,0.0
701,-7.9308583891603694,-0.8466550310212337,127.86920982716232,0.0
702,-6.770923975581662,0.24836567255610387,127.82258511307579,0.0
703,-5.504203352452869,1.4120637691926148,127.78118401973155,0.0
704,-4.234993018717583,2.5669570649242544,127.74531078831419,0.0
705,-3.0742707392349753,3.631917659809548,127.71527034150117,0.0
706,-2.12043255779366,4.532508756331459,127.6913685572473,0.0
707,-1.4431043683662976,5.210272806020963,127.67391255782533,0.0
708,-1.0739016078471326,5.629334630590442,127.66321101447637,0.0
709,-1.0058047655026188,5.779303892725407,127.65957446808511,1.0
710,-1.2002905753645545,5.674272576068709,127.65957446808511,0.0
711,-1.5993736591142282,5.348491690526705,127.65957446808511,0.0
712,-2.138828583087861,4.849886020918589,127.65957446808511,0.0
713,-2.759192148904918,4.232809903915214,127.65957446808511,0.0
714,-3.412410338758209,3.5513449134410884,127.65957446808511,0.0
715,-4.0636711768064515,2.8540701025673987,127.65957446808511,0.0
716,-4.689474653880734,2.180735316764425,127.65957446808511,0.0
717,-5.273880002439712,1.5607887133250502,127.65957446808511,0.0
718,-5.804947785712066,1.0133690197635106,127.65957446808511,0.0
719,-6.2727724693632325,0.5482277695073428,127.65957446808511,0.0
720,-6.669521526925273,0.1670858636072332,127.65957446808511,0.0
721,-6.990971292041537,-0.13491049119598808,127.65957446808511,0.0
722,-7.238476312728738,-0.36777299333894575,127.65957446808511,0.0
723,-7.4202533559221475,-0.545277877153906,127.65957446808511,0.0
724,-7.551227615737525,-0.6835149279326251,127.65957446808511,0.0
725,-7.651268574409556,-0.7993277561314008,127.65957446808511,0.0
726,-7.7421983514899555,-0.9086899266467134,127.65957446808511,0.0
727,-7.844309723670467,-1.0251730347900763,127.65957446808511,0.0
728,-7.973215965269645,-1.15873834697605,127.65957446808511,0.0
729,-8.13770534154217,-1.3150863583988563,127.65957446808511,0.0
730,-8.338986145254221,-1.4957168049984537,127.65957446808511,0.0
731,-8.57138794167535,-1.6987007678821107,127.65957446808511,0.0
732,-8.824302372596879,-1.9199842087822425,127.65957446808511,0.0
733,-9.084929285502266,-2.1548785190850306,127.65957446808511,0.0
734,-9.341242011512227,-2.399298340019588,127.65957446808511,0.0
735,-9.584503985859406,-2.6503175537875103,127.65957446808511,0.0
736,-9.81068144368884,-2.905745889647726,127.65957446808511,0.0
737,-10.020236419388633,-3.162666954941875,127.65957446808511,0.0
738,-10.216068756843645,-3.415179630115527,127.65957446808511,0.0
739,-10.39979207252778,-3.6518803231538874,127.65957446808511,0.0
740,-10.567027555867769,-3.8538336082587517,127.65957446808511,0.0
741,-10.702890862439139,-3.993830079231548,127.65957446808511,0.0
742,-10.77918934238826,-4.037577289681597,127.65957446808511,0.0
743,-10.754855126212046,-3.9471129026287213,127.65957446808511,0.0
744,-10.580648001014456,-3.6862248386336067,127.65957446808511,0.0
745,-10.208130955045595,-3.2271189108585814,127.65957446808511,0.0
746,-9.601535902971431,-2.557128370339077,127.65957446808511,0.0
747,-8.749817563420809,-1.6840459930629006,127.65957446808511,0.0
748,-7.6754761093338875,-0.6387673131533207,127.65957446808511,0.0
749,-6.437046888045894,0.5256252562689545,127.65957446808511,0.0
750,-5.123606909160065,1.738514005984682,127.65957446808511,0.0
751,-3.841874811835758,2.919522616947796,127.65957446808511,0.0
752,-2.6987471943249335,3.9881236124867794,127.65957446808511,0.0
753,-1.7835858059465441,4.8733806642900275,127.65957446808511,0.0
754,-1.1546779024757794,5.5221166695868815,127.65957446808511,0.0
755,-0.8329853787509006,5.904174019293078,127.65957446808511,0.0
756,-0.8040607100348315,6.014091317778648,127.65957446808511,1.0
757,-1.0266432078218368,5.869281099516704,127.65608701557494,0.0
758,-1.4447581194664294,5.505457932437221,127.64582224014234,0.0
759,-1.9996275907737633,4.970479001176616,127.62907799208551,0.0
760,-2.638413485412434,4.317847437562161,127.60615384615386,0.0
761,-3.3183588155191366,3.600918075912858,127.57735080579886,0.0
762,-4.006639804127418,2.868441948367103,127.54297102050985,0.0
763,-4.677564794013322,2.1616346770403263,127.50331751660296,0.0
764,-5.309280058717339,1.5125899444264248,127.45869394177812,0.0
765,-5.881819389221632,0.9436673496035689,127.40940432370782,0.0
766,-6.377406781803749,0.467479850927453,127.35575284287202,0.0
767,-6.782795770871776,0.08724147447131647,127.29804361980791,0.0
768,-7.092523933020348,-0.20257576368129748,127.23658051689861,0.0
769,-7.311572702447644,-0.4151767190289568,127.17166695478487,0.0
770,-7.456134826535846,-0.5698228674229243,127.10360574344516,0.0
771,-7.551865410188904,-0.6895827662331211,127.03269892795485,0.0
772,-7.629839416912535,-0.7985440339165275,126.95924764890283,0.0
773,-7.721148062847899,-0.9187736533846096,126.88355201741467,0.0
774,-7.851424605076664,-1.0674690246524168,126.80591100470569,0.0
775,-8.036539438578501,-1.2547991517532184,126.72662234606358,0.0
776,-8.280331744725524,-1.4828652578339905,126.64598245914055,0.0
777,-8.57471508987282,-1.746020925738899,126.56428637641751,0.0
778,-8.901973197415911,-2.0325238545402775,126.48182769168835,0.0
779,-9.238662284345478,-2.3272055241522343,126.39889852040112,0.0
780,-9.560301994372026,-2.614608039312074,126.31578947368422,0.0
781,-9.845960342971706,-2.881906457968126,126.23278964587963,0.0
782,-10.081889202657512,-3.1209462030481343,126.15018661540195,0.0
783,-10.263517999613088,-3.328886533388031,126.06826645874158,0.0
784,-10.395350315931774,-3.5072295521800076,125.98731377743215,0.0
785,-10.488627846777417,-3.6593786476705836,125.90761173780632,0.0
786,-10.557022343161448,-3.7872384594766393,125.82944212337185,0.0
787,-10.611058497613715,-3.887659245534041,125.75308539964743,0.0
788,-10.652388964041446,-3.9496671137016715,125.6788207913111,0.0
789,-10.669329155378806,-3.953356807458874,125.60692637152584,0.0
790,-10.635093015331785,-3.8710436451408246,125.5376791633243,0.0
791,-10.509852012202304,-3.6708128776860787,125.471355252952,0.0
792,-10.247026825775022,-3.3220539854142133,125.40822991508817,0.0
793,-9.803173081887808,-2.8020457854204226,125.34857774988696,0.0
794,-9.149640933411792,-2.102297219751616,125.29267283180414,0.0
795,-8.283228675477833,-1.2332562392801778,125.24078887020333,0.0
796,-7.232741690999955,-0.2262262573877667,125.19319938176197,0.0
797,-6.0590254490079944,0.8681518821670375,125.15017787472988,0.0
798,-4.847651698960868,1.9847933136527889,125.11199804512503,0.0
799,-3.695558342625867,3.0516611200741655,125.07893398498717,0.0
800,-2.6948290320012678,3.998525688001214,125.05126040284647,0.0
801,-1.9177164189305675,4.765411003902207,125.02925285660504,0.0
802,-1.406593018072415,5.309263888260936,125.01318799907156,0.0
803,-1.1709229601237252,5.607824721088638,125.00334383643346,0.0
804,-1.1911997066293611,5.660319397230782,125.0,1.0
805,-1.427858298548707,5.485256505510559,125.00159083672062,0.0
806,-1.8320547795037014,5.116131295840104,125.00632776646167,0.0
807,-2.3551682322610255,4.5960946648956735,125.01415776277102,0.0
808,-2.9548082242115825,3.972612021343687,125.02502823693862,0.0
809,-3.5966086758162046,3.2928703454044848,125.03888701204671,0.0
810,-4.252624274058291,2.6003087326119543,125.05568229760922,0.0
811,-4.8982015693475764,1.9322819521077315,125.07536266478189,0.0
812,-5.509440586354985,1.3186246357336655,125.09787702212569,0.0
813,-6.062768444857146,0.7808140844954065,125.12317459190649,0.0
814,-6.537009782018223,0.3315140703693269,125.15120488691596,0.0
815,-6.9171494790318615,-0.02554979285976,125.18191768779833,0.0
816,-7.198211402964236,-0.2952718305030322,125.21526302086941,0.0
817,-7.387581617821037,-0.49021826824172,125.25119113641459,0.0
818,-7.504654986256153,-0.6289090504410431,125.28965248745345,0.0
819,-7.577612960661413,-0.7333455091062792,125.33059770895939,0.0
820,-7.638081516179033,-0.8260115528043921,125.37397759752356,0.0
821,-7.715053615751618,-0.9267687731275343,125.4197430914529,0.0
822,-7.829618255108485,-1.0501715021395754,125.46784525129267,0.0
823,-7.99172109951215,-1.2037059730706132,125.5182352407652,0.0
824,-8.199540952151345,-1.387306272878409,125.57086430811614,0.0
825,-8.441336968400075,-1.5942529096255171,125.62568376786153,0.0
826,-8.699039474094189,-1.813275673084687,125.68264498292797,0.0
827,-8.95257644118756,-2.0314259916646846,125.74169934718067,0.0
828,-9.183970358758264,-2.2371108922009753,125.80279826833285,0.0
829,-9.380505509664955,-2.42262663883611,125.86589315123221,0.0
830,-9.53659314717837,-2.5856067309753383,125.93093538151936,0.0
831,-9.654215098818618,-2.7289949473429838,125.99787630965476,0.0
832,-9.741951220726278,-2.859439562682737,126.06666723531052,0.0
833,-9.81263394096297,-2.984335423110216,126.13725939212434,0.0
834,-9.879727312750177,-3.108061507394211,126.20960393281304,0.0
835,-9.952705372660667,-3.228212229500738,126.28365191464407,0.0
836,-10.032049022194583,-3.3327414535093625,126.35935428526338,0.0
837,-10.1049219570774,-3.398881552998323,126.43666186887891,0.0
838,-10.142933586400494,-3.3944448639622404,126.51552535279937,0.0
839,-10.103399501556515,-3.2816808557999377,126.5958952743279,0.0
840,-9.934974977536816,-3.0233163561684964,126.67772200801161,0.0
841,-9.58745497758426,-2.5898582707833544,126.76095575324761,0.0
842,-9.02414589055629,-1.9668213942819528,126.84554652224688,0.0
843,-8.233972326627061,-1.1603809193396577,126.93144412835763,0.0
844,-7.2399068973763585,-0.2001150479201721,127.01859817475057,0.0
845,-6.10077975861988,0.8620053559454501,127.10695804346832,0.0
846,-4.9050731547761055,1.9564971973085492,127.19647288484211,0.0
847,-3.7575354033279136,3.004435624168686,127.28709160727874,0.0
848,-2.7616210840994815,3.9273597835400738,127.37876286742184,0.0
849,-2.002081722360879,4.657276291629434,127.4714350606911,0.0
850,-1.5319798165510194,5.14502670488527,127.56505631220413,0.0
851,-1.3669843735198648,5.365667046532483,127.65957446808511,1.0
852,-1.4875594102971166,5.3201582939941074,127.76365920760897,0.0
853,-1.8474081325497147,5.033412494003947,127.88556262885913,0.0
854,-2.3850636068924147,4.549394230704774,128.0246129211585,0.0
855,-3.0352385424083432,3.9243987814543115,128.18014598814264,0.0
856,-3.7373845137724624,3.219753184958727,128.35150361157386,0.0
857,-4.440386065180212,2.4950389982342474,128.53803169388377,0.0
858,-5.103798090623813,1.802607617135402,128.73907857447978,0.0
859,-5.6970104933779036,1.1837715570200533,128.95399341563638,0.0
860,-6.197955479136757,0.6667162347031735,129.1821246545329,0.0
861,-6.592528285062965,0.2659516330404581,129.4228185187012,0.0
862,-6.875066017778108,-0.016976942310275134,129.6754176028131,0.0
863,-7.049406337028662,-0.1918078227298361,129.9392595053771,0.0
864,-7.129557531582864,-0.27716996439640074,130.2136755245248,0.0
865,-7.139016919038879,-0.2977152148494191,130.49798941265567,0.0
866,-7.108231038342099,-0.2810242857114882,130.7915161902782,0.0
867,-7.070387375199553,-0.2545697908661023,131.09356101993254,0.0
868,-7.056381031760555,-0.24304654267020354,131.4034181416104,0.0
869,-7.09016620702904,-0.2663602340290103,131.72036987160013,0.0
870,-7.18565682536121,-0.33847630777641846,132.04368566717818,0.0
871,-7.3459098510415775,-0.467173987039484,132.37262126004347,0.0
872,-7.5646624946512295,-0.6545589235176501,132.7064178618447,0.0
873,-7.829616334808509,-0.8980157645705662,133.04430144558282,0.0
874,-8.12637068949392,-1.191186978524844,133.3854821070783,0.0
875,-8.441740866064542,-1.5245879359222656,133.72915351106977,0.0
876,-8.765398615394451,-1.8856192853936866,134.07449242685982,0.0
877,-9.08929166371673,-2.2579852849561464,134.42065835873433,0.0
878,-9.40500420130012,-2.6208056639979724,134.76679327665167,0.0
879,-9.699926488567106,-2.9479352375795043,135.11202145292577,0.0
880,-9.95361751031392,-3.2081013169279933,135.45544941079973,0.0
881,-10.13591473705668,-3.3663844567885683,135.79616599092518,0.0
882,-10.20808210546448,-3.387300713914663,136.13324254181796,0.0
883,-10.127592389059501,-3.2393438048056016,136.46573324034526,0.0
884,-9.856124997100137,-2.9004079539854795,136.7926755482106,0.0
885,-9.369263840063615,-2.363152948928759,137.11309081022907,0.0
886,-8.665543225852371,-1.6391983747763774,137.42598499992664,0.0
887,-7.772257451928221,-0.7611095733025722,137.7303496176406,0.0
888,-6.746017066007119,0.21853379450070165,138.02516274584283,0.0
889,-5.667317165582358,1.2311790994646143,138.30939026584866,0.0
890,-4.629997845835746,2.1990557274704914,138.58198723940197,0.0
891,-3.7278726220582623,3.043722476524467,138.84189945784604,0.0
892,-3.0414863016838094,3.695143281059229,139.0880651606922,0.0
893,-2.627724152457176,4.099935001742454,139.31941692438406,0.0
894,-2.513978629374364,4.227593238949112,139.53488372093022,1.0
895,-2.6972195742005156,4.073862827174677,139.74377440660945,0.0
896,-3.147119255119872,3.6608859167985957,139.95586972706099,0.0
897,-3.811731576533714,3.0342329306005174,140.17080192003087,0.0
898,-4.624228875552791,2.257321306492069,140.3881988357982,0.0
899,-5.509700813353347,1.4040100955146853,140.60768377554493,0.0
900,-6.391679147503747,0.5503159086756908,140.8288753485017,0.0
901,-7.1985051749049065,-0.23376005051197213,141.0513873484962,0.0
902,-7.869674651547011,-0.891355251575048,141.27482865056632,0.0
903,-8.361890795261447,-1.384016035434298,141.49880312832968,0.0
904,-8.653980523422971,-1.694527824228858,141.72290959282762,0.0
905,-8.749449625270124,-1.827013066462025,141.94674175358364,0.0
906,-8.675564885309349,-1.8043613624071406,142.169888202632,0.0
907,-8.478520914245983,-1.6634358879760223,142.39193242228467,0.0
908,-8.215269062000248,-1.4488408004716835,142.61245281740966,0.0
909,-7.943571811574593,-1.2062630040524547,142.8310227729936,0.0
910,-7.7124204361471005,-0.9764560461338712,143.04721073775573,0.0
911,-7.554906814973148,-0.7907841585637855,143.26058033456613,0.0
912,-7.484996317379923,-0.6689081296870265,143.47069049840178,0.0
913,-7.498624566685262,-0.6187381020932545,143.6770956425456,0.0
914,-7.578447573741845,-0.6383028962139468,143.87934585369857,0.0
915,-7.700714447168471,-0.7188024937971967,144.07698711663215,0.0
916,-7.842318866349129,-0.8479123446050112,144.2695615689554,0.0
917,-7.98619660239622,-1.0124439345389273,144.4566077865119,0.0
918,-8.12380026904737,-1.1997269839862994,144.63766109985235,0.0
919,-8.254215905819718,-1.3974998172772821,144.81225394214943,0.0
920,-8.380365636352703,-1.592569780067848,144.97991622883671,0.0
921,-8.503474283710641,-1.7689131660044286,145.1401757691539,0.0
922,-8.617438340165839,-1.906115546828789,145.29255870967842,0.0
923,-8.704853205552054,-1.9790404592267348,145.43659000980588,0.0
924,-8.736195489939373,-1.9593470840420335,145.57179394902036,0.0
925,-8.673022771262428,-1.8190092883530216,145.69769466566126,0.0
926,-8.475106290889345,-1.5354266058663781,145.81381672675522,0.0
927,-8.110310718386957,-1.0972007335619403,145.91968572832965,0.0
928,-7.565041871030121,-0.5093156162867926,146.01482892547133,0.0
929,-6.852522955472405,0.20359467769316753,146.098775891228,0.0
930,-6.016316502563665,0.9969431009275311,146.17105920328353,0.0
931,-5.127485049032385,1.8093677808424435,146.23121515716198,0.0
932,-4.27538762105789,2.569210660660776,146.27878450453682,0.0
933,-3.553861127649036,3.203417936647217,146.31331321504118,0.0
934,-3.045831291432397,3.64744523137018,146.33435325978894,0.0
935,-2.809772490290566,3.8544947838018593,146.34146341463415,1.0
936,-2.870787509812426,3.8024927399466537,146.34146341463415,0.0
937,-3.2177118654991457,3.4976062639106686,146.34146341463415,0.0
938,-3.806116499988526,2.9737097264061916,146.34146341463415,0.0
939,-4.565916510569703,2.2879050172216577,146.34146341463415,0.0
940,-5.4117630947774495,1.5128471349073032,146.34146341463415,0.0
941,-6.2544408165249825,0.7271117481367889,146.34146341463415,0.0
942,-7.01183174580771,0.005097842237633987,146.34146341463415,0.0
943,-7.618348573809946,-0.5920363266307105,146.34146341463415,0.0
944,-8.031944580500191,-1.023133365533617,146.34146341463415,0.0
945,-8.237939568603723,-1.2706332258854385,146.34146341463415,0.0
946,-8.24912089746681,-1.3406700537004834,146.34146341463415,0.0
947,-8.102008491631642,-1.2598877817577574,146.34146341463415,0.0
948,-7.849791194945192,-1.069692239435921,146.34146341463415,0.0
949,-7.553088633285877,-0.8190233800118337,146.34146341463415,0.0
950,-7.270156499196543,-0.5569035170705194,146.34146341463415,0.0
951,-7.048278411304772,-0.3259666269880392,146.34146341463415,0.0
952,-6.917833823701906,-0.15790898565722378,146.34146341463415,0.0
953,-6.889967160652671,-0.07137250118844893,146.34146341463415,0.0
954,-6.958041648926559,-0.07226306439076904,146.34146341463415,0.0
955,-7.102295865403701,-0.1560204964460618,146.34146341463415,0.0
956,-7.29647671466264,-0.31099661920086913,146.34146341463415,0.0
957,-7.514819120194681,-0.5219427108095698,146.34146341463415,0.0
958,-7.737665144804323,-0.772693756469808,146.34146341463415,0.0
959,-7.954306409944706,-1.0474471115423516,146.34146341463415,0.0
960,-8.162282008738194,-1.3304959425387437,146.34146341463415,0.0
961,-8.363282485786662,-1.6047800476010339,146.34146341463415,0.0
962,-8.556817491581635,-1.850028067021614,146.34146341463415,0.0
963,-8.733634898636542,-2.0414696422692113,146.34146341463415,0.0
964,-8.871242966421603,-2.1500236707412013,146.34146341463415,0.0
965,-8.933573653658918,-2.144518408768864,146.34146341463415,0.0
966,-8.875807842346449,-1.995945666418585,146.34146341463415,0.0
967,-8.653876225769517,-1.6831316951336879,146.34146341463415,0.0
968,-8.236577126715078,-1.1986876950598462,146.34146341463415,0.0
969,-7.617128892960841,-0.553833851826655,146.34146341463415,0.0
970,-6.820730872076318,0.21923597829302843,146.34146341463415,0.0
971,-5.9055227062706805,1.0683632898508273,146.34146341463415,0.0
972,-4.956033593260937,1.9260484068239854,146.34146341463415,0.0
973,-4.070294535957997,2.7171614722979327,146.34146341463415,0.0
974,-3.3435665825784393,3.3685398974849194,146.34146341463415,0.0
975,-2.8525178018911745,3.8188529211929647,146.34146341463415,0.0
976,-2.6433879973586443,4.02704430171225,146.34146341463415,1.0
977,-2.726374894266852,3.9779447127644163,146.28456060635193,0.0
978,-3.0766760601490524,3.684192200343372,146.11662563364078,0.0
979,-3.6409731697275127,3.184272778094627,145.8421703559864,0.0
980,-4.347159349233177,2.5371419335506356,145.466123903719,0.0
981,-5.114974036019805,1.8143873498096483,144.99376698190014,0.0
982,-5.865757116452088,1.0911731519998684,144.43066593943308,0.0
983,-6.530371368736847,0.43725564368889835,143.78260783727262,0.0
984,-7.055059320191883,-0.09078362642625115,143.05553761084187,0.0
985,-7.40535700778386,-0.4552176035623873,142.25549826443165,0.0
986,-7.568185353040463,-0.6402390724810513,141.38857486762402,0.0
987,-7.552067511385453,-0.6522401907955666,140.46084295317962,0.0
988,-7.38531134380136,-0.5174665753065945,139.4783217489383,0.0
989,-7.11209483895777,-0.27749039559680044,138.44693251854935,0.0
990,-6.786693847822854,0.016833251740101862,137.37246214148914,0.0
991,-6.466473026934016,0.3121211869586069,136.2605319348084,0.0
992,-6.204567745937724,0.5590729952060782,135.1165716091955,0.0
993,-6.043308043418628,0.7181329023017553,133.9457981610122,0.0
994,-6.009343126197662,0.7635468606823337,132.7531994298348,0.0
995,-6.111148329900302,0.6853924984880911,131.5435219968935,0.0
996,-6.339203609419972,0.4894480998625174,130.32126306228358,0.0
997,-6.668701622658833,0.1950693222564643,129.09066591619722,0.0
998,-7.064246124769874,-0.16848738859471302,127.85571860975591,0.0
999,-7.4856961810923055,-0.5666607504442116,126.62015543227808,0.0
1000,-7.894145638541568,-0.9643773178444661,125.3874608119877,0.0
1001,-8.25703826572317,-1.3303480318061731,124.16087527433692,0.0
1002,-8.551625615465294,-1.640314588138724,122.94340311452002,0.0
1003,-8.766352692374118,-1.8789097107324273,121.7378214668204,0.0
1004,-8.90022221779373,-2.0400494177861797,120.54669048179431,0.0
1005,-8.960614534128386,-2.1260173561883255,119.3723643517972,0.0
1006,-8.96030533102852,-2.145589382637298,118.21700295506486,0.0
1007,-8.91446282102417,-2.111653399408522,117.08258391771345,0.0
1008,-8.838233712725726,-2.038796380162667,115.97091492106037,0.0
1009,-8.745221770556299,-1.9412668102447068,114.88364610816788,0.0
1010,-8.646835404133292,-1.8315982996592832,113.82228246820463,0.0
1011,-8.552242699015508,-1.720025948383838,112.78819609993474,0.0
1012,-8.468599493020195,-1.6146665478410756,111.78263827631517,0.0
1013,-8.401315220558029,-1.5222868436355874,110.80675125080944,0.0
1014,-8.35431609345452,-1.4493655088780704,109.8615797626743,0.0
1015,-8.330426412297038,-1.4030765748013025,108.94808221324875,0.0
1016,-8.332002150048748,-1.3917983648029701,108.06714149831208,0.0
1017,-8.36178339877595,-1.4247978365757379,107.21957549303286,0.0
1018,-8.423652938755824,-1.5108688133688077,106.40614719608445,0.0
1019,-8.522736502313137,-1.6559163633869907,105.62757454832483,0.0
1020,-8.664209026711028,-1.8597603603120239,104.88453994922149,0.0
1021,-8.850392493403728,-2.112733370982496,104.17769950112147,0.0
1022,-9.076271575367613,-2.392899796783544,103.5076920177109,0.0
1023,-9.324317422149926,-2.6648395794621904,102.87514783874987,0.0
1024,-9.560266510350676,-2.880845355207549,102.28069749859203,0.0
1025,-9.731927356620657,-2.985039119089952,101.72498030127306,0.0
1026,-9.772876455265905,-2.920347833963259,101.20865286026441,0.0
1027,-9.611907246029523,-2.637584057764538,100.73239766651102,0.0
1028,-9.187433277267637,-2.1052156846229275,100.29693175430263,0.0
1029,-8.464140736792258,-1.3179626523195387,99.90301554106082,0.0
1030,-7.447681820296906,-0.3022871237150694,99.55146192448208,0.0
1031,-6.192778577850058,0.8827724501356375,99.24314572889735,0.0
1032,-4.8012026977710764,2.1501697962106117,98.97901360246834,0.0
1033,-3.408628215500668,3.3945035126091145,98.76009447824671,0.0
1034,-2.1626112917792004,4.505355662642284,98.58751072554682,0.0
1035,-1.1967863888049508,5.382091852789456,98.46249013394838,0.0
1036,-0.6076679107774918,5.947540323154118,98.38637889107537,0.0
1037,-0.4396616152994887,6.1581717214011515,98.36065573770492,1.0
1038,-0.681322582815748,6.009113178875122,98.41730645793515,0.0
1039,-1.2725635074813757,5.533365057389972,98.5838903310661,0.0
1040,-2.1196659037053185,4.795688520410334,98.85585427722506,0.0
1041,-3.1134928981857395,3.8825431910120196,99.22922814112748,0.0
1042,-4.14648808244012,2.8899960997139837,99.70053145360022,0.0
1043,-5.125460448384426,1.9116283866432153,100.26669020219622,0.0
1044,-5.979040580387892,1.028181460335517,100.92496121283918,0.0
1045,-6.6603130830438415,0.3001382614771099,101.67286213362883,0.0
1046,-7.1460388639074415,-0.23621088582031713,102.50810531568403,0.0
1047,-7.43400406996788,-0.569269332185974,103.42853412589375,0.0
1048,-7.539596587455264,-0.7097122714279339,104.43206041980817,0.0
1049,-7.49208618400185,-0.6859298374706474,105.51660206360657,0.0
1050,-7.330611214567939,-0.5382293737389688,106.68001953398598,0.0
1051,-7.099736749737782,-0.31266434498103424,107.9200507544664,0.0
1052,-6.84463081632934,-0.05524202191765126,109.23424345580096,0.0
1053,-6.606240815767797,0.1929051347943136,110.61988448639622,0.0
1054,-6.417124871506033,0.3989944443130571,112.07392565534735,0.0
1055,-6.298640604238664,0.54053213706821,113.59290587544682,0.0
1056,-6.259972741231517,0.6057419394746588,115.17286959602349,0.0
1057,-6.299070910094024,0.5926987374149915,116.80928178530985,0.0
1058,-6.405125705066999,0.5075341855352794,118.49694004832996,0.0
1059,-6.561891361655442,0.36217006223071285,120.22988485695869,0.0
1060,-6.751059061027262,0.17204420570710882,122.00130932954835,0.0
1061,-6.954996078994726,-0.04578201376385305,123.80347053048924,0.0
1062,-7.158420147176354,-0.27389478913816745,125.62760486207503,0.0
1063,-7.348878441672892,-0.49513150670428285,127.46385078142605,0.0
1064,-7.516171696567998,-0.6926690084662863,129.30118277347515,0.0
1065,-7.6510743872985465,-0.8499060231841645,131.12736121429938,0.0
1066,-7.7438520725428,-0.9505260670809903,132.9289034199637,0.0
1067,-7.783167796510993,-0.9790975246106701,134.69108173101193,0.0
1068,-7.755974512163591,-0.9224278655223007,136.39795485198206,0.0
1069,-7.648855065645655,-0.7716612115174581,138.03243875466853,0.0
1070,-7.450948239901827,-0.5248399044291875,139.5764231596563,0.0
1071,-7.158104881834827,-0.18940629953732996,141.01093882828812,0.0
1072,-6.777367682013979,0.21602986708559893,142.31637953374786,0.0
1073,-6.330456725114918,0.6613339661422685,143.47278057053126,0.0
1074,-5.854868674269841,1.1063985710727717,144.46015298887957,0.0
1075,-5.401567568354494,1.5047686745634743,145.25886945473567,0.0
1076,-5.029014842295331,1.8090669718590422,145.85009387076624,0.0
1077,-4.79426096900976,1.9775037113808005,146.21624287837307,0.0
1078,-4.7427199433436,1.9804148347813386,146.34146341463415,1.0
1079,-4.898796980763543,1.8056265732734023,146.31564376115227,0.0
1080,-5.25956093979412,1.4615481191220243,146.23939876652307,0.0
1081,-5.793114441161067,0.9772434694000189,146.114622002629,0.0
1082,-6.442334864365634,0.39926640975830463,145.9432938491112,0.0
1083,-7.13347083817398,-0.2143507034689177,145.7274690439461,0.0
1084,-7.787970337496024,-0.8020142556383163,145.46926442940924,0.0
1085,-8.335167387915408,-1.3070813219752546,145.17084700052976,0.0
1086,-8.723266394429157,-1.685542603125548,144.83442235146003,0.0
1087,-8.92649738820561,-1.9116213792816987,144.46222360297548,0.0
1088,-8.947255800635014,-1.9804410869962719,144.05650088186874,0.0
1089,-8.813214019298233,-1.9074668174620721,143.61951141058526,0.0
1090,-8.570461389056968,-1.7250027951308093,143.15351025329707,0.0
1091,-8.2744200205535,-1.476510448092386,142.66074175293974,0.0
1092,-7.980478450703486,-1.20981185691907,142.14343168271148,0.0
1093,-7.736032943080294,-0.9703207045275973,141.60378012528875,0.0
1094,-7.575078500904087,-0.7953088205262995,141.04395508365562,0.0
1095,-7.51582280135255,-0.7099256262625231,140.4660868190391,0.0
1096,-7.5611555667686625,-0.7253198480806945,139.87226290403223,0.0
1097,-7.701305326351101,-0.8388505082941378,139.26452397258547,0.0
1098,-7.917729373884202,-1.0360834669860735,138.64486014314204,0.0
1099,-8.187243284785335,-1.2940869158952433,138.01520808675787,0.0
1100,-8.485588187273779,-1.5854668999358368,137.37744870853606,0.0
1101,-8.789994153974158,-1.8825970907679346,136.733405408062,0.0
1102,-9.080722967944949,-2.1615560791104445,136.08484288268073,0.0
1103,-9.341932119661468,-2.405352926471294,135.43346643634482,0.0
1104,-9.562363590548362,-2.6060771842123645,134.78092175629664,0.0
1105,-9.736244110523717,-2.765657859513532,134.1287951199635,0.0
1106,-9.864408649551077,-2.8949851289098043,133.47861399505769,0.0
1107,-9.955167851045873,-3.0112783182416427,132.83184799691227,0.0
1108,-10.024054073928196,-3.1338044908087466,132.18991016848352,0.0
1109,-10.091512350590039,-3.278365125357814,131.5541585501394,0.0
1110,-10.177971625247116,-3.4513314551323946,130.92589800827824,0.0
1111,-10.296519362787507,-3.644335806893308,130.30638229392602,0.0
1112,-10.444442838117162,-3.8309034427482835,129.69681630469657,0.0
1113,-10.595892432666641,-3.96622883434734,129.09835852582836,0.0
1114,-10.698476607311624,-3.990898615557307,128.5121236283959,0.0
1115,-10.676343872255316,-3.8386568752514396,127.93918520520607,0.0
1116,-10.441054571226385,-3.4474093665773466,127.38057862730676,0.0
1117,-9.909437659815813,-2.771768494734407,126.83730400643536,0.0
1118,-9.025187428302255,-1.7947895220616632,126.31032925110983,0.0
1119,-7.778977616506477,-0.536356168991781,125.80059320640095,0.0
1120,-6.2211798907782745,0.9439364795400493,125.30900886972114,0.0
1121,-4.46240660759628,2.550604287579743,124.83646667721901,0.0
1122,-2.660011484056163,4.162675186170938,124.38383785758381,0.0
1123,-0.9926258216874511,5.6491377544167145,123.95197785224795,0.0
1124,0.3715095586344711,6.8867732263442765,123.54172980313452,0.0
1125,1.3045938007707067,7.777140599946568,123.15392811124825,0.0
1126,1.7402601079079323,8.259636742005076,122.78940207156276,0.0
1127,1.6808095336778337,8.318386897058303,122.44897959183673,1.0
1128,1.1900465603427448,7.982019831506526,122.11891004804271,0.0
1129,0.3750073001399989,7.3168162761609326,121.78522623826771,0.0
1130,-0.6376410912213659,6.414943303663202,121.44842554537259,0.0
1131,-1.7243296870491747,5.380235153220125,121.10899600225495,0.0
1132,-2.781683634088514,4.314133068734835,120.7674161318496,0.0
1133,-3.7357049722525306,3.3039955318197975,120.4241548284626,0.0
1134,-4.543298157338336,2.4152083975352134,120.07967127857171,0.0
1135,-5.188209880368438,1.6875995099706949,119.73441491921037,0.0
1136,-5.674199851653827,1.1358240143546545,119.38882543205305,0.0
1137,-6.01799831925625,0.7527981827443818,119.04333277133051,0.0
1138,-6.2436893000195335,0.5149893788804617,118.6983572237269,0.0
1139,-6.379047417175286,0.3883941515357334,118.35430949844407,0.0
1140,-6.453459925661053,0.3342677252287125,118.0115908456598,0.0
1141,-6.496622571859147,0.3139939019448357,117.67059320165885,0.0
1142,-6.537233622827542,0.29280379003279755,117.33169935897118,0.0
1143,-6.6012753954920615,0.2422993007180625,116.9952831599179,0.0
1144,-6.709937219884733,0.14188962944233308,116.66170971203222,0.0
1145,-6.877590384865532,-0.020682908034136638,116.3313356238993,0.0
1146,-7.110357208420428,-0.2495377109999517,116.00450926003417,0.0
1147,-7.405712889359888,-0.5413913888910891,115.68157101349924,0.0
1148,-7.75329112616639,-0.8866671606352605,115.36285359504672,0.0
1149,-8.13674101152548,-1.2708226502529567,115.04868233765558,0.0
1150,-8.536210621706052,-1.6757561947199657,114.73937551542183,0.0
1151,-8.930892859371228,-2.0811818492372924,114.43524467584778,0.0
1152,-9.301101365938145,-2.4659127740718545,114.136594984667,0.0
1153,-9.629538762880602,-2.8090556822690185,113.84372558243012,0.0
1154,-9.90171524832982,-3.0911780740776997,113.55692995216856,0.0
1155,-10.10577545775446,-3.2955410996212757,113.27649629754266,0.0
1156,-10.2321940014035,-3.4094724441424065,113.00270793097253,0.0
1157,-10.273835626943425,-3.4258760922159803,112.7358436713396,0.0
1158,-10.226728058421372,-3.3447489187749535,112.47617825093866,0.0
1159,-10.09160084790733,-3.1744284393776834,112.22398273145035,0.0
1160,-9.87587956520584,-2.9321782470243574,111.97952492879455,0.0
1161,-9.595493922136413,-2.6436787620950932,111.74306984681783,0.0
1162,-9.275667180932407,-2.3410716065441246,111.51488011985818,0.0
1163,-8.949883397235562,-2.05942156457594,111.29521646432293,0.0
1164,-8.656508336888974,-1.8317902949042766,111.0843381395099,0.0
1165,-8.433038851461138,-1.683502107683655,110.88250341799416,0.0
1166,-8.30859315288699,-1.6265352513438616,110.68997006600111,0.0
1167,-8.295912346150429,-1.655190836114945,110.50699583428265,0.0
1168,-8.38467106267443,-1.7441869136801593,110.33383896011415,0.0
1169,-8.538116045358281,-1.850048013682942,110.1707586811342,0.0
1170,-8.694795647495972,-1.916122526522877,110.0180157618535,0.0
1171,-8.776310661637659,-1.8808441244090408,109.87587303377323,0.0
1172,-8.700658921321297,-1.688103118102327,109.74459595016614,0.0
1173,-8.399119829955437,-1.2979871534587288,109.62445315669638,0.0
1174,-7.833180600118039,-0.6958564277445185,109.51571707918143,0.0
1175,-7.007281280179886,0.10215233197829776,109.41866452993422,0.0
1176,-5.973584428894432,1.0485318050513492,109.33357733426631,0.0
1177,-4.8266657162278195,2.069150852596649,109.26074297888671,0.0
1178,-3.6886104866588005,3.072718294749727,109.20045528409295,0.0
1179,-2.6876988833302167,3.9633817590582723,109.15301510182688,0.0
1180,-1.9357267059076535,4.654246937519042,109.11873104185617,0.0
1181,-1.5093470233524746,5.0794448697027,109.09792022854634,0.0
1182,-1.4395043532826606,5.202720521866165,109.09090909090908,1.0
1183,-1.7105774025835965,5.021265839342964,109.1340823543391,0.0
1184,-2.2681586199538546,4.564479835129012,109.2610143895926,0.0
1185,-3.032391258146594,3.88827529095399,109.46808510638296,0.0
1186,-3.9130041897001946,3.066262686286607,109.75197862082176,0.0
1187,-4.822651111967203,2.1795026745519928,110.10963206626472,0.0
1188,-5.686456768540076,1.3065059232858038,110.53818884950049,0.0
1189,-6.447196555218718,0.514842261199455,111.03495544893762,0.0
1190,-7.0667620494894425,-0.14477382012541617,111.5973609953506,0.0
1191,-7.52520189601923,-0.6415875496973558,112.22291899555577,0.0
1192,-7.818647108719998,-0.9652222524104384,112.90919066100419,0.0
1193,-7.9570088818794,-1.1238534091972756,113.65374939149856,0.0
1194,-7.961754754377194,-1.1407449599492157,114.45414604304544,0.0
1195,-7.8635962986462795,-1.0497935932921862,115.30787468159392,0.0
1196,-7.699729651283199,-0.8906853265241853,116.21233859397417,0.0
1197,-7.510386668123774,-0.7041886836605822,117.16481639624253,0.0
1198,-7.334778421194532,-0.5280158328637053,118.16242815007304,0.0
1199,-7.206876649279127,-0.39358334549249463,119.20210147173813,0.0
1200,-7.1517235516828865,-0.32389100456905456,120.28053769725305,0.0
1201,-7.182990308921798,-0.3326020355042699,121.39417825277673,0.0
1202,-7.302306117065848,-0.4242525544776643,122.53917147236218,0.0
1203,-7.500507680678934,-0.5953588704749047,123.71134020618555,0.0
1204,-7.760512076322312,-0.8360597286781813,124.90615067144418,0.0
1205,-8.061108675156653,-1.1318635609606946,126.11868311449551,0.0
1206,-8.380708792194964,-1.465098025811657,127.34360497493968,0.0
1207,-8.700069745213382,-1.8157900467187045,128.57514736762943,0.0
1208,-9.003260382792732,-2.16191987033106,129.80708582321418,0.0
1209,-9.276629722243873,-2.479243776175024,131.03272634661914,0.0
1210,-9.506179361871784,-2.741098251495357,132.24489795918367,0.0
1211,-9.674362674004675,-2.9187122534121723,133.43595297586958,0.0
1212,-9.757744173799601,-2.982511056880079,134.59777632439503,0.0
1213,-9.7269667443311,-2.9046810707605264,135.72180522750978,0.0
1214,-9.549983686004474,-2.662915280999327,136.79906053123315,0.0
1215,-9.198555075333665,-2.2448556464228018,137.8201908588649,0.0
1216,-8.6568143801279,-1.652402338175356,138.77553059175528,0.0
1217,-7.929676655574741,-0.904879283615847,139.6551724137931,0.0
1218,-7.048417353212055,-0.04010519546156377,140.44905480106465,0.0
1219,-6.071183130390623,0.8872680696704707,141.1470643894893,0.0
1220,-5.077470397369614,1.8102803648878956,141.73915261587123,0.0
1221,-4.157336666885962,2.656595678319066,142.21546541358578,0.0
1222,-3.3976841832641536,3.356864875107801,142.5664840733281,0.0
1223,-2.8687988139515337,3.8532132301557156,142.78317468107878,0.0
1224,-2.614153718357925,4.106489778123521,142.85714285714286,1.0
1225,-2.6454182972142,4.101134679703986,142.82348654050494,0.0
1226,-2.9430968695737056,3.8469531722196555,142.72378655116094,0.0
1227,-3.4618144450720654,3.377620824384433,142.56007602165408,0.0
1228,-4.138402197897891,2.7462640272767547,142.33454663612648,0.0
1229,-4.90078635165171,2.0188634681627957,142.04953032074673,0.0
1230,-5.676147631108086,1.2664621754985061,141.70748072085948,0.0
1231,-6.3975893332671605,0.5572172802603526,141.31095468945904,0.0
1232,-7.009257638202959,-0.05075338857695966,140.86259399569335,0.0
1233,-7.47021209932636,-0.5149644846931429,140.36510744350613,0.0
1234,-7.757268708164259,-0.8120683848616502,139.8212535699045,0.0
1235,-7.866685335997517,-0.9390022694144518,139.23382407037693,0.0
1236,-7.814220392206748,-0.9117666183292505,138.60562807631626,0.0
1237,-7.633035466521406,-0.762076649223416,137.93947738651622,0.0
1238,-7.369229862265012,-0.532359899721133,137.23817273243037,0.0
1239,-7.07537746210099,-0.26976377190338713,136.50449113536348,0.0
1240,-6.803033586959754,-0.01995829822006312,135.74117439347683,0.0
1241,-6.595537720795676,0.17845605008206156,134.9509187177289,0.0
1242,-6.482420185949833,0.2982145626458443,134.13636551885335,0.0
1243,-6.4763506003536415,0.32580642379528585,133.30009333234426,0.0
1244,-6.57298953252653,0.2618051105576383,132.44461085524856,0.0
1245,-6.753510612386244,0.11919177496867285,131.57235105737308,0.0
1246,-6.98910279607602,-0.07994435055730531,130.68566632026824,0.0
1247,-7.246518762858037,-0.30871088294318444,129.78682454997266,0.0
1248,-7.493702040816875,-0.5399804315138212,128.87800620388714,0.0
1249,-7.704645540243104,-0.7504834369040816,127.96130216815476,0.0
1250,-7.862838846206082,-0.9238147988156227,127.03871241940976,0.0
1251,-7.962903967183552,-1.0519695805641451,126.11214540355707,0.0
1252,-8.010283486403212,-1.1353060225477443,125.18341806419181,0.0
1253,-8.01912900775682,-1.1811225648939965,124.25425645420177,0.0
1254,-8.008825159978334,-1.201277154666989,123.3262968658526,0.0
1255,-7.999830921904625,-1.2094268025295878,122.4010874170879,0.0
1256,-8.009664080957489,-1.2184937455018254,121.48009003474048,0.0
1257,-8.049843325732978,-1.2388643282018228,120.56468277872102,0.0
1258,-8.124414603218694,-1.2776159453442653,119.65616245490813,0.0
1259,-8.230345094103498,-1.3387885681352274,118.75574746831163,0.0
1260,-8.359632692443677,-1.4244310878445734,117.864580872024,0.0
1261,-8.502547138136872,-1.535926565210234,116.98373357144588,0.0
1262,-8.651098540689583,-1.6749948488081228,116.11420764720155,0.0
1263,-8.80170810848518,-1.8438243038802475,115.25693976399941,0.0
1264,-8.956175304799228,-2.044001070110343,114.41280463640408,0.0
1265,-9.120381004478956,-2.2742491123790787,113.58261852603279,0.0
1266,-9.300682238791826,-2.5273949649678027,112.7671427480539,0.0
1267,-9.498563683740654,-2.787329809007533,111.96708716802758,0.0
1268,-9.704718671002883,-3.0269553993507397,111.18311367308581,0.0
1269,-9.894212052587044,-3.2080862040011144,110.41583960419138,0.0
1270,-10.024568012854447,-3.2839995812856064,109.66584113874869,0.0
1271,-10.038362937610325,-3.2048038215531824,108.93365661516486,0.0
1272,-9.871085647951153,-2.925123965365512,108.21978979308872,0.0
1273,-9.463700528908369,-2.4129370916073514,107.52471304499356,0.0
1274,-8.777767622520217,-1.6578967769399013,106.84887047653302,0.0
1275,-7.809599789679642,-0.677325397591384,106.19268097469859,0.0
1276,-6.5993392516338485,0.4816895254265532,105.55654118425676,0.0
1277,-5.231475578986427,1.7449974928794285,104.94082841425966,0.0
1278,-3.8252918450146605,3.018849952128251,104.3459034776181,0.0
1279,-2.516552091317731,4.201091094627864,103.77211346781809,0.0
1280,-1.4344885195442927,5.19422091459106,103.2197944778632,0.0
1281,-0.6797477525242144,5.918054658715049,102.68927426745569,0.0
1282,-0.30872715563042114,6.319784691602395,102.18087488529974,0.0
1283,-0.3277277828321014,6.3798119908008415,101.69491525423729,1.0
1284,-0.6973578684784079,6.112603201466015,101.21749934703323,0.0
1285,-1.344784192549639,5.562814014078073,100.73492911001212,0.0
1286,-2.179714699616042,4.797759851870328,100.24780740796962,0.0
1287,-3.1098056922721873,3.897829442940999,99.75672054456363,0.0
1288,-4.052297405289276,2.9465496797645514,99.2622379762206,0.0
1289,-4.9404723991440385,2.021758933489509,98.76491210051032,0.0
1290,-5.725306203889367,1.1888559910217313,98.26527811457495,0.0
1291,-6.373908701077898,0.49652721083085183,97.76385393917144,0.0
1292,-6.866780218997923,-0.02513447579737793,97.26114020389537,0.0
1293,-7.195553912618682,-0.3645223832983866,96.75762028919537,0.0
1294,-7.362027194655087,-0.5269448540021612,96.2537604208556,0.0
1295,-7.378297601838505,-0.5320757203374828,95.75000981271624,0.0
1296,-7.267104027824035,-0.41078977055043053,95.2468008535177,0.0
1297,-7.0612756118152475,-0.20161946181728307,94.74454933388334,0.0
1298,-6.801521506344112,0.053006576490841284,94.24365470960522,0.0
1299,-6.532458138430018,0.3105883577377434,93.74450039755281,0.0
1300,-6.297462733622721,0.5322405557609919,93.24745410069531,0.0
1301,-6.1333891644167196,0.6859767007330685,92.75286815890117,0.0
1302,-6.06624595494981,0.7492961218420422,92.26107992235869,0.0
1303,-6.108645106897798,0.7108029163710599,91.77241214464509,0.0
1304,-6.259338841153391,0.570674289591407,91.28717339265347,0.0
1305,-6.504666440773559,0.33993139180453835,90.80565847077249,0.0
1306,-6.821390996241023,0.038619537824910566,90.32814885689329,0.0
1307,-7.180279501772131,-0.30685651914326517,89.8549131479992,0.0
1308,-7.549836961286078,-0.6668991914490383,89.38620751326648,0.0
1309,-7.899756226366682,-1.012001608699348,88.92227615277719,0.0
1310,-8.20380087957739,-1.315777728827247,88.46335176010764,0.0
1311,-8.441953630487482,-1.5574298953975911,88.0096559872183,0.0
1312,-8.601743357965452,-1.7234370962387646,87.56139991022035,0.0
1313,-8.678737716916418,-1.8083536238097344,87.11878449474398,0.0
1314,-8.676266880629864,-1.8147134154432507,86.68200105977027,0.0
1315,-8.604510022156594,-1.7521290332527975,86.25123173892322,0.0
1316,-8.47910288056247,-1.6357492205836366,85.82664993834318,0.0
1317,-8.319407703389881,-1.4842917723353963,85.40842079038238,0.0
1318,-8.146554488222096,-1.3178974316075367,84.99670160247526,0.0
1319,-7.981356054239868,-1.1560544356352005,84.59164230064177,0.0
1320,-7.842240729655093,-1.0158207926433893,84.1933858671813,0.0
1321,-7.743419551079998,-0.9105216277104972,83.80206877220705,0.0
1322,-7.693563622791308,-0.8490238883298159,83.41782139875835,0.0
1323,-7.695258034420607,-0.8355972919294249,83.04076846130903,0.0
1324,-7.7453863417141795,-0.8702720524684691,82.67102941756637,0.0
1325,-7.8363890100109845,-0.9495197276283698,82.30871887352534,0.0
1326,-7.958086085580954,-1.0670345531842012,81.95394698180972,0.0
1327,-8.09955425278365,-1.2143959578476875,81.60681983339244,0.0
1328,-8.250499148920587,-1.3814551426626254,81.26743984284614,0.0
1329,-8.401714953771164,-1.5564010430199184,80.93590612732817,0.0
1330,-8.544542970374861,-1.725599241425393,80.61231487955516,0.0
1331,-8.669622788993152,-1.873425641125331,80.29675973507011,0.0
1332,-8.765536700589076,-1.9823964137168626,79.9893321341497,0.0
1333,-8.818067446834071,-2.033896270213148,79.69012167874232,0.0
1334,-8.8106715369857,-2.009715094942748,79.39921648486812,0.0
1335,-8.726442211089479,-1.8944274866771842,79.11670353095217,0.0
1336,-8.55139190289196,-1.6784217234462728,78.84266900259834,0.0
1337,-8.27845735705766,-1.3611508504603762,78.57719863435054,0.0
1338,-7.9113517279625185,-0.9539916947674694,78.32037804902293,0.0
1339,-7.467337660182534,-0.482005469616958,78.07229309521824,0.0
1340,-6.97817382073608,0.016070068447457064,77.83303018368906,0.0
1341,-6.4888167329618165,0.49008877424040564,77.60267662323481,0.0
1342,-6.053821052652597,0.8832059198019147,77.3813209568647,0.0
1343,-5.7316720931983625,1.1388006609276045,77.16905329899642,0.0
1344,-5.577470474908722,1.2089260109775064,76.96596567450163,0.0
1345,-5.634522141523613,1.063171429727137,76.77215236045198,0.0
1346,-5.92557057153069,0.6965045558906446,76.58771023146534,0.0
1347,-6.44472011954748,0.13453799116337084,76.41273910960071,0.0
1348,-7.1515164222215235,-0.5651831712326818,76.24734211980206,0.0
1349,-7.969010064754839,-1.3168205763445733,76.09162605194742,0.0
1350,-8.787662429516438,-2.0150135793409514,75.94570173062057,0.0
1351,-9.476372897685366,-2.548052821196341,75.80968439378776,0.0
1352,-9.900560100052813,-2.8137671694526474,75.68369408163363,0.0
1353,-9.945245952978365,-2.7356618314663113,75.56785603688806,0.0
1354,-9.538967272147458,-2.2764734922780248,75.46230111806128,0.0
1355,-8.672869734157,-1.4464913950372795,75.36716622709616,0.0
1356,-7.40934233458543,-0.3047685669446693,75.28259475305045,0.0
1357,-5.876469280683605,1.0473971615916629,75.2087370335312,0.0
1358,-4.248128538914353,2.479849424504906,75.14575083572849,0.0
1359,-2.713689545211539,3.851590406700267,75.09380185902872,0.0
1360,-1.4444696882909511,5.030262167541108,75.0530642613375,0.0
1361,-0.5651368509244632,5.9096724061911825,75.02372121140515,0.0
1362,-0.13665963124995312,6.422430482769995,75.00596546962828,0.0
1363,-0.15382007552090857,6.545853734927836,75.0,1.0
1364,-0.5560811442828197,6.30072306434866,75.00085924876892,0.0
1365,-1.2472326810115333,5.743857379670508,75.00343571277854,0.0
1366,-2.1177184843148544,4.956518410298451,75.00772764510215,0.0
1367,-3.0640530074907737,4.031148363095427,75.01373353351063,0.0
1368,-4.001720907600119,3.058842006695096,75.02145209971346,0.0
1369,-4.870501091842429,2.119374560396073,75.03088229868047,0.0
1370,-5.633392162039641,1.2747622583139568,75.04202331804373,0.0
1371,-6.271667702638837,0.5664683609761199,75.05487457757913,0.0
1372,-6.778878784399372,0.015688076036832088,75.06943572876709,0.0
1373,-7.156011656379881,-0.37423185924109115,75.0857066544324,0.0
1374,-7.408888470303502,-0.6142446798414025,75.10368746846252,0.0
1375,-7.547727005113514,-0.7257483355471719,75.12337851560429,0.0
1376,-7.587932102514056,-0.7369365417863335,75.14478037133878,0.0
1377,-7.550873449755036,-0.67955910733436,75.16789384183414,0.0
1378,-7.463597648464474,-0.5860765180450358,75.19271996397639,0.0
1379,-7.3569545565209635,-0.48710956276251216,75.21926000547792,0.0
1380,-7.2622518018420585,-0.40912330645056905,75.24751546506391,0.0
1381,-7.207077212306209,-0.37239618148199716,75.27748807273669,0.0
1382,-7.211218298493942,-0.38944349762137065,75.30917979011781,0.0
1383,-7.283623836697356,-0.4641314119140004,75.34259281086857,0.0
1384,-7.421128663216247,-0.591697802946916,75.37772956118845,0.0
1385,-7.609274694426295,-0.7597880530108152,75.41459270039233,0.0
1386,-7.825104714676139,-0.9504436522682791,75.45318512156645,0.0
1387,-8.04138166594321,-1.1427963501021579,75.4935099523035,0.0
1388,-8.231387077687797,-1.316071543131406,75.53557055551722,0.0
1389,-8.373344235935399,-1.4524329681128336,75.5793705303371,0.0
1390,-8.453619847125447,-1.5392268761829682,75.62491371308333,0.0
1391,-8.468157924958565,-1.5703023842138086,75.67220417832299,0.0
1392,-8.422019579212037,-1.546267045922863,75.7212462400076,0.0
1393,-8.327336083165418,-1.4737393956906633,75.77204445269315,0.0
1394,-8.20031441234506,-1.3638368033926729,75.82460361284284,0.0
1395,-8.058074855612478,-1.2302498997703877,75.87892876021367,0.0
1396,-7.916020508753325,-1.0872843519404412,75.9350251793274,0.0
1397,-7.786183942074118,-0.9481984829619847,75.99289840102692,0.0
1398,-7.676666484732022,-0.8240517264413707,76.05255420411892,0.0
1399,-7.591989566948167,-0.7231367529653294,76.11399861710363,0.0
1400,-7.533993090367279,-0.6509325870718803,76.17723791999312,0.0
1401,-7.502870781274939,-0.6104164561465398,76.24227864621855,0.0
1402,-7.498009259970433,-0.6025258781502807,76.30912758462838,0.0
1403,-7.51844725020302,-0.6265730271079211,76.37779178157786,0.0
1404,-7.562931487014862,-0.6804716848760786,76.44827854311181,0.0
1405,-7.629662004089061,-0.7607255198179628,76.52059543724161,0.0
1406,-7.7158671082599195,-0.8622235964874729,76.5947502963179,0.0
1407,-7.8173421048763565,-0.9779737659143504,76.6707512195004,0.0
1408,-7.928065101792025,-1.098958987877704,76.74860657532666,0.0
1409,-8.040001195823988,-1.2143128455500722,76.82832500438087,0.0
1410,-8.143225033690111,-1.3119720640800037,76.90991542206484,0.0
1411,-8.226501456208306,-1.3798768930017262,76.99338702147271,0.0
1412,-8.278425852071967,-1.4076646903622043,77.07874927637118,0.0
1413,-8.289119291482438,-1.3886571680295163,77.1660119442871,0.0
1414,-8.252310587417446,-1.3218049926913924,77.2551850697048,0.0
1415,-8.167460190948272,-1.213157251262524,77.34627898737455,0.0
1416,-8.041445705302188,-1.0763995383271139,77.43930432573497,0.0
1417,-7.889285212218882,-0.9320770804725724,77.5342720104511,0.0
1418,-7.733445962954054,-0.8052969163536621,77.63119326807069,0.0
1419,-7.601464071442417,-0.7219727637909755,77.73007962980115,0.0
1420,-7.521859091770294,-0.70400071189264,77.83094293540942,0.0
1421,-7.518642732368239,-0.7640741508681416,77.93379533724762,0.0
1422,-7.605081517219728,-0.9010891821879822,78.03864930440699,0.0
1423,-7.77775672732259,-1.0971834481475629,78.14551762700302,0.0
1424,-8.012300650769077,-1.3173355332476284,78.25441342059447,0.0
1425,-8.262336068579017,-1.5121085848876628,78.3653501307396,0.0
1426,-8.462926180045498,-1.6235812306016482,78.47834153769244,0.0
1427,-8.539118798538588,-1.59385774179336,78.59340176124239,0.0
1428,-8.418956163329911,-1.3749203992853327,78.71054526570063,0.0
1429,-8.048860641473398,-0.9381332048594035,78.82978686503655,0.0
1430,-7.40805261899976,-0.2815626778165999,78.95114172816817,0.0
1431,-6.518153011515976,0.5664752585019528,79.07462538440984,0.0
1432,-5.444773137185003,1.548617044541038,79.20025372908128,0.0
1433,-4.289724814873884,2.5844994521344242,79.32804302928221,0.0
1434,-3.17502228118881,3.5808026744243184,79.45800992983608,0.0
1435,-2.2222411322222406,4.443637309685948,79.59017145940786,0.0
1436,-1.5321532928336064,5.091162352871001,79.72454503679984,0.0
1437,-1.1693485986411798,5.464304225038437,79.86114847743035,0.0
1438,-1.1548908482558964,5.533866992771259,80.0,1.0
1439,-1.4676263368349654,5.303065560522008,80.18457943701931,0.0
1440,-2.052495520829029,4.805390080907506,80.45642780400811,0.0
1441,-2.8328328673124745,4.0985192200138485,80.81300665232843,0.0
1442,-3.7234352542425486,3.255579884342944,81.25219515824388,0.0
1443,-4.641903664123401,2.355315356505818,81.77223275523725,0.0
1444,-5.516915146415628,1.4726720185588502,82.37166753693035,0.0
1445,-6.293172035310627,0.6710163177596349,83.04930895477789,0.0
1446,-6.933504071654197,-0.00324423640464111,83.80418353242827,0.0
1447,-7.418891646155658,-0.5233288820441018,84.63549246762202,0.0
1448,-7.747123749848083,-0.8821417999473262,85.54257010366041,0.0
1449,-7.930569186223783,-1.090123790902335,86.5248423345448,0.0
1450,-7.993293690892601,-1.1714822166821106,87.58178406810477,0.0
1451,-7.96761623093717,-1.1594594650469088,88.71287491612912,0.0
1452,-7.8902030274344765,-1.0912950095071046,89.91755231557455,0.0
1453,-7.7979129621978,-1.0034751693831219,91.19516131618306,0.0
1454,-7.723757732712342,-0.9277649943491215,92.54490030342342,0.0
1455,-7.693446587846316,-0.8883866311539871,93.96576196832251,0.0
1456,-7.722993973229482,-0.9005517107953953,95.45646889509189,0.0
1457,-7.817757775724471,-0.9703768830797102,97.01540322222957,0.0
1458,-7.973060260107934,-1.096023759200353,98.64052995301043,0.0
1459,-8.176268450762857,-1.269728671745884,100.32931365836467,0.0
1460,-8.409938433304376,-1.480252801151738,102.07862854173214,0.0
1461,-8.655418167385461,-1.71522007301409,103.88466213521018,0.0
1462,-8.896194431841876,-1.9628429882501315,105.74281328316165,0.0
1463,-9.120277284148608,-2.2126741667885668,107.6475855567411,0.0
1464,-9.321045319440092,-2.4552509076883893,109.59247784160478,0.0
1465,-9.496233335856049,-2.6807841716219754,111.56987455804989,0.0
1466,-9.64513205253255,-2.8773238498692737,113.57093880726124,0.0
1467,-9.764558230933355,-3.0290398761776376,115.58551267749448,0.0
1468,-9.844654028249582,-3.11532928530989,117.60202996282935,0.0
1469,-9.86592999738513,-3.111351506284498,119.60744759756273,0.0
1470,-9.798987218985431,-2.9903064324711135,121.58720311994931,0.0
1471,-9.607896517072724,-2.7273490981198454,123.5252063506682,0.0
1472,-9.257272407732026,-2.304572921876715,125.40387407610382,0.0
1473,-8.721853985276839,-1.7161088162444713,127.20421671027009,0.0
1474,-7.99627719216377,-0.9721946210939822,128.90598550023697,0.0
1475,-7.102147810418964,-0.10114445508032943,130.48788766415333,0.0
1476,-6.0898453156736,0.8514997712817174,131.92787475524764,0.0
1477,-5.033752807384673,1.826790211140854,133.20350642815154,0.0
1478,-4.021485351011655,2.7586847165112043,134.29238763184782,0.0
1479,-3.1395492988589653,3.5818112188455764,135.17267217666478,0.0
1480,-2.4590242998767766,4.2393252919273925,135.8236198839501,0.0
1481,-2.0248690464764554,4.689493370454331,136.2261885543702,0.0
1482,-1.8512947704680782,4.909936773072049,136.36363636363637,1.0
1483,-1.923753564368966,4.898995281175901,136.35911316571867,0.0
1484,-2.206146728871223,4.674267316810935,136.3458173816416,0.0
1485,-2.650552564901809,4.2689005177672925,136.32416202715712,0.0
1486,-3.206500741057092,3.7265230540115653,136.2945627755182,0.0
1487,-3.827557508181211,3.095773643927341,136.2574374630074,0.0
1488,-4.47433884624736,2.4252353349705085,136.213205618038,0.0
1489,-5.114472340776999,1.7592917552100187,136.16228801455586,0.0
1490,-5.720980680985039,1.135114704079776,136.10510625035474,0.0
1491,-6.270786661359333,0.5807525900557335,136.0420823508072,0.0
1492,-6.744558455625877,0.11416974497760757,135.97363839840835,0.0
1493,-7.128195879178978,-0.25691747194239467,135.90019618843138,0.0
1494,-7.415313258742283,-0.5344982038171233,135.82217691090065,0.0
1495,-7.609486896401956,-0.7290429390792404,135.74000085900394,0.0
1496,-7.72501137830638,-0.8576098292272931,135.65408716398477,0.0
1497,-7.785408459758198,-0.9413578225622534,135.56485355648536,0.0
1498,-7.819714275416634,-1.0026680754180441,135.4727161542449,0.0
1499,-7.85732192931899,-1.0622140562106075,135.3780892760002,0.0
1500,-7.922623623392808,-1.1364140133736909,135.28138528138527,0.0
1501,-8.030762371967494,-1.2356975425170047,135.18301443658166,0.0
1502,-8.185493837709988,-1.3638996157263925,135.08338480543546,0.0
1503,-8.379600722979008,-1.51887607621247,134.98290216572568,0.0
1504,-8.59766529748483,-1.6941631943908544,134.881969950246,0.0
1505,-8.820451394991654,-1.8812497015249512,134.78098921234408,0.0
1506,-9.029793477067901,-2.0718634890032406,134.68035861555242,0.0
1507,-9.212795559448693,-2.2596496900842387,134.5804744469401,0.0
1508,-9.364307009864964,-2.440752027215752,134.4817306538161,0.0
1509,-9.487020737856332,-2.613084895351245,134.3845189034223,0.0
1510,-9.589061119226344,-2.7744416074119798,134.289228665267,0.0
1511,-9.67951139912076,-2.9199400415100545,134.19624731576826,0.0
1512,-9.762882291767593,-3.0395680846674535,134.10596026490066,0.0
1513,-9.833940094469995,-3.116679298877517,134.01875110456697,0.0
1514,-9.87447444838688,-3.1281608592122057,133.93500177845107,0.0
1515,-9.853381082838686,-3.046658108030764,133.85509277314702,0.0
1516,-9.730807453815256,-2.8447550507484367,133.77940333040368,0.0
1517,-9.466115124784006,-2.500485699706542,133.7083116803717,0.0
1518,-9.028253158370282,-2.0031184690314103,133.64219529579472,0.0
1519,-8.406139985194592,-1.3579367184411237,133.5814311671438,0.0
1520,-7.616190349471845,-0.5888112556858671,133.526396098758,0.0
1521,-6.704480358318646,0.2622667407661523,133.47746702612204,0.0
1522,-5.7422589468841165,1.1389223906881272,133.43502135448443,0.0
1523,-4.815304937345229,1.9769398252817507,133.3994373190995,0.0
1524,-4.009436944310162,2.712530173040298,133.37109436745877,0.0
1525,-3.3956720898781856,3.290856999604996,133.3503735639683,0.0
1526,-3.0186501340292655,3.6732900129575374,133.33765801762323,0.0
1527,-2.890934631882377,3.842132054247425,133.33333333333334,1.0
1528,-2.9940405286581355,3.8020970402351395,133.3378552887312,0.0
1529,-3.2851595092986137,3.5784682523128866,133.35114465576837,0.0
1530,-3.7072049490750953,3.2124780477551367,133.37278903256816,0.0
1531,-4.199364734903196,2.7548882765517453,133.40237872511025,0.0
1532,-4.705832653528152,2.2589413800050693,133.43950624375037,0.0
1533,-5.181453591976294,1.7737928341267621,133.48376582675192,0.0
1534,-5.5941851041053186,1.339284599283805,133.5347529900734,0.0
1535,-5.9251346461437855,0.9825685981399888,133.59206410277855,0.0
1536,-6.167267260287298,0.7167325877926085,133.65529598754824,0.0
1537,-6.3237140488602686,0.5412873378070493,133.72404554588078,0.0
1538,-6.406145478314621,0.4441761159121835,133.79790940766551,0.0
1539,-6.433177413861736,0.4048629950464635,133.87648360490846,0.0
1540,-6.428483545674545,0.3980220859867191,133.959363269474,0.0
1541,-6.418299765044855,0.3973578416911146,134.04614235478752,0.0
1542,-6.428275917922936,0.3791186548112423,134.1364133815181,0.0
1543,-6.480002753755866,0.3249183787064264,134.22976720732834,0.0
1544,-6.587838427678439,0.22356096874821876,134.3257928208406,0.0
1545,-6.756754035208284,0.07168235044090598,134.42407716002626,0.0
1546,-6.98177421111986,-0.1268170738414256,134.5242049552739,0.0
1547,-7.249252395181142,-0.3623894905255436,134.62575859743762,0.0
1548,-7.539789892092662,-0.6221628081763559,134.72831803120528,0.0
1549,-7.832200472289384,-0.8924857038149216,134.8314606741573,0.0
1550,-8.107642394218168,-1.1611531291964474,134.93476136191433,0.0
1551,-8.35295679942626,-1.4188244663493532,135.03779231978896,0.0
1552,-8.56238879144693,-1.6593153998727628,135.140123161371,0.0
1553,-8.73720278006059,-1.8787043369888468,135.24132091447925,0.0
1554,-8.883177154981496,-2.073493733623527,135.34095007491226,0.0
1555,-9.00648917323572,-2.2383374395128484,135.43857268842007,0.0
1556,-9.10897657510037,-2.3640164692550547,135.53374846130225,0.0
1557,-9.184076123110518,-2.4363625792840415,135.62603490001274,0.0
1558,-9.214781258259887,-2.436669056260201,135.7149874801182,0.0
1559,-9.174649298824763,-2.3438110567810613,135.8001598449164,0.0
1560,-9.032212680225381,-2.137886340776979,135.88110403397027,0.0
1561,-8.758216541615194,-1.8047754317122127,135.9573707417559,0.0
1562,-8.334156374016459,-1.340712050122168,136.0285096065557,0.0
1563,-7.759944886029863,-0.7558366941762471,136.09406952965233,0.0
1564,-7.058481802794395,-0.07582249510501693,136.15359902479514,0.0
1565,-6.275547696664941,0.6590008975485568,136.20664659781858,0.0
1566,-5.474649140936504,1.3971138953043245,136.25276115619067,0.0
1567,-4.72782770051705,2.0814289275541493,136.2914924481611,0.0
1568,-4.104534419076963,2.6561929538773645,136.32239153106104,0.0
1569,-3.661095944199815,3.074038996165014,136.34501126818276,0.0
1570,-3.4329554294408133,3.3020324324224797,136.3589068535355,0.0
1571,-3.430952437252469,3.3257612213644885,136.36363636363637,1.0
1572,-3.64178653754463,3.150889098277445,136.35788713146144,0.0
1573,-4.031872538517845,2.8020363774814294,136.34077625887235,0.0
1574,-4.553287707400258,2.319279327785951,136.31251308873993,0.0
1575,-5.15048079284636,1.7528905318062282,136.27331216621783,0.0
1576,-5.766730117461834,1.157136792668231,136.22339289691627,0.0
1577,-6.349777279346742,0.5840006497203926,136.1629792061108,0.0
1578,-6.856407404546299,0.07761614146287121,136.09229919979498,0.0
1579,-7.25588376267329,-0.32995665663045237,136.01158482835072,0.0
1580,-7.532104468999446,-0.6212136009878881,135.9210715535746,0.0
1581,-7.684267347535973,-0.793781261385984,135.8209980197616,0.0
1582,-7.725851723070657,-0.8591571196180349,135.71160572950708,0.0
1583,-7.681916997101271,-0.8398985492558937,135.5931387248514,0.0
1584,-7.5850252124008,-0.7657113927712005,135.46584327434678,0.0
1585,-7.470390051100045,-0.6689978072244294,135.32996756659003,0.0
1586,-7.371014537057273,-0.5804620108248716,135.18576141071858,0.0
1587,-7.313551938279884,-0.5253369858565589,135.03347594433004,0.0
1588,-7.315440055136431,-0.5206892719258477,134.8733633492414,0.0
1589,-7.383595825390267,-0.574096195614948,134.70567657546525,0.0
1590,-7.514690888678146,-0.6837913822103848,134.53066907373832,0.0
1591,-7.696807517078144,-0.8401659270285377,134.34859453689967,0.0
1592,-7.9121188328899645,-1.0283209530661828,134.15970665037537,0.0
1593,-8.140150696641053,-1.2312171339263713,133.96425885199065,0.0
1594,-8.361156407208213,-1.4328783738551885,133.76250410129165,0.0
1595,-8.559152387297122,-1.621094401453632,133.55469465852565,0.0
1596,-8.724206347427135,-1.7891372905691831,133.34108187339234,0.0
1597,-8.85363290338369,-1.9361576188243588,133.1219159836479,0.0
1598,-8.951843268285266,-2.0661441212518437,132.89744592361095,0.0
1599,-9.028730434706286,-2.185591143739371,132.66791914259045,0.0
1600,-9.096661654749099,-2.3002836031943517,132.43358143322737,0.0
1601,-9.166399770405324,-2.411832615254741,132.19467676971513,0.0
1602,-9.242570500041165,-2.514726278865548,131.95144715583928,0.0
1603,-9.3195867483405,-2.594655833926107,131.70413248275347,0.0
1604,-9.379139235719476,-2.6287130382995043,131.45297039638697,0.0
1605,-9.39033847697637,-2.5877362649370172,131.19819617435982,0.0
1606,-9.313237404535288,-2.4406541769676697,130.94004261226206,0.0
1607,-9.105752730125332,-2.1602163801519767,130.6787399191384,0.0
1608,-8.733046612415425,-1.7291126871685392,130.41451562200317,0.0
1609,-8.177476926170732,-1.1452691720843409,130.14759447919803,0.0
1610,-7.446609743815425,-0.42514450623991196,129.87819840239152,0.0
1611,-6.576826935291424,0.3958451061372388,129.60654638701067,0.0
1612,-5.6309084915092,1.2661165150401215,129.33285445088396,0.0
1613,-4.689491627696495,2.123629147419198,129.05733558086874,0.0
1614,-3.838067088945978,2.903610738708755,128.78019968722802,0.0
1615,-3.152551869746727,3.546971843396437,128.5016535655183,0.0
1616,-2.6869416879413395,4.007942690658355,128.2219008657441,0.0
1617,-2.4658957488775766,4.259643577360582,127.94114206853331,0.0
1618,-2.483583303208725,4.296742964414455,127.65957446808511,1.0
1619,-2.7083067173304656,4.134948611932293,127.34446484623687,0.0
1620,-3.090963383940487,3.80766938592768,126.96486646076944,0.0
1621,-3.5747649027318773,3.3606448440148755,126.52376232451253,0.0
1622,-4.103877656197038,2.8455811580332218,126.02425888978888,0.0
1623,-4.629528630839274,2.3138362304649904,125.46956009084144,0.0
1624,-5.1132076652467005,1.8110063973838817,124.86294214380992,0.0
1625,-5.527489763418419,1.3729636360136603,124.20772937616839,0.0
1626,-5.855454158777399,1.0235667389875545,123.50727131593149,0.0
1627,-6.089648377225563,0.7739956409872066,122.76492122850965,0.0
1628,-6.23116745469252,0.6234742171945976,121.98401624706746,0.0
1629,-6.288921549756988,0.5610567813691769,121.1678592016857,0.0
1630,-6.278783204393786,0.5681346293220114,120.31970221441871,0.0
1631,-6.222187686831388,0.6213387307950403,119.44273209216635,0.0
1632,-6.143923880928767,0.6955455516845388,118.54005751763715,0.0
1633,-6.069195264386307,0.7667214794506036,117.61469801088975,0.0
1634,-6.020383088596658,0.8143687681472725,116.66957461015573,0.0
1635,-6.014151595327677,0.8233726447188894,115.70750220089054,0.0
1636,-6.05951588461126,0.7851057016742287,114.7311834061604,0.0
1637,-6.157261590649567,0.6977249993510253,113.74320393936033,0.0
1638,-6.300755400469609,0.5656918147750059,112.7460293115949,0.0
1639,-6.477843675562921,0.39863741721607837,111.74200278052263,0.0
1640,-6.673313309795799,0.2097714835617711,110.73334442470815,0.0
1641,-6.871342240459605,0.01406777821102112,109.72215122718131,0.0
1642,-7.05748890315192,-0.17354111986520016,108.71039805359614,0.0
1643,-7.219996417132536,-0.3397666037264738,107.69993941375975,0.0
1644,-7.350425899781404,-0.4742307898947673,106.69251190002493,0.0
1645,-7.443800573204863,-0.5703277495671263,105.68973720179638,0.0
1646,-7.4984964664497875,-0.6256630597904042,104.69312560190941,0.0
1647,-7.516066927305191,-0.6420900820982247,103.70407986765149,0.0
1648,-7.5010821933776235,-0.6253776356910228,102.72389945649618,0.0
1649,-7.460952275130091,-0.5845490623046841,101.75378496402001,0.0
1650,-7.405617551726276,-0.5309375386205653,100.79484274882621,0.0
1651,-7.346959218465154,-0.47701574092758847,99.84808967647974,0.0
1652,-7.297816068005468,-0.4350829807052,98.91445793136909,0.0
1653,-7.270597822081058,-0.4159257769866017,97.99479985198057,0.0
1654,-7.2756354995002,-0.4275981413033463,97.08989275124603,0.0
1655,-7.319554699233889,-0.47448215397416393,96.20044368937101,0.0
1656,-7.40403696643125,-0.5567759217325936,95.32709417185082,0.0
1657,-7.525305819474094,-0.6705092923559158,94.47042475022661,0.0
1658,-7.674534607234442,-0.8081116163038458,93.63095950752862,0.0
1659,-7.839159730757614,-0.9594636385541928,92.80917041431019,0.0
1660,-8.004858488492456,-1.1132770164668941,92.00548154471156,0.0
1661,-8.157787069870986,-1.2585811211726519,91.22027314513113,0.0
1662,-8.286624932710849,-1.386074451958203,90.4538855508464,0.0
1663,-8.384048852457713,-1.4891248817021032,89.70662294834882,0.0
1664,-8.447424555430862,-1.5642754096326212,88.9787569832622,0.0
1665,-8.478687185209793,-1.6112157130562128,88.27053021553418,0.0
1666,-8.483525482981785,-1.6322924772509215,87.58215942515284,0.0
1667,-8.470070531421811,-1.6317281256818466,86.913838772974,0.0
1668,-8.447336247888114,-1.6147751441049427,86.26574282237759,0.0
1669,-8.423688125931136,-1.587035527211829,85.63802942842747,0.0
1670,-8.405629234913425,-1.5541165479164067,85.03084250201596,0.0
1671,-8.39716596215689,-1.5216828776814146,84.44431465715141,0.0
1672,-8.399926211307594,-1.495822688518627,83.87856975012039,0.0
1673,-8.414042711466681,-1.483505032248313,83.33372531974189,0.0
1674,-8.439600171197315,-1.4928071492574564,82.8098949383508,0.0
1675,-8.478216405091178,-1.532570932942869,82.30719048351882,0.0
1676,-8.534145971287488,-1.6112325416493973,81.82572434085874,0.0
1677,-8.6142398222098,-1.734760323841346,81.36561154858018,0.0
1678,-8.726242751314889,-1.9039064031986292,80.92697189478444,0.0
1679,-8.875299280561702,-2.111269157437387,80.509931978819,0.0
1680,-9.059129684451865,-2.338898773298337,80.114627248372,0.0
1681,-9.263001340231563,-2.5572735744877937,79.741204024388,0.0
1682,-9.456148979476716,-2.726368091790616,79.38982152634225,0.0
1683,-9.591448698889048,-2.799205464886426,79.06065391093698,0.0
1684,-9.609723316584521,-2.727776871532179,78.75389233789404,0.0
1685,-9.448991782896845,-2.4706202027455015,78.46974707723251,0.0
1686,-9.057451313508693,-2.0008230721568996,78.20844967325179,0.0
1687,-8.407437052278985,-1.312903134380727,77.97025518141284,0.0
1688,-7.506634782157622,-0.4270365440223467,77.75544449544465,0.0
1689,-6.402945970738623,0.6105087533656612,77.56432678332105,0.0
1690,-5.180796653253912,1.7311846095699734,77.39724205228917,0.0
1691,-3.9490126872712916,2.851818499197207,77.25456386490897,0.0
1692,-2.8228814228321784,3.8849101045297516,77.1367022301318,0.0
1693,-1.9047683853182162,4.749810216021506,77.04410669583756,0.0
1694,-1.2680046390803459,5.382854092878506,76.97726967202358,0.0
1695,-0.9476121320582231,5.74477221048184,76.93673001705129,0.0
1696,-0.9392770325249881,5.824295744985348,76.92307692307692,1.0
1697,-1.2056343482056104,5.6376508726998535,76.96108382405951,0.0
1698,-1.6871833894760828,5.224399854783369,77.07318161037455,0.0
1699,-2.3144884652409754,4.640666438474234,77.25678071598325,0.0
1700,-3.018769743192612,3.951075262448565,77.50964385036332,0.0
1701,-3.73920433225067,3.2207240850063643,77.8298401205957,0.0
1702,-4.426675592200779,2.508255871349628,78.21570424686831,0.0
1703,-5.044793944467862,1.860713541660668,78.66579981022103,0.0
1704,-5.569459361296897,1.3104586694654081,79.17888563049853,0.0
1705,-5.988050775804174,0.874104777301574,79.75388449705986,0.0
1706,-6.298763833693725,0.5531991673412444,80.38985357230085,0.0
1707,-6.510016197267078,0.33628272939315246,81.08595586434642,0.0
1708,-6.639469273059174,0.20193293195776152,81.84143222506394,0.0
1709,-6.712188837450011,0.12240967199140806,82.65557337670201,0.0
1710,-6.757734850043561,0.06754394076509107,83.52769150825972,0.0
1711,-6.806377263220286,0.00852122577316039,84.45709101406243,0.0
1712,-6.884998000740304,-0.07877980294479292,85.44303797468353,0.0
1713,-7.013422415012501,-0.21121061462586976,86.48472800696932,0.0
1714,-7.201875083001546,-0.3968015065177478,87.58125213821417,0.0
1715,-7.450011288040004,-0.6344029823000057,88.73156039237271,0.0
1716,-7.747631638119291,-0.9145516635166491,89.93442281669616,0.0
1717,-8.076852210289704,-1.2214332765417015,91.18838772875017,0.0
1718,-8.415261763934673,-1.5356566625990646,92.49173703014813,0.0
1719,-8.739490959507123,-1.8374223193359462,93.84243851857383,0.0
1720,-9.02863840960549,-2.1095912909669443,95.23809523809526,0.0
1721,-9.267101963167393,-2.340152780639559,96.67589204385521,0.0
1722,-9.446494483044848,-2.523659680277215,98.15253972536601,0.0
1723,-9.566435283478674,-2.661347753543001,99.6642172368485,0.0
1724,-9.634085226403545,-2.759862840849267,101.20651282651986,0.0
1725,-9.662358859674384,-2.8287661963108213,102.77436514117163,0.0
1726,-9.666855726521982,-2.877235022861304,104.36200570729719,0.0
1727,-9.661759687921554,-2.9105790552930837,105.96290455175216,0.0
1728,-9.655268630727695,-2.9273074786579687,107.56972111553786,0.0
1729,-9.645466387661802,-2.917463112413366,109.17426302041687,0.0
1730,-9.617789312264208,-2.8627710150250865,110.76745564974921,0.0
1731,-9.545206018584667,-2.7388351836950666,112.33932587465439,0.0
1732,-9.39181078158245,-2.5192053370582626,113.87900355871886,0.0
1733,-9.119741219070933,-2.180705308489225,115.37474466535777,0.0
1734,-8.698331421333037,-1.709064542056227,116.81397982119623,0.0
1735,-8.113495316971237,-1.10371973065651,118.18339200184661,0.0
1736,-7.374851556741061,-0.3807182107255763,119.46902654867259,0.0
1737,-6.518332560404227,0.42703290859682985,120.65643594818162,0.0
1738,-5.6030354990981674,1.2724232632559285,121.73086067522587,0.0
1739,-4.702634136103911,2.0993664668456695,122.67744590598191,0.0
1740,-3.893270773199383,2.8497335115505864,123.48149206802918,0.0
1741,-3.2408997834741857,3.470782907725838,124.12873507485301,0.0
1742,-2.791152894992081,3.92179885542797,124.60564979899408,0.0
1743,-2.5639136869691592,4.1788457575072036,124.89976802650867,0.0
1744,-2.553290419218439,4.236959937721039,125.0,1.0
1745,-2.7321457756109795,4.109616042777114,124.98031051503898,0.0
1746,-3.0593111633940837,3.8257990694478745,124.92222711200813,0.0
1747,-3.4873459700177745,3.4253770994626165,124.82727639756853,0.0
1748,-3.9691340877018204,2.9536459207658847,124.69704314105671,0.0
1749,-4.462440823548031,2.4559020972524377,124.53316137913819,0.0
1750,-4.932410911398773,1.972739589251514,124.33730572295983,0.0
1751,-5.352573948207375,1.536525388174257,124.11118293471235,0.0
1752,-5.705096048019042,1.1692605032377494,123.85652383245066,0.0
1753,-5.980813501008016,0.8818236415185192,123.57507557376958,0.0
1754,-6.179185336316402,0.6744483263740232,123.26859436067146,0.0
1755,-6.307941132137625,0.5381978872072173,122.93883859983835,0.0
1756,-6.38205902791707,0.4571606626496375,122.58756254467477,0.0
1757,-6.421837164995422,0.41107205174851646,122.21651043802785,0.0
1758,-6.450133537058688,0.3780698043608804,121.8274111675127,0.0
1759,-6.48918185325151,0.33730266563154054,121.42197343894331,0.0
1760,-6.55759067890114,0.27114484457468063,121.00188146754469,0.0
1761,-6.668119449149069,0.16682437297285296,120.56879118142989,0.0
1762,-6.8266121325142635,0.017351225020891703,120.12432692728626,0.0
1763,-7.032146654713486,-0.17827785248264627,119.67007866432378,0.0
1764,-7.278147477847292,-0.4155314486929885,119.20759962928638,0.0
1765,-7.554017298411449,-0.6853145805782448,118.73840445269015,0.0
1766,-7.846827221321167,-0.9752788191308608,118.26396770439753,0.0
1767,-8.142748383538322,-1.271282971674664,117.785722845129,0.0
1768,-8.428133547354934,-1.5588362271501364,117.30506155950751,0.0
1769,-8.690354488287308,-1.824394669894783,116.82333344568166,0.0
1770,-8.91857688296458,-2.056427880919565,116.34184603643456,0.0
1771,-9.104579551059853,-2.246215465645903,115.86186512690863,0.0
1772,-9.243553182666405,-2.38836826869157,115.38461538461539,0.0
1773,-9.334656204817493,-2.4810935413094213,114.91128121821033,0.0
1774,-9.381068263373889,-2.5262363800722394,114.44300788255411,0.0
1775,-9.38940390947114,-2.5291298445464063,113.98090279881131,0.0
1776,-9.368579842650378,-2.498271623545095,113.52603706972637,0.0
1777,-9.328455894952997,-2.444816715308454,113.079447171726,0.0
1778,-9.278674362772552,-2.381839989656151,112.64213680710442,0.0
1779,-9.228033178519805,-2.323294275230975,112.21507890122733,0.0
1780,-9.184454536197153,-2.282589387567684,111.79921773142111,0.0
1781,-9.155247699446056,-2.2707654397049692,111.39547117598202,0.0
1782,-9.147073097063831,-2.2943396944679106,111.00473307353117,0.0
1783,-9.164963297634614,-2.353060039752487,110.62787568474683,0.0
1784,-9.210044321408605,-2.43796515987965,110.26575225032147,0.0
1785,-9.276191483931422,-2.530276288712405,109.9191996408131,0.0
1786,-9.346560792845777,-2.601666067912182,109.5890410958904,0.0
1787,-9.391476040729877,-2.6163190120142494,109.27608905231332,0.0
1788,-9.369243864744186,-2.534904334277233,108.9811480618513,0.0
1789,-9.230950121456434,-2.3201650740346924,108.70501780222936,0.0
1790,-8.929196842002744,-1.9433773970665262,108.44849618612248,0.0
1791,-8.429339356413546,-1.3905719846421523,108.21238257520362,0.0
1792,-7.720540431890822,-0.6672550222068653,107.99748110831236,0.0
1793,-6.823394029619266,0.19950209507475947,107.8046041549691,0.0
1794,-5.7913547089212205,1.1623116135448983,107.63457590774176,0.0
1795,-4.704746372227267,2.1581264884421945,107.48823612940502,0.0
1796,-3.6582742829781614,3.115670547975359,107.36644407345574,0.0
1797,-2.744966581351718,3.9644110449714898,107.27008259939699,0.0
1798,-2.0405648625517685,4.6435106400762125,107.20006250732507,0.0
1799,-1.592157562373613,5.109212099534688,107.15732711980513,0.0
1800,-1.4134322523673262,5.339464231726277,107.14285714285714,1.0
1801,-1.4868958968218104,5.335192152174359,107.14438937886923,0.0
1802,-1.7715228128079574,5.118291423593135,107.14896974715231,0.0
1803,-2.2131292555236866,4.727017307641381,107.15657412198225,0.0
1804,-2.754585984749669,4.209819179109297,107.16717887852498,0.0
1805,-3.3436546519980115,3.6187782490181144,107.18076087937024,0.0
1806,-3.9374140703483813,3.0036637353609823,107.1972974613716,0.0
1807,-4.5034762272798,2.407308789804794,107.21676642278204,0.0
1808,-5.019074819274657,1.8626313391304488,107.2391460106734,0.0
1809,-5.4694054554817395,1.3912875384703307,107.2644149086294,0.0
1810,-5.846309954307707,1.0037130705623336,107.29255222470202,0.0
1811,-6.147751802922393,0.700200324015524,107.32353747962092,0.0
1812,-6.377859826686386,0.472657186158207,107.35735059524667,0.0
1813,-6.546912330928243,0.30675208987523683,107.39397188325823,0.0
1814,-6.670622971981469,0.1842239166484123,107.43338203406596,0.0
1815,-6.768411071824539,0.08519229563848785,107.47556210594085,0.0
1816,-6.860801055188457,-0.009667111592610134,107.52049351435248,0.0
1817,-6.966479190318318,-0.11720891728764782,107.56815802150648,0.0
1818,-7.099689319051196,-0.2502869021876144,107.61853772607466,0.0
1819,-7.268537569758887,-0.41670860161002754,107.67161505310902,0.0
1820,-7.474474872679221,-0.618741788250404,107.72737274413312,0.0
1821,-7.712875434775332,-0.8531872537285607,107.78579384740328,0.0
1822,-7.974368866495702,-1.1119771159830742,107.84686170833248,0.0
1823,-8.24649518155293,-1.3832121438671137,107.9105599600704,0.0
1824,-8.515330858157514,-1.6525235598111245,107.9768725142329,0.0
1825,-8.766903062192853,-1.904635142887198,108.04578355177465,0.0
1826,-8.988366690512631,-2.1250039361534006,108.11727751399876,0.0
1827,-9.168997038680232,-2.3014227501252513,108.19133909369711,0.0
1828,-9.301044540462083,-2.425466460453647,108.26795322641591,0.0
1829,-9.380450261839854,-2.4936535458352393,108.34710508184077,0.0
1830,-9.407379523239081,-2.5081784008571573,108.42878005529518,0.0
1831,-9.386513254729083,-2.477059652561233,108.51296375934831,0.0
1832,-9.32702696551075,-2.4135603999138278,108.59964201552519,0.0
