,PPG_Raw,PPG_Clean,PPG_Rate,PPG_Peaks
0,-0.02465410477730901,-0.004259197325994829,111.2870391314182,0.0
1,-0.028944491725625056,-0.007731204943212952,111.2870391314182,0.0
2,-0.032950241034639303,-0.011050218652793944,111.2870391314182,0.0
3,-0.03646916254150171,-0.014091325184654644,111.2870391314182,0.0
4,-0.039396189518285225,-0.016780882761827702,111.2870391314182,0.0
5,-0.041741552300611454,-0.019106174176222752,111.2870391314182,0.0
6,-0.04362127482234765,-0.021110216754409352,111.2870391314182,0.0
7,-0.04522212491653985,-0.02287309601748946,111.2870391314182,0.0
8,-0.04674939229344314,-0.02448450151073981,111.2870391314182,0.0
9,-0.04837012581340989,-0.02601431736590975,111.2870391314182,0.0
10,-0.0501657316033926,-0.027488637917850587,111.2870391314182,0.0
11,-0.052105730042175044,-0.028877310028183896,111.2870391314182,0.0
12,-0.05404945555580927,-0.030096343351185013,111.2870391314182,0.0
13,-0.05577583324240011,-0.03102493219087342,111.2870391314182,0.0
14,-0.05703473041759465,-0.03153326029632408,111.2870391314182,0.0
15,-0.05760821662212864,-0.031514578940196554,111.2870391314182,0.0
16,-0.05736735340402078,-0.03091391948468746,111.2870391314182,0.0
17,-0.05631045870354786,-0.029746515096799177,111.2870391314182,0.0
18,-0.05457243033962258,-0.028101404029238487,111.2870391314182,0.0
19,-0.05240141340538152,-0.02612919051515864,111.2870391314182,0.0
20,-0.05010761843481674,-0.024016686450497322,111.2870391314182,0.0
21,-0.04799709088325501,-0.02195421666328005,111.2870391314182,0.0
22,-0.04630788098243709,-0.020102984927089104,111.2870391314182,0.0
23,-0.04516536704213227,-0.018569684349062407,111.2870391314182,0.0
24,-0.044567434063645606,-0.01739358823099986,111.2870391314182,0.0
25,-0.044400996883888946,-0.016548214065014524,111.2870391314182,0.0
26,-0.044482400331337935,-0.015956139520631123,111.2870391314182,0.0
27,-0.0446085754423141,-0.015512546847892073,111.2870391314182,0.0
28,-0.044604892393208646,-0.015111286174858964,111.2870391314182,0.0
29,-0.04435887451608604,-0.014667041165297044,111.2870391314182,0.0
30,-0.04383439774320541,-0.014128512841257235,111.2870391314182,0.0
31,-0.04306645249893577,-0.013480015847277217,111.2870391314182,0.0
32,-0.0421403947083651,-0.01273188391518442,111.2870391314182,0.0
33,-0.041161402311964926,-0.01190291177175667,111.2870391314182,0.0
34,-0.04022016635567898,-0.011000093633640434,111.2870391314182,0.0
35,-0.039360730700548345,-0.010001708706220276,111.2870391314182,0.0
36,-0.03855659154472981,-0.00884915787718819,111.2870391314182,0.0
37,-0.03770150665221705,-0.0074509655418882655,111.2870391314182,0.0
38,-0.03662082457164273,-0.0056994058938426425,111.2870391314182,0.0
39,-0.03510612672894074,-0.0034969192759760903,111.2870391314182,0.0
40,-0.03296996175954916,-0.0007866242320486092,111.2870391314182,0.0
41,-0.030109516127779654,0.002420433741770974,111.2870391314182,0.0
42,-0.026561230051532474,0.006028575594988789,111.2870391314182,0.0
43,-0.022526614374686352,0.009856631572738785,111.2870391314182,0.0
44,-0.018355528457876136,0.013654742689048299,111.2870391314182,0.0
45,-0.014486124997532903,0.017136443723342654,111.2870391314182,0.0
46,-0.01135590566981867,0.020019884064608737,111.2870391314182,0.0
47,-0.009309398979658398,0.0220697488955297,111.2870391314182,0.0
48,-0.008529851356903064,0.023131282037581392,111.2870391314182,0.0
49,-0.00901401054184905,0.023149823620981946,111.2870391314182,1.0
50,-0.010594042463835355,0.022172858915158532,112.0306988689747,0.0
51,-0.012995069667594736,0.020335682129793413,112.78020270286903,0.0
52,-0.015906821470928194,0.017835263271981004,113.5351148445679,0.0
53,-0.019046718364014708,0.014898884290122458,114.29497382985353,0.0
54,-0.022198642684767768,0.011754218467830087,115.05929163390813,0.0
55,-0.025222713168791357,0.008605980531826566,115.82755280888784,0.0
56,-0.028041644769217427,0.005621737375727877,116.59921364996333,0.0
57,-0.030615184408104144,0.0029267905389826557,117.37370139629192,0.0
58,-0.03291470113816698,0.0006059756799639588,118.15041347388323,0.0
59,-0.03490658536760923,-0.0012907791316589432,118.92871678781765,0.0
60,-0.0365480248128939,-0.002742171033683863,119.70794707176977,0.0
61,-0.037794077050378724,-0.0037505727875744334,120.48740830327692,0.0
62,-0.03861188174800178,-0.004339111918719176,121.26637219366094,0.0
63,-0.038996503005933505,-0.004550230553694341,122.04407776195944,0.0
64,-0.03898292581318951,-0.004444431197213837,122.81973100264005,0.0
65,-0.038649853128195306,-0.004097832365016886,123.59250465724719,0.0
66,-0.038113055083536906,-0.003597676780054329,124.36153810045982,0.0
67,-0.037508902383482555,-0.0030358000757216732,125.12593735130655,0.0
68,-0.03697172501210897,-0.002500931397273774,125.8847752204824,0.0
69,-0.0366107623023928,-0.0020712316506838924,126.6370916048286,0.0
70,-0.03649284842673428,-0.001808479494683467,127.38189394005708,0.0
71,-0.0366354043362733,-0.0017547805284626966,128.11815782271952,0.0
72,-0.03701131406273194,-0.001931790213822704,128.84482781221598,0.0
73,-0.03756378738712156,-0.002341534768490347,129.56081842330602,0.0
74,-0.038226313987920375,-0.00296734979654272,130.26501531910787,0.0
75,-0.03894107904335625,-0.003773507063524395,130.95627671394067,0.0
76,-0.03966926463410661,-0.004702843027879112,131.63343499456838,0.0
77,-0.0403887090476229,-0.005672966900385618,132.29529856743486,0.0
78,-0.04107822874363851,-0.006573012516839706,132.94065393832705,0.0
79,-0.04169281673377123,-0.007263882641937154,133.56826802956422,0.0
80,-0.04213865580781001,-0.007585026847014139,134.17689073828072,0.0
81,-0.04225970865291602,-0.0073697192997698325,134.76525773764794,0.0
82,-0.041846811950127114,-0.00646864048938524,135.33209352097018,0.0
83,-0.04067469960408904,-0.0047787987834410385,135.8761146864947,0.0
84,-0.038562861373035995,-0.0022722519266240716,136.39603345851006,0.0
85,-0.03544537979301592,0.0009823958394046973,136.89056143787957,0.0
86,-0.03142722241960377,0.004812432977240507,137.35841357258965,0.0
87,-0.026804112902412042,0.008951786680031519,137.79831233620777,0.0
88,-0.022031913994652833,0.013070473735943186,138.20899209936925,0.0
89,-0.017647345679219297,0.016818533484329337,138.58920367657626,0.0
90,-0.014159100821535207,0.01987625781119277,138.9377190277372,0.0
91,-0.011940012513714817,0.022000454683118047,139.25333609103427,0.0
92,-0.011151926498335253,0.02305701769834012,139.53488372093022,1.0
93,-0.011724789679347553,0.023033189937476984,139.79817759232995,0.0
94,-0.013394130134923425,0.022027784873410977,140.05965452588302,0.0
95,-0.015783049982406087,0.020222895965669167,140.31909919262944,0.0
96,-0.018502288071792224,0.0178448089606894,140.57629351040197,0.0
97,-0.02123853979970204,0.01512379194865044,140.83101669571215,0.0
98,-0.02380733759531492,0.012261731005311203,141.08304532309538,0.0
99,-0.026159675330281452,0.00941355712619344,141.33215339210872,0.0
100,-0.02834667577858759,0.00668408227185747,141.57811240216827,0.0
101,-0.030459100736834655,0.004137551938935609,141.82069143540343,0.0
102,-0.032564628484213556,0.0018141475835659823,142.05965724769737,0.0
103,-0.034664027299163125,-0.0002534089383566737,142.29477436807065,0.0
104,-0.03667882232265614,-0.0020289788116336924,142.52580520655422,0.0
105,-0.038471269318668254,-0.003471087034668356,142.75251017068322,0.0
106,-0.03988679180088019,-0.004539930156036918,142.974647790729,0.0
107,-0.040802989685983955,-0.005210372669376501,143.19197485377077,0.0
108,-0.04116920742550218,-0.005486227833833904,143.4042465466901,0.0
109,-0.04102548275868683,-0.0054108598598619434,143.61121660815274,0.0
110,-0.04049708966221112,-0.005070284505569622,143.81263748962252,0.0
111,-0.03976822326035046,-0.004587003727603279,144.0082605254293,0.0
112,-0.039043652268677606,-0.004105131519847677,144.1978361118908,0.0
113,-0.03850927988416661,-0.0037693392504594943,144.381113895463,0.0
114,-0.03830125326306463,-0.003701365786618771,144.55784296986846,0.0
115,-0.03848913867231414,-0.003978176975053659,144.72777208212457,0.0
116,-0.03907321778978351,-0.004615444307702893,144.89064984736558,0.0
117,-0.039991290040105675,-0.005559104986945362,145.0462249723228,0.0
118,-0.041128498005885986,-0.006686630081990849,145.19424648729634,0.0
119,-0.04232550315728426,-0.007818433285734644,145.33446398642104,0.0
120,-0.043384921434727546,-0.0087386487054621,145.4666278759957,0.0
121,-0.0440808070966025,-0.009223276093077057,145.5904896306118,0.0
122,-0.044178167121140074,-0.009072457266407681,145.70580205678422,0.0
123,-0.04346699033818662,-0.008142555513853678,145.81231956375063,0.0
124,-0.04180831612176667,-0.0063730499600115195,145.90979844107258,0.0
125,-0.039181301905165,-0.003803377441276402,145.9979971426343,0.0
126,-0.035714596538671435,-0.0005760034102730615,146.07667657660116,0.0
127,-0.03168656273303589,0.0030758361320885417,146.14560040086303,0.0
128,-0.02748795262297567,0.0068544731747993606,146.2045353234526,0.0
129,-0.02355421628875278,0.010434182528987195,146.25325140739477,0.0
130,-0.020286430302682353,0.01350151621913985,146.29152237940698,0.0
131,-0.017984011891206637,0.01579283558648707,146.31912594183882,0.0
132,-0.016806952512645433,0.017123137923647877,146.33584408720486,0.0
133,-0.01677328966550374,0.017402405927927873,146.34146341463415,1.0
134,-0.01778500915328926,0.016638471303068735,146.28456060635193,0.0
135,-0.019668044394899806,0.014927997278904766,146.11662563364078,0.0
136,-0.022211660800594668,0.012438992683217687,145.8421703559864,0.0
137,-0.025197623196687523,0.009388937246389482,145.466123903719,0.0
138,-0.02841641544362981,0.00602217180210112,144.99376698190014,0.0
139,-0.03167304713890762,0.0025890459312883744,144.43066593943308,0.0
140,-0.03478721149216987,-0.0006720714003752492,143.78260783727262,0.0
141,-0.03759231446128471,-0.003549941745651309,143.05553761084187,0.0
142,-0.03993665668670356,-0.005873341554726023,142.25549826443165,0.0
143,-0.041688919939826576,-0.0075221386149005275,141.38857486762402,0.0
144,-0.0427491518581047,-0.008436379119939566,140.46084295317962,0.0
145,-0.043064960526134184,-0.00862236050700775,139.4783217489383,0.0
146,-0.04265009866038664,-0.00815401183119735,138.44693251854935,0.0
147,-0.04159955196276561,-0.00716779223591916,137.37246214148914,0.0
148,-0.04009330780158783,-0.005849943570407654,136.2605319348084,0.0
149,-0.03838206731030828,-0.0044162515603441855,135.1165716091955,0.0
150,-0.03675299407504146,-0.0030861839761123604,133.9457981610122,0.0
151,-0.03548078060031391,-0.002054902580433794,132.7531994298348,0.0
152,-0.03477577042670704,-0.0014676658902283328,131.5435219968935,0.0
153,-0.03474344352700414,-0.0014011633291390667,130.32126306228358,0.0
154,-0.03536684547150303,-0.0018552369382216867,129.09066591619722,0.0
155,-0.0365165935572195,-0.0027564758924090416,127.85571860975591,0.0
156,-0.037984760053709876,-0.003972807030746306,126.62015543227808,0.0
157,-0.0395322920358907,-0.005336066618049474,125.3874608119877,0.0
158,-0.04093673066150195,-0.00666816546410517,124.16087527433692,0.0
159,-0.042028368173231107,-0.007806153279176236,122.94340311452002,0.0
160,-0.04270778561077193,-0.008622232742322856,121.7378214668204,0.0
161,-0.042944176987319053,-0.0090362644530859,120.54669048179431,0.0
162,-0.04275980787379054,-0.009020068006228767,119.3723643517972,0.0
163,-0.042209390096909626,-0.008594385809468117,118.21700295506486,0.0
164,-0.041362956580449466,-0.007820403610184589,117.08258391771345,0.0
165,-0.04029726627044776,-0.006788108822192639,115.97091492106037,0.0
166,-0.03909555005692315,-0.005603623200943621,114.88364610816788,0.0
167,-0.03785094568349387,-0.004377205040298459,113.82228246820463,0.0
168,-0.03666728607465556,-0.0032131156396966306,112.78819609993474,0.0
169,-0.035652660314416766,-0.0022021231306094493,111.78263827631517,0.0
170,-0.03490537516247029,-0.0014170730000533844,110.80675125080944,0.0
171,-0.03449650487455037,-0.0009115882820580684,109.8615797626743,0.0
172,-0.03445592299162278,-0.0007214674940428135,108.94808221324875,0.0
173,-0.034768242065561325,-0.0008677151520862104,108.06714149831208,0.0
174,-0.035381539588223244,-0.0013595106585806748,107.21957549303286,0.0
175,-0.03622652678067268,-0.0021950689408183105,106.40614719608445,0.0
176,-0.03723902571256632,-0.003358571682703453,105.62757454832483,0.0
177,-0.038376229183342915,-0.004812337050343293,104.88453994922149,0.0
178,-0.039618344855213546,-0.0064850883623200194,104.17769950112147,0.0
179,-0.04095177834442119,-0.008259214293559686,103.5076920177109,0.0
180,-0.04233675497516229,-0.009961668570159569,102.87514783874987,0.0
181,-0.04366922370161212,-0.011363928308827988,102.28069749859203,0.0
182,-0.04475179170179406,-0.012195651167617456,101.72498030127306,0.0
183,-0.045289334461648845,-0.012174151367132163,101.20865286026441,0.0
184,-0.04492060804035465,-0.011047891140569501,100.73239766651102,0.0
185,-0.043287731791211106,-0.008647729041761913,100.29693175430263,0.0
186,-0.04013262323157616,-0.004935912266224536,99.90301554106082,0.0
187,-0.03539700033258868,-4.101233368339948e-05,99.55146192448208,0.0
188,-0.0292952149395161,0.005731918703896914,99.24314572889735,0.0
189,-0.022331197198707048,0.011922566369443124,98.97901360246834,0.0
190,-0.015243630032386444,0.017968061264225663,98.76009447824671,0.0
191,-0.008884176674511137,0.02327994359675223,98.58751072554682,0.0
192,-0.004055200751362731,0.02733184117943571,98.46249013394838,0.0
193,-0.0013478128999578553,0.029740826653802874,98.38637889107537,0.0
194,-0.0010227139611978455,0.030325868103821676,98.36065573770492,1.0
195,-0.0029646802616476614,0.029131257763106717,98.39683233449034,0.0
196,-0.006720978679848601,0.026410379181626992,98.50338639277008,0.0
197,-0.011611414545050954,0.02257380458236577,98.67756109953575,0.0
198,-0.016879860771543735,0.01811333572932178,98.9168436598567,0.0
199,-0.021848565503843835,0.013518334849597193,99.21892883298405,0.0
200,-0.026038724647685873,0.009201452426728108,99.58168564452033,0.0
201,-0.02923212616390961,0.005447622857245002,100.0031266575675,0.0
202,-0.03146538037841645,0.0023939682544078748,100.4813792770306,0.0
203,-0.03296573375173857,4.073583417970716e-05,101.01465863688331,0.0
204,-0.03405136035809047,-0.0017134743242358166,101.60124168369886,0.0
205,-0.03502601950586756,-0.0030235275642188026,102.2394421239721,0.0
206,-0.036096464916868416,-0.00404935279524463,102.92758595008263,0.0
207,-0.03733171239259268,-0.004918234189280477,103.66398730218246,0.0
208,-0.0386693364017291,-0.005704482400690468,104.44692446257824,0.0
209,-0.0399599686507662,-0.006427888216631786,105.27461581684837,0.0
210,-0.041031453009839694,-0.00706750300455533,106.14519565337537,0.0
211,-0.041751107875801545,-0.007584050550915173,107.05668971144156,0.0
212,-0.04206816476354983,-0.00794326857706081,108.00699042869077,0.0
213,-0.04202661162617487,-0.008133638863306035,108.99383188266837,0.0
214,-0.04174841802346697,-0.008174645325568532,110.01476446927146,0.0
215,-0.04139560970331608,-0.008114924714069372,111.06712941410987,0.0
216,-0.04112475958100196,-0.008022459578368266,112.1480332716699,0.0
217,-0.041048106433409684,-0.007970596480971008,113.25432263224135,0.0
218,-0.041211898915061045,-0.00802389029775426,114.38255932800122,0.0
219,-0.04159608974583047,-0.008226784619795462,115.52899650724923,0.0
220,-0.042132355987468825,-0.008596495915494525,116.68955602892328,0.0
221,-0.042731859873721606,-0.009119866367044295,117.85980771696127,0.0
222,-0.04331180680633188,-0.009752972004956104,119.0349511039262,0.0
223,-0.04381120655206475,-0.010422207966761906,120.20980038286608,0.0
224,-0.04419065306927351,-0.011026331698029364,121.37877337204867,0.0
225,-0.04441695478264431,-0.011440104682321511,122.53588537441381,0.0
226,-0.04443931147199666,-0.011521134423557889,123.67474887675903,0.0
227,-0.04416778460109759,-0.011121723932794411,124.78858007627777,0.0
228,-0.043465725257576575,-0.010106683928124548,125.8702132367457,0.0
229,-0.042164849841301366,-0.008376244260483747,126.91212385544468,0.0
230,-0.04010491167322262,-0.005890912558171004,127.90646155668097,0.0
231,-0.03719077281435677,-0.0026931445401421872,128.84509351067092,0.0
232,-0.03345087660583732,0.0010801771643788546,129.71965900083828,0.0
233,-0.029076289468924748,0.005199650268622049,130.5216355232395,0.0
234,-0.024421776486750583,0.009362283027182986,131.2424164967334,0.0
235,-0.019960575310943744,0.013226286022877896,131.87340029320126,0.0
236,-0.016199764925441625,0.016456513766234974,132.40608986981405,0.0
237,-0.013577558444137964,0.018772225853657346,132.83220181161747,0.0
238,-0.012371419624801165,0.019987650579057648,133.14378308993025,0.0
239,-0.01264341581645053,0.02003704926840315,133.33333333333334,1.0
240,-0.014237748491251782,0.018979357297351382,133.45847528854767,0.0
241,-0.016829366314890022,0.0169821208091796,133.58152982865934,0.0
242,-0.020007556558678283,0.014289076898721028,133.70245823812309,0.0
243,-0.02336916363629899,0.011179078065363123,133.8212217876063,0.0
244,-0.026595199807561157,0.007925285904464206,133.93778174505542,0.0
245,-0.029491972302403056,0.00476245789410556,134.05209938697652,0.0
246,-0.031990668149095555,0.0018672142518590378,134.16413600992755,0.0
247,-0.034113016248128035,-0.0006476162282231918,134.27385294221867,0.0
248,-0.03592039570087199,-0.002726969152622467,134.38121155581737,0.0
249,-0.037466454358689893,-0.004360502699388686,134.4861732784549,0.0
250,-0.03876872043405398,-0.005567785293326513,134.58869960592958,0.0
251,-0.03980544693755523,-0.0063859480401071405,134.68875211460298,0.0
252,-0.040534078142716326,-0.006862012219719101,134.7862924740846,0.0
253,-0.040920833313716876,-0.007049862289871686,134.88128246010015,0.0
254,-0.04096868853419375,-0.007010128174139881,134.9736839675379,0.0
255,-0.040733226209215385,-0.006810531233413909,135.0634590236689,0.0
256,-0.040320885813744815,-0.006524604787693507,135.15056980153435,0.0
257,-0.03987020228728739,-0.006227823374819281,135.23497863349436,0.0
258,-0.03952195021031388,-0.005991540639508237,135.31664802493322,0.0
259,-0.03938740106762237,-0.005876193412150564,135.3955406681126,0.0
260,-0.03952435870120747,-0.005925592814313381,135.4716194561681,0.0
261,-0.03992817069760766,-0.006163692691053265,135.54484749724062,0.0
262,-0.04054019608203743,-0.006594210298559284,135.6151881287363,0.0
263,-0.04127057993392785,-0.0072023084491749274,135.68260493170655,0.0
264,-0.042027353896353696,-0.007956732875849162,135.74706174534174,0.0
265,-0.04274147881316091,-0.008810715587899486,135.8085226815688,0.0
266,-0.043378473032946285,-0.009700718351493299,135.8669521397461,0.0
267,-0.04393165182152404,-0.010543482513331806,135.92231482144544,0.0
268,-0.0443985070233345,-0.011233373057845008,135.97457574531379,0.0
269,-0.0447483687568369,-0.01164303041058881,136.0237002620047,0.0
270,-0.04489406188230801,-0.011630337431791411,136.06965406917038,0.0
271,-0.04468111120132868,-0.011053435805284645,136.11240322650488,0.0
272,-0.043904337856142124,-0.00979318136792005,136.15191417082866,0.0
273,-0.042353734163651194,-0.0077796356670517515,136.18815373120438,0.0
274,-0.0398809771827957,-0.005016848163342958,136.22108914407397,0.0
275,-0.03646795603958011,-0.0015991849718305431,136.2506880684058,0.0
276,-0.03227331184247197,0.0022866179577230757,136.27691860084244,0.0
277,-0.02763580206906349,0.006376650019284932,136.2997492908371,0.0
278,-0.02302527168830072,0.010361110153926201,136.31914915576846,0.0
279,-0.018949933544168105,0.013926257805484829,136.3350876960221,0.0
280,-0.0158456652412443,0.016798527409461236,136.3475349100278,0.0
281,-0.01398156452791898,0.018781434846447603,136.3564613092406,0.0
282,-0.013411728775479945,0.019777617635451245,136.36183793305446,0.0
283,-0.013987408065100381,0.01979218876611555,136.36363636363637,1.0
284,-0.015422641399099005,0.01891839116488455,136.35118982084123,0.0
285,-0.017388550956447178,0.017310844429651764,136.3145797154221,0.0
286,-0.019603324902124592,0.015154192124924996,136.25491785941688,0.0
287,-0.021889084947328614,0.01263502087768139,136.1733363995422,0.0
288,-0.02418106937006257,0.009922692812749934,136.07098413577697,0.0
289,-0.02649302316759355,0.007161108006583475,135.94902299011116,0.0
290,-0.028858235876590387,0.004469682977175152,135.80862464057822,0.0
291,-0.031272588828305234,0.0019492132009677368,135.65096733338967,0.0
292,-0.033662225440775156,-0.0003124782274277803,135.47723288374917,0.0
293,-0.03588646580403982,-0.002239067518560096,135.28860387376557,0.0
294,-0.03777200002001654,-0.0037699497602053005,135.0862610538341,0.0
295,-0.03916329804529624,-0.004868888644735817,134.87138095192734,0.0
296,-0.03997027313994631,-0.0055337079021126915,134.64513369344584,0.0
297,-0.04019759878498145,-0.005802838842120944,134.4086810326376,0.0
298,-0.03994792129942538,-0.005755247821231092,134.1631745951067,0.0
299,-0.03939988077868346,-0.005502164166062054,133.90975432960641,0.0
300,-0.03876859291005117,-0.00517145320718428,133.64954716614378,0.0
301,-0.03825982311931993,-0.004887668109170649,133.38366587642005,0.0
302,-0.03802942524733724,-0.0047521375627160726,133.1132081317828,0.0
303,-0.03815718467447134,-0.004827569305338907,132.83925575317332,0.0
304,-0.03863977714764006,-0.005130591859177063,132.56287414700708,0.0
305,-0.039402314720182234,-0.005633748885391137,132.28511192052082,0.0
306,-0.04032341564607791,-0.0062762220393179635,132.00700066984857,0.0
307,-0.04126622842144428,-0.006980546943136139,131.72955493394258,0.0
308,-0.04210784155155696,-0.007671260193553399,131.4537723074248,0.0
309,-0.0427614541462494,-0.008291038828394794,131.18063370553313,0.0
310,-0.04318838538958377,-0.008810510498538988,130.91110377450283,0.0
311,-0.04339936440543283,-0.009229365281311252,130.64613144099198,0.0
312,-0.043446024362480164,-0.009568384510176489,130.38665059451137,0.0
313,-0.04340420305998667,-0.009854130731229762,130.1335808972465,0.0
314,-0.04335102122802673,-0.010099903873988483,129.88782871615726,0.0
315,-0.04333838840078185,-0.010287777539387298,129.6502881728021,0.0
316,-0.04336696322829744,-0.010356781612208267,129.42184230695474,0.0
317,-0.04336645864344217,-0.010201427726865055,129.20336435075797,0.0
318,-0.043189560124490566,-0.009682817588450195,128.99571911088876,0.0
319,-0.04262618750920216,-0.008651812913835606,128.79976445698983,0.0
320,-0.041441236437464696,-0.006980710653806711,128.61635291545306,0.0
321,-0.03943227032331108,-0.0045972668563385305,128.44633336852385,0.0
322,-0.0364954864741689,-0.0015134811811050677,128.2905528596298,0.0
323,-0.032681650501115746,0.0021581582143129913,128.14985850682945,0.0
324,-0.028222040746997013,0.006206104027599987,128.0250995273287,0.0
325,-0.023510120758257404,0.010340302089098856,127.91712937713149,0.0
326,-0.019037269193895305,0.014228957851153492,127.82680801108572,0.0
327,-0.015296584266478305,0.017544718690866542,127.75500426986183,0.0
328,-0.01268131602045884,0.0200111483473413,127.70259840177516,0.0
329,-0.011408064076079328,0.021440304008169108,127.67048472884434,0.0
330,-0.011487199198886647,0.021754461727954217,127.65957446808511,1.0
331,-0.012746675185072219,0.020988921305741575,127.66863235202109,0.0
332,-0.014897069524479181,0.019277218200105382,127.695362457284,0.0
333,-0.017612824711161757,0.01682372812553661,127.73910963457016,0.0
334,-0.020602228692709296,0.01387062317418712,127.79923087115863,0.0
335,-0.02364689756981464,0.010666075415589713,127.8750935851553,0.0
336,-0.026605973462287113,0.007438815686495395,127.9660740034401,0.0
337,-0.029394191695221367,0.004381443836727028,128.07155561752197,0.0
338,-0.031950724340766484,0.0016422199104378365,128.1909277122222,0.0
339,-0.03421516432965418,-0.0006767678624779029,128.32358396277,0.0
340,-0.036120056911988226,-0.0025177892614845895,128.46892109651338,0.0
341,-0.03760026501229751,-0.003864260675877764,128.62633761602464,0.0
342,-0.03861234951908928,-0.004737243275206283,128.79523258092323,0.0
343,-0.03915431368622639,-0.005191546530340501,128.97500444624842,0.0
344,-0.03927738808539885,-0.005310551083753312,129.16504995569616,0.0
345,-0.03908533350330138,-0.00519877101412256,129.36476308849248,0.0
346,-0.03872104114846351,-0.004971739596350772,129.57353405910888,0.0
347,-0.03834366912644164,-0.004743760519977863,129.79074836943877,0.0
348,-0.03810163309979466,-0.004615036432574419,130.01578591344781,0.0
349,-0.038107419380616486,-0.004660302915546222,130.24802013468633,0.0
350,-0.03841954153478749,-0.004921119577278794,130.48681723740978,0.0
351,-0.03903525420200577,-0.005403351312973038,130.73153545239302,0.0
352,-0.03989525348808607,-0.006080258022619685,130.98152435884882,0.0
353,-0.04089902872627701,-0.006900296696319757,131.23612426416372,0.0
354,-0.041927284284745465,-0.00779759099914421,131.49466564345366,0.0
355,-0.04286632874577988,-0.008702376744894158,131.75646864120705,0.0
356,-0.04362880637363446,-0.009548803355464458,132.0208426375298,0.0
357,-0.044165753254708236,-0.010278293348318555,132.2870858817303,0.0
358,-0.04446668965449064,-0.01083805873479607,132.55448519618145,0.0
359,-0.044547168118164414,-0.011175990429175301,132.82231575356846,0.0
360,-0.044426561657653345,-0.011234518167674906,133.08984093077427,0.0
361,-0.04410228877685453,-0.010946741231129853,133.3563122427661,0.0
362,-0.04352916529952021,-0.010237854181872744,133.62096935992176,0.0
363,-0.042612962961044394,-0.009033589029403688,133.88304021227367,0.0
364,-0.04122458308848887,-0.007275324410382419,134.14174118414658,0.0
365,-0.03923541489837632,-0.004939207551180753,134.3962774026175,0.0
366,-0.03656668325146763,-0.0020547801024899254,134.64584312313457,0.0
367,-0.03323848667570796,0.001282168745786405,134.88962221548707,0.0
368,-0.02940099269332423,0.004907104617386689,135.12678875312267,0.0
369,-0.02533333604098895,0.00859707963727936,135.35650770855494,0.0
370,-0.021405262602790347,0.012093344954358386,135.577935757294,0.0
371,-0.018009461913637573,0.01513259375956643,135.7902221923614,0.0
372,-0.015483603013835017,0.01748091596660545,135.9925099510162,0.0
373,-0.014045387492126136,0.01896379976004906,136.1839367548236,0.0
374,-0.013759442070802074,0.01948651714555764,136.36363636363637,1.0
375,-0.014543529026654343,0.01904165870742166,136.53961806897365,0.0
376,-0.016208120567253525,0.017703678090436353,136.7202170613475,0.0
377,-0.018513111396555385,0.015613136937242054,136.905051263635,0.0
378,-0.021221889576218185,0.01295511814479243,137.0937350224439,0.0
379,-0.024136841081480523,0.009936609196524516,137.28587886023794,0.0
380,-0.027109469826166483,0.006766655348236906,137.4810892477312,0.0
381,-0.03002871651799295,0.0036412684056795434,137.6789683970592,0.0
382,-0.03279867955868979,0.000733171140884436,137.8791140762901,0.0
383,-0.03531921074795163,-0.0018148912761433477,138.08111944589024,0.0
384,-0.03747960049012633,-0.003894972378625323,138.28457291780464,0.0
385,-0.0391687779311808,-0.00543810971837166,138.4890580378551,0.0
386,-0.04029818228248469,-0.00641808545026984,138.69415339219555,0.0
387,-0.04082843272798267,-0.006853910368084634,138.89943253859408,0.0
388,-0.04078956087815224,-0.00680954652263231,139.10446396333825,0.0
389,-0.04028680171767318,-0.006389446330680567,139.30881106457775,0.0
390,-0.03948861863704301,-0.0057292267017518255,139.51203216293206,0.0
391,-0.03859914871285084,-0.004981942464796656,139.7136805401962,0.0
392,-0.03782197030626873,-0.004301563100185247,139.91330450697535,0.0
393,-0.03732466177185234,-0.0038259971630244523,140.1104475000702,0.0
394,-0.037213225208663,-0.003662114518796858,140.3046482104166,0.0
395,-0.03752214027018319,-0.0038746869065339985,140.49544074235644,0.0
396,-0.0382206533525096,-0.004480225225499789,140.6823548049818,0.0
397,-0.03923071342992136,-0.005445691311544256,140.86491593624885,0.0
398,-0.04044863415091772,-0.006691349212136854,141.04264576050312,0.0
399,-0.04176230231971442,-0.008096801110395718,141.21506227999384,0.0
400,-0.043058609940061714,-0.009509511238659655,141.3816802008791,0.0
401,-0.04422064573579822,-0.01075562991562332,141.5420112941372,0.0
402,-0.04511920679927058,-0.011653341596075355,141.6955647917057,0.0
403,-0.045606491296848586,-0.012028952716046454,141.84184781805786,0.0
404,-0.04552010105579857,-0.011735353306105967,141.98036585731313,0.0
405,-0.04470238168955076,-0.010671433367678116,142.11062325584487,0.0
406,-0.04303436927336457,-0.008799861955780326,142.23212376021164,0.0
407,-0.04047683472373528,-0.006159834208197589,142.3443710900874,0.0
408,-0.037105453784851826,-0.0028714093744621715,142.4468695457058,0.0
409,-0.03312553469014654,0.0008708774743793214,142.53912464916476,0.0
410,-0.02885582775448736,0.004815478021439784,142.6206438187591,0.0
411,-0.024680512390976756,0.008680323564791094,142.69093707532232,0.0
412,-0.020980431177997815,0.012184192462252498,142.74951777936482,0.0
413,-0.0180637866174415,0.015077641762268775,142.79590339759656,0.0
414,-0.016117966471607414,0.017168389066024012,142.8296162972165,0.0
415,-0.015196405882357497,0.01833752500503109,142.85018456614225,0.0
416,-0.015240604899307524,0.01854523260716869,142.85714285714286,1.0
417,-0.016124003898626445,0.01782702957095548,142.83329296280493,0.0
418,-0.017697598534109724,0.016283202640108352,142.76253393511558,0.0
419,-0.019819717117803205,0.014064641327877162,142.64611764261625,0.0
420,-0.02236233669587671,0.011357719548268596,142.48537746929458,0.0
421,-0.02519833903182582,0.008369642178502935,142.28172027605558,0.0
422,-0.028182467325220336,0.005314397565429448,142.03661827803919,0.0
423,-0.031140172708875598,0.00239870231584036,141.7516009096033,0.0
424,-0.03387344376219662,-0.00019262381851267675,141.42824674465672,0.0
425,-0.036184337809763545,-0.002311640513785786,141.06817553523257,0.0
426,-0.037909311658108784,-0.0038613025036225842,140.67304042587446,0.0
427,-0.03895343037825399,-0.004806249735489525,140.2445203956938,0.0
428,-0.03931385533143223,-0.005177798297784946,139.7843129739815,0.0
429,-0.03908562246298403,-0.005071073573596711,139.29412726913975,0.0
430,-0.038447802281341294,-0.004633494569855142,138.77567734455525,0.0
431,-0.03763305481743208,-0.004045511948646599,138.23067596896797,0.0
432,-0.03688729289117185,-0.003496163477301733,137.6608287629879,0.0
433,-0.03642805290611237,-0.0031571931579447206,137.0678287577571,0.0
434,-0.03640998699750052,-0.00315987754629213,136.4533513764122,0.0
435,-0.036903777305610105,-0.003578224199523302,135.81904984402024,0.0
436,-0.03789137395606373,-0.004420988743290409,135.1665510270838,0.0
437,-0.03927676042468433,-0.005633309446382125,134.4974516995652,0.0
438,-0.04090840371368728,-0.007107073374161197,133.8133152286775,0.0
439,-0.04260774849361013,-0.008697772848196688,133.1156686704449,0.0
440,-0.04419775252864968,-0.010244836503334935,132.40600026223663,0.0
441,-0.04552642261521794,-0.011592310221333044,131.6857572971233,0.0
442,-0.04648225215834256,-0.012607233711119308,130.9563443629712,0.0
443,-0.04700082222802157,-0.013193893422782044,130.21912192765936,0.0
444,-0.04706392535680768,-0.013303059314446985,129.47540525064838,0.0
445,-0.046693843383437995,-0.012936082910615392,128.72646360032238,0.0
446,-0.045945652897994196,-0.012144190357065258,127.97351975603242,0.0
447,-0.044899818870840665,-0.011023420307024637,127.21774977356257,0.0
448,-0.04365621713252653,-0.009705535363439368,126.46028299278345,0.0
449,-0.04232942235858673,-0.008345071167547975,125.70220226652307,0.0
450,-0.04104389961914782,-0.007102697672756337,124.94454439013873,0.0
451,-0.03992698296063999,-0.00612541945473366,124.18830071188765,0.0
452,-0.039097558016654495,-0.005524883074032181,123.43441790494053,0.0
453,-0.038649359563641135,-0.005356076622339924,122.6837988827347,0.0
454,-0.038629628385706605,-0.005599729375433685,121.93730384029861,0.0
455,-0.039016170104290225,-0.006152371913423986,121.19575140517527,0.0
456,-0.039698104357298696,-0.006827912996766265,120.45991988261112,0.0
457,-0.04046718595889052,-0.0073734544769570864,119.73054858073746,0.0
458,-0.04102683594283467,-0.007499855805011385,119.00833920254604,0.0
459,-0.04102421436992305,-0.006924542224571752,118.29395729252732,0.0
460,-0.0401062747835752,-0.005420809376877098,117.58803372689677,0.0
461,-0.03799392165691697,-0.002865221868792607,116.89116623736558,0.0
462,-0.0345604897366855,0.000726516295005193,116.20392095941509,0.0
463,-0.029894408686520536,0.005183986380635918,115.52683399699899,0.0
464,-0.024324392321420626,0.010192427654573857,114.8604129965239,0.0
465,-0.01839133595658893,0.015329764394180354,114.2051387238398,0.0
466,-0.012764401675339248,0.020125238461996438,113.56146663880827,0.0
467,-0.008116116502980013,0.02412944620063072,112.92982846280691,0.0
468,-0.004986491130174398,0.026982447539747545,112.3106337352691,0.0
469,-0.0036727239971131704,0.02846649759165371,111.70427135605651,0.0
470,-0.0041754694987816325,0.028533062416062988,111.1111111111111,1.0
471,-0.006216278407101825,0.027299434568871375,110.51234994440559,0.0
472,-0.00931942929491532,0.02501703092958348,109.89006567968005,0.0
473,-0.012932620152511037,0.02201956947794584,109.24592343087505,0.0
474,-0.016551242229279593,0.018663206117081877,108.58156717262547,0.0
475,-0.019812901134216607,0.015271446002106698,107.89861467090925,0.0
476,-0.022540844446798748,0.01209521561016591,107.19865291525394,0.0
477,-0.02473214824795436,0.009293757408454957,106.48323404849313,0.0
478,-0.026502960857466226,0.006936428376493114,105.75387178524677,0.0
479,-0.028013851943392776,0.005020603719867077,105.01203830610817,0.0
480,-0.029400778026220247,0.0034979220497087637,104.25916161093483,0.0
481,-0.030731570782042854,0.0023006104682450363,103.49662331166337,0.0
482,-0.03199686294142459,0.001361395580270196,102.72575684266064,0.0
483,-0.03313211093938912,0.0006237246910027793,101.94784606476382,0.0
484,-0.03405795325844568,4.257076165079931e-05,101.16412423780241,0.0
485,-0.03472220461817713,-0.00042108632641282666,100.37577333550426,0.0
486,-0.0351287511536555,-0.0008076228965986816,99.5839236762076,0.0
487,-0.03534489223765641,-0.0011637315936091448,98.78965384269729,0.0
488,-0.03548661090247842,-0.0015422700419533098,97.99399086470082,0.0
489,-0.03568818692415288,-0.0019964876896021843,97.19791063807833,0.0
490,-0.03606659898701482,-0.002570230643095738,96.40233855547214,0.0
491,-0.03669153186480374,-0.003287131158556579,95.60815032410927,0.0
492,-0.03756891970313442,-0.004142165624946103,94.81617294752948,0.0
493,-0.038641143333470296,-0.0050983237998981825,94.02718584921381,0.0
494,-0.039801997949555926,-0.006089765437827496,93.24192211737413,0.0
495,-0.040920904958429864,-0.00703119459449331,92.46106985151165,0.0
496,-0.041869425967953414,-0.007831708074848936,91.68527359272932,0.0
497,-0.042543944788674695,-0.008410407209244072,90.91513582117345,0.0
498,-0.0428806931154219,-0.008710755201402251,90.15121850535995,0.0
499,-0.04286205110747965,-0.008710989607145517,89.3940446894992,0.0
500,-0.042515286426394565,-0.008428705482452746,88.64410010625113,0.0
501,-0.041906014141244584,-0.007918796070361047,87.90183480361752,0.0
502,-0.041128563350704375,-0.007265067622982835,87.1676647758917,0.0
503,-0.04029448513680777,-0.006566869295464301,86.44197358974316,0.0
504,-0.03951933694349886,-0.005922882705152085,85.72511399760093,0.0
505,-0.03890744242713322,-0.005414716244218628,85.01740953151932,0.0
506,-0.03853508125936815,-0.005093079333258434,84.31915607165865,0.0
507,-0.038434359880688745,-0.004969017910249232,83.63062338439131,0.0
508,-0.038581921779864525,-0.0050119562010813865,82.95205662585195,0.0
509,-0.03889735418156895,-0.005155164468131645,82.28367780749112,0.0
510,-0.03925466693401614,-0.005307912578674006,81.62568722086483,0.0
511,-0.039506603878619734,-0.005372229539392378,80.97826481950442,0.0
512,-0.039517018333611535,-0.0052611782093238265,80.34157155625994,0.0
513,-0.03919301022541004,-0.004915150321929574,79.71575067500541,0.0
514,-0.038507667248959584,-0.004313041970903752,79.1009289560325,0.0
515,-0.03750668915670766,-0.003476242168398428,78.49721791485041,0.0
516,-0.036297108450034754,-0.0024649125029804634,77.90471495445274,0.0
517,-0.03502189042229586,-0.0013676679443318015,77.32350447141383,0.0
518,-0.03382829947457658,-0.0002870725667247741,76.75365891643817,0.0
519,-0.03283912844440587,0.0006759772887432371,76.19523981021364,0.0
520,-0.032134016015466935,0.00143601969397505,75.64829871561233,0.0
521,-0.03174413494834913,0.0019327598635587736,75.11287816744793,0.0
522,-0.03165913193775755,0.0021357543740801407,74.58901256113663,0.0
523,-0.03184179544147973,0.002044232461278738,74.0767290017237,0.0
524,-0.03224436983572763,0.0016831487003047725,73.5760481148317,0.0
525,-0.03282092985528749,0.0010969894123188325,73.08698482116277,0.0
526,-0.03353247681610825,0.0003427906719128068,72.60954907624692,0.0
527,-0.03434466741102589,-0.0005165840571526362,72.14374657717454,0.0
528,-0.035221202481405374,-0.001418378673533669,71.68957943808567,0.0
529,-0.03611766399414315,-0.0023049664208806405,71.24704683621296,0.0
530,-0.036980212109804185,-0.0031279853030358636,70.81614563029109,0.0
531,-0.03775115582578605,-0.0038515158372442473,70.39687095315455,0.0
532,-0.03838003576398058,-0.004454011109085207,69.98921678035018,0.0
533,-0.03883602547545803,-0.004928536597696469,69.59317647658949,0.0
534,-0.03911645731105855,-0.005280953246749147,69.20874332186473,0.0
535,-0.0392475747914377,-0.005526042141210439,68.83591101904547,0.0
536,-0.0392766277239746,-0.005682147747301835,68.4746741847703,0.0
537,-0.03925780459620563,-0.005765519106800912,68.12502882543988,0.0
538,-0.03923676368386762,-0.005785916496699139,67.78697280011674,0.0
539,-0.03923881220344271,-0.0057450243337779355,67.4605062721334,0.0
540,-0.03926421330119175,-0.0056386804764699625,67.14563215121262,0.0
541,-0.039291594233405475,-0.005462957936450038,66.84235652790814,0.0
542,-0.03928810421837112,-0.005222920547714394,66.55068910218334,0.0
543,-0.03922354100542915,-0.004941720725378559,66.2706436079598,0.0
544,-0.03908518473690767,-0.00466694720009995,66.00223823548818,0.0
545,-0.03889011980559719,-0.004471051809245767,65.74549605342094,0.0
546,-0.03869192502456403,-0.0044434611308662286,65.50044543250107,0.0
547,-0.03857866031208234,-0.004673612460386927,65.26712047282415,0.0
548,-0.03865943609468709,-0.005226435269833596,65.04556143668309,0.0
549,-0.03903816487677456,-0.006114304099696625,64.83581518906843,0.0
550,-0.03977592168166755,-0.0072716199766621374,64.63793564796966,0.0
551,-0.04084771602164812,-0.00853927021165558,64.45198424671057,0.0
552,-0.042104514562345825,-0.009665700308569673,64.27803041065104,0.0
553,-0.04325510980805523,-0.01032892343928276,64.11615205070306,0.0
554,-0.04388236872736129,-0.010179667314786048,63.96643607624032,0.0
555,-0.043502516882672655,-0.008900727960762285,63.828978930130994,0.0
556,-0.04166435001703374,-0.006272642996520244,63.7038871487939,0.0
557,-0.03807033458368898,-0.0022324089252136587,63.59127795037025,0.0
558,-0.03268861509324786,0.0030886255387654353,63.491279854322286,0.0
559,-0.0258199032394521,0.009358717038088615,63.404033336014265,0.0
560,-0.018090241386582055,0.01607654975620739,63.32969152010818,0.0
561,-0.01035970260989253,0.022635976398599787,63.26842091691769,0.0
562,-0.0035629507969948265,0.028413768465585534,63.22040220621161,0.0
563,0.0014789604028382561,0.0328636357000149,63.185831073351665,0.0
564,0.004224556249580331,0.03559776582866062,63.164919103089545,0.0
565,0.004510145796953567,0.03643963893503765,63.15789473684211,1.0
566,0.00255562802407952,0.03543832092263338,63.18877326945662,0.0
567,-0.0011182773995688407,0.032843157700615015,63.28001482374016,0.0
568,-0.005832052899945225,0.029046479806962438,63.42976892992058,0.0
569,-0.010905400027424966,0.02450836132777829,63.63647674176583,0.0
570,-0.01578898666903011,0.019680147371792373,63.89883854655997,0.0
571,-0.020141106904516697,0.014941968749317287,64.21578528392222,0.0
572,-0.023839991045892323,0.010564539491788814,64.58645331186408,0.0
573,-0.02694113662254737,0.006698757027727053,65.0101617725238,0.0
574,-0.029601601938837586,0.003389891568859531,65.4863919989067,0.0
575,-0.03199752351189144,0.0006081288677943636,66.01476847273278,0.0
576,-0.03425773275571361,-0.001715057426734677,66.59504089604026,0.0
577,-0.03642771541471945,-0.00365458994157043,67.22706697854225,0.0
578,-0.038467616517538585,-0.005270432198741226,67.91079557127878,0.0
579,-0.04027864233451983,-0.006599869474244407,68.64624979677556,0.0
580,-0.041746019808175064,-0.00766189196136848,69.4335098383141,0.0
581,-0.04278425252938501,-0.008469041120170237,70.27269505741776,0.0
582,-0.04337145698954992,-0.009040736154912238,71.1639451105298,0.0
583,-0.04356344684057803,-0.009412631053568188,72.10739973432774,0.0
584,-0.04348417223863905,-0.009638575670543307,73.10317686546021,0.0
585,-0.043295923860296966,-0.009784532358447093,74.15134875610576,0.0
586,-0.04315862196255625,-0.009916479359783587,75.25191574324548,0.0
587,-0.04319060222933955,-0.010086177825166817,76.4047773288045,0.0
588,-0.043442355201311296,-0.010319256280511321,77.60970023211752,0.0
589,-0.04388994995063023,-0.010609326598450016,78.86628308823101,0.0
590,-0.04444823854646616,-0.010920099008391105,80.17391748862612,0.0
591,-0.04499801483065305,-0.011195254031603263,81.5317450988908,0.0
592,-0.04541817848195602,-0.011373760668670217,82.9386106452023,0.0
593,-0.04561426013541061,-0.01140690365625687,84.39301064337339,0.0
594,-0.045537507902438656,-0.011272788389865266,85.89303785646335,0.0
595,-0.04519243922964906,-0.010984578865742625,87.43632161583083,0.0
596,-0.04463377138831533,-0.010590034598859696,89.01996433253088,0.0
597,-0.0439551201657306,-0.010161755740951779,90.64047476748013,0.0
598,-0.04327180869609144,-0.009779569993988275,92.29369892541952,0.0
599,-0.04269928110854946,-0.009508342012848198,93.97474979336381,0.0
600,-0.04232810809772812,-0.009375821699551326,95.67793756018212,0.0
601,-0.04219741243818611,-0.009355685306502225,97.3967024273018,0.0
602,-0.042270910592364874,-0.009360457819438148,99.12355264253297,0.0
603,-0.042422607806010225,-0.009247470280551662,100.85001094321757,0.0
604,-0.042440541197463995,-0.008838540489065745,102.56657315519794,0.0
605,-0.04205497122133545,-0.007951059411024516,104.262683222951,0.0
606,-0.0409914121731633,-0.006435240999967977,105.92672939353457,0.0
607,-0.039040071103357166,-0.0042101962258774,107.54606657992373,0.0
608,-0.036124634281510616,-0.0012908989882634543,109.1070700138737,0.0
609,-0.03234882948315776,0.002200601733736011,110.59522508322053,0.0
610,-0.028002057543440328,0.0060433100908723544,111.99525765133647,0.0
611,-0.023516321300821763,0.00994414962050346,113.29130810402364,0.0
612,-0.019382617484786382,0.013578694501357798,114.46715080983925,0.0
613,-0.016049713161777356,0.016637700262283867,115.50645859851899,0.0
614,-0.013835227198217719,0.018870158420668616,116.39310929534237,0.0
615,-0.012874683011125144,0.0201147116333705,117.11152839830017,0.0
616,-0.013120318795412903,0.020314348025704258,117.6470588235294,1.0
617,-0.014383947804639844,0.01951341366859887,118.08540686419734,0.0
618,-0.01640439111850945,0.017839942704275892,118.5212600113976,0.0
619,-0.018915055766413887,0.015479037424537831,118.95434695831511,0.0
620,-0.021691829745242846,0.012643928657062703,119.38439059702081,0.0
621,-0.024572235689068106,0.009550414261688558,119.8111080987244,0.0
622,-0.027448447932525023,0.006398157769903313,120.2342110088426,0.0
623,-0.030244832947057154,0.0033596822009404137,120.65340535745794,0.0
624,-0.032893110984894294,0.0005756664676277007,121.06839178572937,0.0
625,-0.03531569956487326,-0.001846068748408443,121.47886568879592,0.0
626,-0.037422551879328095,-0.0038305268964517764,121.8845173756914,0.0
627,-0.039121318178486415,-0.00533614197971537,122.2850322467622,0.0
628,-0.04033656720352543,-0.006356267775739834,122.68009098904771,0.0
629,-0.04103162173545199,-0.006920430818200898,123.06936979004864,0.0
630,-0.04122609856772713,-0.007093442205826874,123.45254057026726,0.0
631,-0.0410032093954423,-0.0069705208334219825,123.82927123486017,0.0
632,-0.040503145243093605,-0.006667467900904816,124.19922594469448,0.0
633,-0.03990225349640274,-0.006306373744149157,124.56206540704416,0.0
634,-0.03938163513110235,-0.005998882475637276,124.91744718610558,0.0
635,-0.03909216123553057,-0.005830192713361363,125.26502603344672,0.0
636,-0.0391245277495088,-0.005847335586002737,125.60445423843763,0.0
637,-0.039492109902798674,-0.006054657905299156,125.93538199863602,0.0
638,-0.0401312190048706,-0.006417933494526182,126.25745781002604,0.0
639,-0.04091892150241129,-0.006876471292418066,126.57032887692502,0.0
640,-0.041704225106682286,-0.007360502136301081,126.87364154128895,0.0
641,-0.04234531016073843,-0.0078095691477032166,127.16704173105722,0.0
642,-0.04274414528444672,-0.008187082038438261,127.45017542708408,0.0
643,-0.042870268636170744,-0.008486862694936436,127.72268914810785,0.0
644,-0.04276745636333302,-0.008729348854987013,127.98423045311034,0.0
645,-0.042540170680573586,-0.008947767840898142,128.23444846031663,0.0
646,-0.042320873463516914,-0.009167431288550814,128.47299438198266,0.0
647,-0.04222412493671049,-0.009383604460630204,128.6995220740126,0.0
648,-0.042298025484618085,-0.009544493543429578,128.9136885993436,0.0
649,-0.042486660948022156,-0.009545332629904403,129.11515480392882,0.0
650,-0.04261722722972315,-0.009237290163497572,129.3035859040453,0.0
651,-0.04242127802213345,-0.008451365111377916,129.47865208355023,0.0
652,-0.041591021779999855,-0.0070334318972005904,129.64002909960638,0.0
653,-0.039860441464379,-0.004883179423012561,129.78739889530002,0.0
654,-0.03709059230825994,-0.0019878837788873155,129.92045021747944,0.0
655,-0.03333302682077041,0.001557594120991353,130.0388792380518,0.0
656,-0.02884841271974813,0.0055504386854315375,130.14239017689124,0.0
657,-0.024069737616704816,0.009700559302461935,130.23069592443227,0.0
658,-0.01951757657170165,0.013668797064567487,130.30351866195153,0.0
659,-0.01569179732991247,0.01711503522786853,130.36059047747653,0.0
660,-0.012972372719195005,0.019746457633010663,130.40165397520576,0.0
661,-0.011557699688438729,0.021356566465125022,130.426462876278,0.0
662,-0.011453899130332675,0.021848212620842727,130.43478260869566,1.0
663,-0.012509914202537258,0.021237929281215956,130.43478260869566,0.0
664,-0.014479064437208323,0.01964308030580144,130.43478260869566,0.0
665,-0.017083301648745053,0.01725660784288368,130.43478260869566,0.0
666,-0.020061756182982816,0.01431578010650511,130.43478260869566,0.0
667,-0.023195867408687763,0.011071175175243454,130.43478260869566,0.0
668,-0.026313713614171296,0.007760589116147306,130.43478260869566,0.0
669,-0.029282082134901133,0.004590332223192574,130.43478260869566,0.0
670,-0.03199548503405616,0.0017242145896534315,130.43478260869566,0.0
671,-0.03436842058040368,-0.0007210301039612208,130.43478260869566,0.0
672,-0.03633327147994568,-0.002675831892638995,130.43478260869566,0.0
673,-0.03784321294366584,-0.004115232837189124,130.43478260869566,0.0
674,-0.03887798197098382,-0.00505491823892607,130.43478260869566,0.0
675,-0.03944997569181461,-0.005546253985615175,130.43478260869566,0.0
676,-0.039608304189355396,-0.005670115008821384,130.43478260869566,0.0
677,-0.03943878593062366,-0.005529033199127682,130.43478260869566,0.0
678,-0.03905842893728168,-0.005237388337617222,130.43478260869566,0.0
679,-0.03860381687602632,-0.004909931010691682,130.43478260869566,0.0
680,-0.03821409735773273,-0.004649661159012238,130.43478260869566,0.0
681,-0.03801084303954488,-0.004536727128490192,130.43478260869566,0.0
682,-0.0380785392902411,-0.004620304825431237,130.43478260869566,0.0
683,-0.03845023292001044,-0.004915193495580819,130.43478260869566,0.0
684,-0.03910239342459043,-0.00540409027839845,130.43478260869566,0.0
685,-0.039961161153981996,-0.006045309054564258,130.43478260869566,0.0
686,-0.04091936321971581,-0.006784364351238137,130.43478260869566,0.0
687,-0.04186083781988252,-0.0075667077408608716,130.43478260869566,0.0
688,-0.04268654140895098,-0.008348336718221766,130.43478260869566,0.0
689,-0.04333608514660141,-0.009101243811646658,130.43478260869566,0.0
690,-0.04379887467011577,-0.009811796811902947,130.43478260869566,0.0
691,-0.04411085450785813,-0.010471965623236313,130.43478260869566,0.0
692,-0.044335844863771866,-0.011065440292347791,130.43478260869566,0.0
693,-0.04453430615389041,-0.011552569972352426,130.43478260869566,0.0
694,-0.044726484789360414,-0.011859119968730496,130.43478260869566,0.0
695,-0.04486031437366872,-0.011873650662677537,130.43478260869566,0.0
696,-0.04479587526166582,-0.011456707597565596,130.43478260869566,0.0
697,-0.044316332255707504,-0.010462199362133355,130.43478260869566,0.0
698,-0.04316935481206252,-0.00876794246705903,130.43478260869566,0.0
699,-0.04113372128385866,-0.006309260882715951,130.43478260869566,0.0
700,-0.038095558542781155,-0.003107685074039258,130.43478260869566,0.0
701,-0.03411133106701843,0.0007130911075131159,130.43478260869566,0.0
702,-0.029434226575302907,0.004929557227714749,130.43478260869566,0.0
703,-0.024489087281750116,0.009240577183580331,130.43478260869566,0.0
704,-0.019796985847856205,0.013306204487010722,130.43478260869566,0.0
705,-0.015868447546863323,0.016795714719052154,130.43478260869566,0.0
706,-0.0130966339744933,0.019435051156500585,130.43478260869566,0.0
707,-0.011682644450302815,0.021043993924505275,130.43478260869566,0.0
708,-0.01161361709232722,0.021555959249288267,130.43478260869566,1.0
709,-0.012695472291927946,0.02101763609625335,130.43098645162465,0.0
710,-0.014624109347516226,0.01957040810697547,130.4198177458114,0.0
711,-0.017068755342410858,0.017419359832593163,130.40160784647838,0.0
712,-0.019741736287296103,0.014797657953628168,130.37669009494797,0.0
713,-0.022438092568816705,0.011933894787399127,130.34539946889947,0.0
714,-0.0250412208602346,0.009027922088353235,130.30807224847933,0.0
715,-0.02750200378834954,0.006237619417821096,130.26504569872404,0.0
716,-0.029805372094892948,0.0036759401351842925,130.21665776868795,0.0
717,-0.03193893765754051,0.0014153136804904462,130.16324680760104,0.0
718,-0.033874217228107566,-0.0005044744633192241,130.10515129831964,0.0
719,-0.03556429242066404,-0.002068444444313017,130.0427096082736,0.0
720,-0.03695521928625092,-0.003280843931844992,129.97625975805735,0.0
721,-0.03800431524369956,-0.004162387792097195,129.9061392077606,0.0
722,-0.038697545493097375,-0.004749431541443542,129.8326846610863,0.0
723,-0.03906007554535316,-0.0050933826147213255,129.75623188725788,0.0
724,-0.039157211726243986,-0.005258624959453444,129.6771155606793,0.0
725,-0.03908598233855632,-0.005317886746619424,129.5956691182727,0.0
726,-0.038959730694857815,-0.005345033152469222,129.51222463438782,0.0
727,-0.038889201671741376,-0.005406350939627413,129.42711271314747,0.0
728,-0.03896393604022611,-0.005552167696578135,129.3406623980692,0.0
729,-0.03923754457087043,-0.005810880374495305,129.2532010987823,0.0
730,-0.03971970053990225,-0.006187072453443724,129.16505453464228,0.0
731,-0.04037652482214212,-0.006664458259335984,129.0765466950318,0.0
732,-0.04113955932396059,-0.007213131138663294,128.98799981612723,0.0
733,-0.041921898553500654,-0.0077993285451779994,128.89973437390395,0.0
734,-0.042638471992675946,-0.008395007808868777,128.81206909315136,0.0
735,-0.043226192105682675,-0.0089842470201863,128.7253209722684,0.0
736,-0.0436590228835942,-0.00956401514167477,128.63980532361603,0.0
737,-0.04395330404132535,-0.010138177165656756,128.55583582920886,0.0
738,-0.04416010083447022,-0.010705483575275189,128.4737246115397,0.0
739,-0.04434397385184432,-0.011244314287136603,128.39378231934404,0.0
740,-0.044551191857314404,-0.01169856121086915,128.31631822812753,0.0
741,-0.04477451693653031,-0.01196970002033373,128.2416403552997,0.0
742,-0.044925211389210684,-0.011919438373712347,128.1700555897788,0.0
743,-0.04482425410685006,-0.011385258049342404,128.10186983595779,0.0
744,-0.04422228441478695,-0.010208013697258225,128.03738817194977,0.0
745,-0.04285079872275995,-0.008267220844249698,127.97691502206126,0.0
746,-0.04049670840490094,-0.005516720566636728,127.92075434347534,0.0
747,-0.037081692861518016,-0.00201200566717782,127.86920982716232,0.0
748,-0.0327212960075927,0.0020787179106427026,127.82258511307579,0.0
749,-0.027740356176409426,0.006484602549938143,127.78118401973155,0.0
750,-0.02263239705744115,0.010863509804672409,127.74531078831419,0.0
751,-0.01796824245354329,0.014849585611703329,127.71527034150117,0.0
752,-0.014276992643565092,0.018107765651026977,127.6913685572473,0.0
753,-0.011933317562518794,0.02038389733841575,127.67391255782533,0.0
754,-0.011084027360327927,0.021540021122241584,127.66321101447637,0.0
755,-0.01163420157225327,0.02156790108496219,127.65957446808511,1.0
756,-0.013293708806567734,0.02057914613616435,127.65957446808511,0.0
757,-0.01566613811375252,0.018775735073708378,127.65957446808511,0.0
758,-0.018350709065438328,0.01640894244388598,127.65957446808511,0.0
759,-0.02102704009804878,0.01373649089892566,127.65957446808511,0.0
760,-0.02350180553597067,0.01098691172593367,127.65957446808511,0.0
761,-0.02571089831791483,0.008337058299739044,127.65957446808511,0.0
762,-0.027685074043558928,0.005904558108359267,127.65957446808511,0.0
763,-0.029496624675351746,0.0037529944520769036,127.65957446808511,0.0
764,-0.031207338499623184,0.0019048750090640595,127.65957446808511,0.0
765,-0.03283426589666184,0.0003565697261462067,127.65957446808511,0.0
766,-0.034341724704120655,-0.0009096367543324603,127.65957446808511,0.0
767,-0.035658408330009245,-0.0019189962945606546,127.65957446808511,0.0
768,-0.03671033447270556,-0.002703232737602291,127.65957446808511,0.0
769,-0.037456036442436155,-0.003302787048348221,127.65957446808511,0.0
770,-0.03791092602475396,-0.0037691493729295348,127.65957446808511,0.0
771,-0.03815254439875234,-0.004164320655288221,127.65957446808511,0.0
772,-0.03830543959859656,-0.0045557975528715865,127.65957446808511,0.0
773,-0.038511082356936226,-0.0050073663311714055,127.65957446808511,0.0
774,-0.03889243907395194,-0.005567761190766869,127.65957446808511,0.0
775,-0.039523592755534645,-0.006260320050244596,127.65957446808511,0.0
776,-0.040412439439443996,-0.007076838052870861,127.65957446808511,0.0
777,-0.041500184902404626,-0.007977877238408277,127.65957446808511,0.0
778,-0.04267663388868287,-0.008900130166044958,127.65957446808511,0.0
779,-0.04380642332151964,-0.00976952973062395,127.65957446808511,0.0
780,-0.04475924839819884,-0.010517164404075604,127.65957446808511,0.0
781,-0.045437022669655706,-0.011094125437855581,127.65957446808511,0.0
782,-0.045792461879117244,-0.0114814239417692,127.65957446808511,0.0
783,-0.0458359978278675,-0.011692090008623653,127.65957446808511,0.0
784,-0.0456303273157278,-0.011764307390844329,127.65957446808511,0.0
785,-0.045273743004069895,-0.011746583701018621,127.65957446808511,0.0
786,-0.044874709444872166,-0.011678049901354267,127.65957446808511,0.0
787,-0.04452134300727897,-0.01156855025535651,127.65957446808511,0.0
788,-0.044250841229729936,-0.011383818620335256,127.65957446808511,0.0
789,-0.04402534337158345,-0.011040482986587037,127.65957446808511,0.0
790,-0.04372155307903459,-0.010413866865595697,127.65957446808511,0.0
791,-0.04314079816862284,-0.009358808893673286,127.65957446808511,0.0
792,-0.04204316926194146,-0.007740524873296836,127.65957446808511,0.0
793,-0.04020358965991999,-0.0054696232358462955,127.65957446808511,0.0
794,-0.03747985184694272,-0.002533549762823319,127.65957446808511,0.0
795,-0.033875150164941005,0.0009833767550303657,127.65957446808511,0.0
796,-0.029574104381788063,0.004897299797329032,127.65957446808511,0.0
797,-0.02493509527219471,0.008941885116635176,127.65957446808511,0.0
798,-0.02043365908633936,0.012802919016688367,127.65957446808511,0.0
799,-0.016568259190781587,0.016163954921516895,127.65957446808511,0.0
800,-0.013754227417758447,0.018753661996040807,127.65957446808511,0.0
801,-0.012237338654998185,0.020384987299108683,127.65957446808511,0.0
802,-0.012052419725883678,0.020978232431365346,127.65957446808511,1.0
803,-0.01303708422511754,0.02056413380958765,127.65608701557494,0.0
804,-0.014892571840506474,0.019267890030325655,127.64582224014234,0.0
805,-0.01726974742240984,0.0172794256238097,127.62907799208551,0.0
806,-0.019852994236837417,0.01481783738713589,127.60615384615386,0.0
807,-0.022418606237054654,0.012098312616952683,127.57735080579886,0.0
808,-0.02485483471247419,0.009307935042492122,127.54297102050985,0.0
809,-0.027143958322127203,0.006593449215132887,127.50331751660296,0.0
810,-0.029318472227725326,0.004060356099485237,127.45869394177812,0.0
811,-0.031410345116688845,0.0017797808452168805,127.40940432370782,0.0
812,-0.03341239279421594,-0.00020183667004500033,127.35575284287202,0.0
813,-0.03526446094902561,-0.0018548048861043512,127.29804361980791,0.0
814,-0.036866895884626015,-0.0031627850521610953,127.23658051689861,0.0
815,-0.03811371110913405,-0.004124274088973966,127.17166695478487,0.0
816,-0.03893162297963553,-0.0047570692899571,127.10360574344516,0.0
817,-0.03931052096136137,-0.005102518498605137,127.03269892795485,0.0
818,-0.03931530429734738,-0.005226337540507872,126.95924764890283,0.0
819,-0.039075983299523845,-0.0052139373258197974,126.88355201741467,0.0
820,-0.0387597856113696,-0.005160087156583812,126.80591100470569,0.0
821,-0.03853376931229121,-0.005154703786047918,126.72662234606358,0.0
822,-0.0385282991608468,-0.005267979303218387,126.64598245914055,0.0
823,-0.03881073791691199,-0.005538531204961547,126.56428637641751,0.0
824,-0.03937539997153384,-0.005967664565296906,126.48182769168835,0.0
825,-0.040151147291148735,-0.006521374012606902,126.39889852040112,0.0
826,-0.04102327766254115,-0.00713980109620353,126.31578947368422,0.0
827,-0.04186297099557628,-0.0077520110762916185,126.23278964587963,0.0
828,-0.042556485756878155,-0.008292624556557111,126.15018661540195,0.0
829,-0.04302757640182547,-0.00871633911454926,126.06826645874158,0.0
830,-0.04324936037094922,-0.009006798757120136,125.98731377743215,0.0
831,-0.043244823768678796,-0.009177502632369473,125.90761173780632,0.0
832,-0.043077301944096834,-0.009264218016304478,125.82944212337185,0.0
833,-0.04283326800293335,-0.009310313860904432,125.75308539964743,0.0
834,-0.0425999646922876,-0.009348173373747694,125.6788207913111,0.0
835,-0.042440551451406135,-0.009381022253243089,125.60692637152584,0.0
836,-0.042370129264759006,-0.009369847516588821,125.5376791633243,0.0
837,-0.042337312458702654,-0.009229428752312387,125.471355252952,0.0
838,-0.0422172328523939,-0.008835876906251145,125.40822991508817,0.0
839,-0.04182174538883628,-0.008045698209079293,125.34857774988696,0.0
840,-0.04093003521593765,-0.006723705361237326,125.29267283180414,0.0
841,-0.03933757662174851,-0.004774677463132754,125.24078887020333,0.0
842,-0.03691458294457778,-0.002172160756500836,125.19319938176197,0.0
843,-0.03365906177720722,0.0010222855458696433,125.15017787472988,0.0
844,-0.02972722867566728,0.004654553740229791,125.11199804512503,0.0
845,-0.0254275698420052,0.008490368932295524,125.07893398498717,0.0
846,-0.02117451773915457,0.012243086373119315,125.05126040284647,0.0
847,-0.01741088252326961,0.015611876763318301,125.02925285660504,0.0
848,-0.014519848259561801,0.01832288627119839,125.01318799907156,0.0
849,-0.01275220863263738,0.02016539408483067,125.00334383643346,0.0
850,-0.012189821475368965,0.021016406468528905,125.0,1.0
851,-0.012753508312371525,0.020850090073742472,125.01846942353544,0.0
852,-0.014248077252087602,0.019732069256977555,125.07282112139492,0.0
853,-0.01642531655460192,0.017801842984522427,125.16151241841614,0.0
854,-0.019042324399434374,0.015248556765970988,125.28304992382986,0.0
855,-0.021898068784593723,0.01228569404569841,125.43598129781593,0.0
856,-0.024842283055243636,0.009129082796472556,125.61888752510664,0.0
857,-0.027762321790233864,0.005980545764481922,125.83037564039299,0.0
858,-0.030560715995977327,0.0030173504206837524,126.0690718585061,0.0
859,-0.033136837564502614,0.0003860361499764698,126.33361506976478,0.0
860,-0.03538138040154274,-0.0018014020003754155,126.62265066763551,0.0
861,-0.03718537854158172,-0.0034706174073490604,126.93482468206244,0.0
862,-0.03845948464247446,-0.004587930924829312,127.26877819758492,0.0
863,-0.03915614948091319,-0.005162732792730222,127.62314204075481,0.0
864,-0.03928728159338427,-0.005247910092258517,127.99653172645701,0.0
865,-0.03893186602482135,-0.00493675447053619,128.38754265758092,0.0
866,-0.03823072591983002,-0.004355311254816712,128.79474557712942,0.0
867,-0.03736850341640632,-0.003650152918126368,129.21668227631298,0.0
868,-0.03654581462129522,-0.002972758472786103,129.6518615664848,0.0
869,-0.035947093334513236,-0.0024626706757055485,130.09875552693316,0.0
870,-0.03571118919794982,-0.0022320712777603472,130.55579604456153,0.0
871,-0.03591151605307735,-0.002354210609982052,131.02137166534524,0.0
872,-0.036550129667137304,-0.002857306659469581,131.49382478113296,0.0
873,-0.03756614737242575,-0.0037243313422526923,131.97144917883398,0.0
874,-0.03885480182160971,-0.0048978783453141215,132.4524879822543,0.0
875,-0.04029069598977055,-0.006288407538306514,132.93513201976918,0.0
876,-0.041748434292696604,-0.007783825784387827,133.41751865358322,0.0
877,-0.04311565888805773,-0.009258650771128802,133.89773110846377,0.0
878,-0.04429667576103457,-0.010581774725916959,134.37379833946287,0.0
879,-0.045208097716857736,-0.011622811830672857,134.84369547917763,0.0
880,-0.045770361761905756,-0.01225783462346664,135.3053449054555,0.0
881,-0.04590020579110555,-0.012375690930624746,135.75661797002635,0.0
882,-0.04550911145888983,-0.011885897473111568,136.1953374272476,0.0
883,-0.04451124378740732,-0.010728374070643826,136.61928059988577,0.0
884,-0.04284150656462471,-0.008884240402088952,137.0261833155341,0.0
885,-0.04048039217478869,-0.006385889256149412,137.41374464280617,0.0
886,-0.037478511254704416,-0.0033239302781188917,137.77963245077564,0.0
887,-0.033971785831154615,0.0001513852077674495,138.1214898082069,0.0
888,-0.030179757419960665,0.003835939773992352,138.4369422309083,0.0
889,-0.026384450371496577,0.007485171690261829,138.72360577604422,0.0
890,-0.022894005697174636,0.0108341550118975,138.97909597149328,0.0
891,-0.020000791547256404,0.013622098766571975,139.20103755641264,0.0
892,-0.017945115514182593,0.015618255862165947,139.38707499617348,0.0
893,-0.016892260699371622,0.016646063770085172,139.53488372093022,1.0
894,-0.016924248297056705,0.016602696757021973,139.6605206019401,0.0
895,-0.01804196695269886,0.01547188712847933,139.78167266317706,0.0
896,-0.020171036443887878,0.013328645878177068,139.89849239773338,0.0
897,-0.02316670614788516,0.010335240961448932,140.01113426461706,0.0
898,-0.026817540535116792,0.006728461259130397,140.11975459398647,0.0
899,-0.030851769661349716,0.002798887069013384,140.22451149496735,0.0
900,-0.03495166732428692,-0.001136309369313403,140.3255647662068,0.0
901,-0.03877945266807476,-0.004764596916422683,140.42307580931174,0.0
902,-0.04201393450046232,-0.007810027398513143,140.51720754531055,0.0
903,-0.044392339464410034,-0.010061945645013068,140.60812433427063,0.0
904,-0.04574847765072953,-0.011396459491913593,140.6959918981954,0.0
905,-0.04603794692213273,-0.011787333480299289,140.7809772473186,0.0
906,-0.04534369634496818,-0.011304393714543413,140.86324860990598,0.0
907,-0.043860011379340424,-0.010099503092369637,140.94297536566785,0.0
908,-0.041858149351519006,-0.008382300802606726,141.02032798287905,0.0
909,-0.03964080500965304,-0.006389726738311494,141.09547795929785,0.0
910,-0.037494453849295,-0.004354438530283864,141.16859776696782,0.0
911,-0.03564843617491751,-0.002477299845801751,141.23986080098229,0.0
912,-0.03424789891960078,-0.0009081281753991826,141.30944133228545,0.0
913,-0.033344849851202306,0.0002629577097063632,141.37751446457855,0.0
914,-0.0329079048481167,0.0010035458271090546,141.44425609539667,0.0
915,-0.03284728878764068,0.0013284678517683389,141.5098428814157,0.0
916,-0.0330481501842096,0.0012846616628532656,141.57445220804655,0.0
917,-0.033403342273448995,0.0009358008643930787,141.63826216337006,0.0
918,-0.03383724659612219,0.0003506443315870034,141.70145151646312,0.0
919,-0.034314912814164746,-0.00040243738445523583,141.76419970016403,0.0
920,-0.03483490969102666,-0.0012544232951469318,141.8266867983234,0.0
921,-0.03540863522058561,-0.0021299463583728277,141.8890935375851,0.0
922,-0.03603242108267795,-0.0029404622457817778,141.95160128374113,0.0
923,-0.03666100221295259,-0.003580460048088428,142.0143920427029,0.0
924,-0.03719146908954548,-0.003930298109960323,142.07764846613279,0.0
925,-0.03746534156786506,-0.003867485747617503,142.14155386177848,0.0
926,-0.03729258854105237,-0.0032857126772851642,142.2062922085551,0.0
927,-0.03649539441926374,-0.0021183114385939397,142.2720481764206,0.0
928,-0.03496235936234753,-0.00036087004777833403,142.33900715109246,0.0
929,-0.03269793120388131,0.0019129801339752774,142.40735526365566,0.0
930,-0.02985011374619059,0.004547681696484456,142.4772794251159,0.0
931,-0.026703927624129337,0.007316501143706494,142.54896736595416,0.0
932,-0.0236382678455059,0.00994639238928562,142.62260768074486,0.0
933,-0.021056163869656277,0.012153167250917583,142.6983898779028,0.0
934,-0.01930771293247119,0.013680726237389198,142.77650443463037,0.0
935,-0.018626924977970673,0.014337157138241956,142.85714285714286,1.0
936,-0.019097756895869827,0.014021265477360514,142.9411787579693,0.0
937,-0.020653946805025643,0.012735280233809806,143.02916703959278,0.0
938,-0.02310686868407057,0.010582428235962631,143.1208213510814,0.0
939,-0.026189397781550012,0.0077509936387322835,143.21585441408686,0.0
940,-0.02960282189040518,0.004488681476409484,143.31397787726934,0.0
941,-0.03305679157935448,0.0010721825687668158,143.4149021819087,0.0
942,-0.03629687885146718,-0.0022232535479326234,143.5183364387767,0.0
943,-0.03911871648971974,-0.005150424460323801,143.62398831636665,0.0
944,-0.041371103551884565,-0.007510597235131877,143.73156394059708,0.0
945,-0.04295265499930642,-0.009166829255832376,143.8407678061257,0.0
946,-0.04380733292010322,-0.010050362544842395,143.95130269942499,0.0
947,-0.04392318979836421,-0.010160864211816271,144.06286963378633,0.0
948,-0.04333582415061099,-0.009561449574733222,144.17516779643316,0.0
949,-0.04213416844446431,-0.008369358261542996,144.28789450793266,0.0
950,-0.04046300516672877,-0.006743094278195385,144.40074519410604,0.0
951,-0.03851597371987934,-0.004866947042119801,144.51341337064304,0.0
952,-0.0365157230572617,-0.0029340901358415883,144.6255906406314,0.0
953,-0.034683334686747204,-0.0011297670497067472,144.7369667052138,0.0
954,-0.03320460372825379,0.0003837969834753496,144.84722938758506,0.0
955,-0.03220335909023955,0.0014793431436182093,144.95606467053975,0.0
956,-0.03173018363371058,0.0020725771582088704,145.0631567477754,0.0
957,-0.031769262991832116,0.002126224994629409,145.16818808914928,0.0
958,-0.0322590596751767,0.0016508825272576245,145.2708395200762,0.0
959,-0.03311714687701583,0.0007037228767915218,145.37079031524237,0.0
960,-0.03425823151470504,-0.0006141227085964503,145.46771830679464,0.0
961,-0.03559785488859452,-0.0021614473202411577,145.56130000714685,0.0
962,-0.03704118178157186,-0.003762988382412753,145.65121074652268,0.0
963,-0.03846384861404966,-0.00521911547355619,145.73712482533176,0.0
964,-0.03969682334113982,-0.006320662684343445,145.81871568144825,0.0
965,-0.040527368375682375,-0.006869417807305788,145.89565607243136,0.0
966,-0.0407231255717365,-0.006703051643509934,145.96761827269543,0.0
967,-0.04007773621379844,-0.005721264796837393,146.03427428560056,0.0
968,-0.03846732889410325,-0.003908334955601123,146.09529607039772,0.0
969,-0.03590099974474472,-0.0013467214977639376,146.15035578391996,0.0
970,-0.03254761439134921,0.0017826922932125482,146.19912603686856,0.0
971,-0.02872675795559967,0.005215824291854051,146.24128016449635,0.0
972,-0.024862122256294333,0.008635001983383003,146.2764925114406,0.0
973,-0.021407576211874807,0.011708643285538079,146.3044387304081,0.0
974,-0.018765084178177512,0.014134328784253103,146.3247960943601,0.0
975,-0.01721593233038027,0.015677740364242007,146.33724382179085,0.0
976,-0.016881627528438765,0.016200851237532857,146.34146341463415,1.0
977,-0.017720800781046184,0.01567513905542168,146.3028295778045,0.0
978,-0.01955773509631791,0.014178776315688708,146.18834492932785,0.0
979,-0.022130564259845966,0.011879873129504443,146.00030207990193,0.0
980,-0.025144551808547785,0.00901013890818838,145.74119861865978,0.0
981,-0.028317758217408576,0.005834329619106319,145.41371386746607,0.0
982,-0.03141113505430974,0.002620501424748324,145.02068519627844,0.0
983,-0.034240726633328944,-0.0003852774845054287,144.56508422181426,0.0
984,-0.03667472845972653,-0.002977934881371525,144.0499931908562,0.0
985,-0.03862172922601456,-0.005005981886121964,143.4785818240414,0.0
986,-0.04001803681759347,-0.006378604385662197,142.85408486698796,0.0
987,-0.040821281841942225,-0.007068434883876407,142.17978056420054,0.0
988,-0.04101447871276344,-0.007110734374275151,141.45897023839507,0.0
989,-0.04061988534146219,-0.006598936118220029,140.6949591246531,0.0
990,-0.03971664225376386,-0.005675875128046758,139.89103857602328,0.0
991,-0.03845238060379919,-0.004519962267645268,139.05046972556556,0.0
992,-0.03703890756593338,-0.003326244704200387,138.17646866000922,0.0
993,-0.035726654060384465,-0.0022835939769661126,137.27219313264217,0.0
994,-0.03476059431669789,-0.0015507597359860307,136.3407308181296,0.0
995,-0.03432861075172922,-0.0012351532835154725,135.38508908990323,0.0
996,-0.03451799425891383,-0.0013784718685699842,134.40818628169367,0.0
997,-0.03529451291813121,-0.0019523926144886152,133.41284437871784,0.0
998,-0.036511496020846364,-0.002865675940998208,132.40178307092637,0.0
999,-0.03794649051331227,-0.003981594336319389,131.37761509043105,0.0
1000,-0.03935425798808108,-0.005142314872787809,130.3428427475902,0.0
1001,-0.04052049300114434,-0.006195361076749154,129.2998555750112,0.0
1002,-0.04130187923842484,-0.007016974499064634,128.2509289856895,0.0
1003,-0.04164383199481009,-0.007528141261487072,127.19822385038101,0.0
1004,-0.04157485433874654,-0.007700937469701838,126.14378689983894,0.0
1005,-0.041183053714999515,-0.007555130719340159,125.08955185947612,0.0
1006,-0.04058418406084778,-0.0071470440104997035,124.0373412270904,0.0
1007,-0.039891092288661355,-0.006554055787975743,122.98886860828266,0.0
1008,-0.03919219379578809,-0.005858532613768554,121.94574152888694,0.0
1009,-0.03854264835315846,-0.005134504657567851,120.90946464893048,0.0
1010,-0.037967507195930554,-0.004439259554263431,119.8814433081738,0.0
1011,-0.0374725180536271,-0.0038106220773429537,118.86298733900159,0.0
1012,-0.03705658374513157,-0.003269368407233878,117.85531508821644,0.0
1013,-0.03672060535986736,-0.002825247515181099,116.8595575950245,0.0
1014,-0.03647022873213256,-0.0024845503383615717,115.87676287810852,0.0
1015,-0.03631354023586487,-0.0022570525853835097,114.90790029009253,0.0
1016,-0.03625728698288058,-0.002160367657208283,113.95386490286138,0.0
1017,-0.03630543091971512,-0.0022201996382438935,113.01548189206963,0.0
1018,-0.03646165037549664,-0.002465651592191266,112.09351089373277,0.0
1019,-0.03673393171235138,-0.0029196321346932974,111.18865031002521,0.0
1020,-0.03713655111794195,-0.003585507402429169,110.30154154530675,0.0
1021,-0.037684251338171916,-0.0044323677662370855,109.43277315696638,0.0
1022,-0.0383759558354472,-0.005382380507796054,108.58288490891155,0.0
1023,-0.03917023122194568,-0.006304320928666654,107.75237171846159,0.0
1024,-0.039960092736868034,-0.007017129717952578,106.94168749003234,0.0
1025,-0.04055842304957444,-0.0073059761207959085,106.15124883135388,0.0
1026,-0.040705382580417844,-0.006950839129590127,105.38143865005166,0.0
1027,-0.04010481785557698,-0.005764450467591603,104.63260963027732,0.0
1028,-0.03848821783620178,-0.003633317417559103,103.90508759071012,0.0
1029,-0.03569414870408603,-0.0005533856374812657,103.19917472669083,0.0
1030,-0.031741743653350786,0.003348453554227756,102.51515274051633,0.0
1031,-0.026872977367206993,0.007813916875595872,101.85328586503643,0.0
1032,-0.02154346423438291,0.012476883026445841,101.21382378667589,0.0
1033,-0.01635561218332012,0.01690867198620774,100.59700447487253,0.0
1034,-0.011946955474954045,0.02067762049298803,100.00305692569682,0.0
1035,-0.008862883539531869,0.023411848389205916,99.43220382811838,0.0
1036,-0.007449464279978751,0.024852996276675424,98.88466416202529,0.0
1037,-0.0077954829476642624,0.024890549691511665,98.36065573770492,1.0
1038,-0.009736083682578294,0.023570697170897992,97.84602835480855,0.0
1039,-0.01291088284735376,0.0210793433010328,97.3268861809652,0.0
1040,-0.016854915232450515,0.01770441401907048,96.80381599016907,0.0
1041,-0.021095613464370527,0.013786561690314765,96.27738673548387,0.0
1042,-0.02523273650344439,0.009668913334442805,95.74814935259009,0.0
1043,-0.02898702308534686,0.005655425040119613,95.21663663521909,0.0
1044,-0.03221317813644647,0.001984217999118949,94.68336317773048,0.0
1045,-0.034881009036555014,-0.0011820257704017205,94.14882538010988,0.0
1046,-0.037034361951667864,-0.0037507558794196453,93.61350151071844,0.0
1047,-0.03874107837388359,-0.0056845869957734396,93.07785182220726,0.0
1048,-0.040048407701284365,-0.006983242191100589,92.54231871611789,0.0
1049,-0.040956587974054263,-0.007668353920320443,92.00732695181883,0.0
1050,-0.04141816691181429,-0.007774885708537145,91.473283895576,0.0
1051,-0.041362661287637964,-0.007349959863040091,90.94057980571564,0.0
1052,-0.040737474504834156,-0.006457045998934138,90.40958815001383,0.0
1053,-0.039549769813341476,-0.005181621507392884,89.88066595162753,0.0
1054,-0.03789300983637174,-0.003634055511123042,89.35415416007358,0.0
1055,-0.03594699020544967,-0.0019466075843875656,88.83037804395366,0.0
1056,-0.03394967437759036,-0.00026361489862261785,88.30964760232114,0.0
1057,-0.03214926953862418,0.0012736020710162462,87.79225799178045,0.0
1058,-0.030751780253290992,0.002543676803293959,87.27848996660569,0.0
1059,-0.02988027509961561,0.0034597853351854392,86.76861032935736,0.0
1060,-0.029557350333909972,0.003978300385816022,86.2628723896654,0.0
1061,-0.029714069734255825,0.00409964336734931,85.7615164290304,0.0
1062,-0.030220306762471158,0.0038617031998947242,85.26477016967375,0.0
1063,-0.030925734443298093,0.00332821317700415,84.77284924563997,0.0
1064,-0.031699024149002435,0.0025756539867845167,84.28595767451941,0.0
1065,-0.03245481890710676,0.0016822452251055336,83.80428832831882,0.0
1066,-0.033162418021491454,0.0007214472999268022,83.3280234021579,0.0
1067,-0.033835367110926724,-0.0002394753212750637,82.85733487961278,0.0
1068,-0.03450618441819839,-0.001137251327294246,82.39238499366385,0.0
1069,-0.03519452927985979,-0.0019095959855736037,81.93332668233282,0.0
1070,-0.03587954208033286,-0.00249459962686947,81.4803040382139,0.0
1071,-0.03648703021368011,-0.002834854827289226,81.0334527512172,0.0
1072,-0.036898895912270684,-0.0028868172262164118,80.5929005439469,0.0
1073,-0.036985636742848674,-0.0026336243817291927,80.15876759923589,0.0
1074,-0.03665419464554492,-0.002097665334419711,79.73116697944852,0.0
1075,-0.035895742488699395,-0.0013483150284366756,79.31020503724854,0.0
1076,-0.03481479990819523,-0.0005008445707233056,78.89598181760682,0.0
1077,-0.03362498136825418,0.000295452534836229,78.48859145089592,0.0
1078,-0.03260747412240039,0.0008789519533543989,78.08812253698444,0.0
1079,-0.03204233033008048,0.0011032991408458695,77.69465852030534,0.0
1080,-0.03213398264146242,0.0008649918306199707,77.3082780559283,0.0
1081,-0.032955792748141484,0.00012459752112397898,76.92905536671697,0.0
1082,-0.03443198764646327,-0.001083395866808771,76.557060591699,0.0
1083,-0.036361593191183046,-0.002654392957940501,76.19236012581928,0.0
1084,-0.03847384982787345,-0.004430227239597164,75.83501695128584,0.0
1085,-0.040494494821319116,-0.00622466376569383,75.48509096075311,0.0
1086,-0.04220110562070342,-0.007852461524390456,75.1426392726202,0.0
1087,-0.04345313562355452,-0.009156414631578498,74.80771653875065,0.0
1088,-0.044194259882022635,-0.01002791365095639,74.48037524494825,0.0
1089,-0.04443542391945558,-0.010418453224833864,74.16066600454731,0.0
1090,-0.04423192778805736,-0.010341516496459839,73.84863784549974,0.0
1091,-0.04366566281471174,-0.009865879586363441,73.54433849136207,0.0
1092,-0.042836633295169645,-0.009102364688490284,73.24781463660517,0.0
1093,-0.04186060236811608,-0.008186469060548663,72.95911221668916,0.0
1094,-0.040866009317715425,-0.0072593152131518075,72.67827667336276,0.0
1095,-0.03998455316051234,-0.006449223470429142,72.40535321566426,0.0
1096,-0.0393345003646017,-0.005856018031708094,72.1403870771177,0.0
1097,-0.0390007856435233,-0.0055399242358484604,71.8834237696347,0.0
1098,-0.039018613424936406,-0.005516496378404456,71.6345093346488,0.0
1099,-0.03936649128108432,-0.0057583371667663625,71.39369059202598,0.0
1100,-0.03997127605968147,-0.006203423323010816,71.16101538731299,0.0
1101,-0.040723819835338515,-0.006768748240386461,70.93653283790219,0.0
1102,-0.04150098316120792,-0.007366941127756443,70.72029357871196,0.0
1103,-0.04218891631457116,-0.007922770154815306,70.51235000800062,0.0
1104,-0.04270316834876241,-0.00838620053448718,70.31275653395471,0.0
1105,-0.043002343338958096,-0.008739084150912318,70.12156982271478,0.0
1106,-0.04309295591901849,-0.008993609244509574,69.93884904852789,0.0
1107,-0.04302391382901106,-0.009182207489737072,69.76465614674302,0.0
1108,-0.04287028385186754,-0.009340449563094884,69.59905607039569,0.0
1109,-0.04270809027110902,-0.009486215541811572,69.44211705116095,0.0
1110,-0.0425845099368178,-0.009599721332640084,69.29391086548956,0.0
1111,-0.04248998239429612,-0.00960946931652653,69.15451310678164,0.0
1112,-0.04233947840252427,-0.009388639649824521,69.02400346449535,0.0
1113,-0.04196911577531306,-0.008764807448517825,68.90246601113523,0.0
1114,-0.041151808415671676,-0.007543353496902269,68.78998949811732,0.0
1115,-0.03963226341251241,-0.005541956164766811,68.68666766156535,0.0
1116,-0.03717781238356303,-0.002630707411324107,68.59259953915486,0.0
1117,-0.033637529429379864,0.0012296514423691361,68.50788979919261,0.0
1118,-0.028998326502965893,0.005959545857403709,68.43264908319298,0.0
1119,-0.023424255881521854,0.0113495487704787,68.36699436329907,0.0
1120,-0.017265585562437298,0.017070870493290275,68.31104931598674,0.0
1121,-0.01102872478175084,0.022707665981689735,68.2649447135925,0.0
1122,-0.0053070203944364895,0.02780697908202643,68.22881883531822,0.0
1123,-0.0006839774892626839,0.03193823027075988,68.20281789948777,0.0
1124,0.0023694200938992297,0.0347517986116407,68.18709651896847,0.0
1125,0.0035775180056646346,0.036026105376110215,68.18181818181819,1.0
1126,0.0029017527760599013,0.03569479154943628,68.19995687443895,0.0
1127,0.0005322991291138829,0.033849607034797266,68.25368548665585,0.0
1128,-0.0031646144442224063,0.03071952714857303,68.34205139208028,0.0
1129,-0.0077263037158935574,0.02663120441372898,68.4641986622442,0.0
1130,-0.01267832197465987,0.021959096104935835,68.61935877632395,0.0
1131,-0.01760548765427077,0.01707482827668033,68.80684216003998,0.0
1132,-0.022197959389231442,0.012304456587465266,69.02603042940669,0.0
1133,-0.026269042554888912,0.007899673223739391,69.27636923002315,0.0
1134,-0.02974742749685434,0.00402545627840239,69.55736157514296,0.0
1135,-0.032650300142930536,0.0007630620711475385,69.86856159624816,0.0
1136,-0.03504598733782743,-0.0018755743208105392,70.20956862861499,0.0
1137,-0.03701591118472921,-0.003927503572771494,70.58002156168067,0.0
1138,-0.038625196857970404,-0.005458030052620983,70.97959339013258,0.0
1139,-0.039908656922311686,-0.006543900797669056,71.40798590674585,0.0
1140,-0.04087414913188753,-0.007262702149767803,71.86492448225812,0.0
1141,-0.041519709372063014,-0.00768853506363909,72.35015288114484,0.0
1142,-0.041856355809030174,-0.007892245556661733,72.86342806516976,0.0
1143,-0.041926798562868364,-0.007943539991866057,73.4045149391582,0.0
1144,-0.041812171606103725,-0.007912359052391597,73.97318099568096,0.0
1145,-0.04162363391150858,-0.00786776017764219,74.5691908173528,0.0
1146,-0.04148144192184402,-0.007873876923003191,75.19230039734335,0.0
1147,-0.041488662486203996,-0.007983806069812397,75.84225124057302,0.0
1148,-0.04170838642072702,-0.008233109349430891,76.51876421003011,0.0
1149,-0.04215165518057573,-0.008634790616640482,77.22153308480704,0.0
1150,-0.04277922222598506,-0.00917715045488921,77.95021779893219,0.0
1151,-0.04351548156380883,-0.009825066511004073,78.7044373329951,0.0
1152,-0.04426917328141014,-0.010524341661423114,79.4837622340601,0.0
1153,-0.044953938115447345,-0.011208118868452651,80.28770674358319,0.0
1154,-0.045502681011611146,-0.011804159672164753,81.11572051814349,0.0
1155,-0.04587249713504908,-0.012242011628126468,81.96717993393594,0.0
1156,-0.046040576586850554,-0.012459568139346103,82.84137897332226,0.0
1157,-0.045994769507035044,-0.012408983350694193,83.73751970047725,0.0
1158,-0.04572422987264142,-0.012062099531313363,84.65470234347809,0.0
1159,-0.04521517639134326,-0.011415353504762442,85.59191501224426,0.0
1160,-0.0444545209273516,-0.01049361078930655,86.54802309570795,0.0
1161,-0.04344081594448388,-0.009351759115825203,87.52175839763042,0.0
1162,-0.042198809150064846,-0.008072499938190581,88.51170808869018,0.0
1163,-0.040791794961852444,-0.0067589101668854845,89.51630357292984,0.0
1164,-0.039325449451212344,-0.005521168431397797,90.5338093893638,0.0
1165,-0.037938171130816704,-0.0044582845682352296,91.56231229444953,0.0
1166,-0.03677617290215293,-0.003637421620556988,92.59971069803112,0.0
1167,-0.03595635106224202,-0.003074948738534255,93.64370465397288,0.0
1168,-0.035525256019329376,-0.0027241445927109727,94.69178663655065,0.0
1169,-0.03542651134076415,-0.0024740367665069952,95.7412333641234,0.0
1170,-0.03548976190099769,-0.002162057004447825,96.78909896182283,0.0
1171,-0.03545040406574038,-0.001600259143973405,97.83220978390517,0.0
1172,-0.03500125404964102,-0.0006114256225873737,98.86716124270221,0.0
1173,-0.033867021747287604,0.0009316221698998516,99.89031701323239,0.0
1174,-0.03188331036888099,0.003071883021321736,100.8978109987045,0.0
1175,-0.02905738380133285,0.005747304957517541,101.88555245036954,0.0
1176,-0.02559057131913353,0.008788916616818954,102.84923463329842,0.0
1177,-0.021852096262380747,0.011939695903706428,103.78434741544628,0.0
1178,-0.018308651626383572,0.014891255657467718,104.68619412859161,0.0
1179,-0.015428191914693717,0.017331323921429106,105.54991300434402,0.0
1180,-0.013584667335909635,0.018992538448434064,106.37050342465129,0.0
1181,-0.012989361232771604,0.019692900625478755,107.14285714285714,1.0
1182,-0.013664610612898637,0.01936034106848636,107.90009627554228,0.0
1183,-0.015461348131704652,0.018037612644744485,108.67833755881784,0.0
1184,-0.018109114849211,0.01586811173796817,109.47686978689023,0.0
1185,-0.02128055665431349,0.01306711530041776,110.29493055079088,0.0
1186,-0.024653017905627492,0.009885423635218278,111.13170117966371,0.0
1187,-0.02795535159056902,0.006573076080215414,111.98630159887169,0.0
1188,-0.030994755712658917,0.0033497183877664455,112.85778512042657,0.0
1189,-0.03366359141461665,0.0003858189976959775,113.74513318591536,0.0
1190,-0.03592911364452872,-0.002204033370753298,114.64725008719361,0.0
1191,-0.03781074845340972,-0.004357316211083453,115.56295769565082,0.0
1192,-0.03935100126463651,-0.006052820400276439,116.49099023682395,0.0
1193,-0.0405873863009224,-0.007297387650886521,117.42998915352345,0.0
1194,-0.04153306835809675,-0.008114195945043897,118.37849810741942,0.0
1195,-0.04217211891254193,-0.008535286113644834,119.33495817615535,0.0
1196,-0.042471066040445815,-0.008599129420815123,120.29770331045819,0.0
1197,-0.04240273862045768,-0.008352187641724698,121.2649561232913,0.0
1198,-0.04197337325207026,-0.007852142229888179,122.23482409074332,0.0
1199,-0.0412418737752231,-0.007170100770973141,123.20529625190932,0.0
1200,-0.04032231271693327,-0.006389665455418609,124.17424050232204,0.0
1201,-0.039366774694828126,-0.005602004605207917,125.13940158232255,0.0
1202,-0.03853322283824838,-0.0048975281902139765,126.098399867874,0.0
1203,-0.03794909760965519,-0.00435591301254519,127.04873107644123,0.0
1204,-0.03768322333098876,-0.004036677581618905,127.9877670043763,0.0
1205,-0.03773544205653206,-0.00397217289771705,128.91275741442357,0.0
1206,-0.038046531900546736,-0.0041639417244298225,129.8208331921336,0.0
1207,-0.038523249708478334,-0.004582329443738357,130.70901088777512,0.0
1208,-0.039067839956804955,-0.005168468058443431,131.57419875538636,0.0
1209,-0.03960012266861439,-0.005837612140755447,132.41320439254028,0.0
1210,-0.040063709853209645,-0.006483306205453538,133.22274407287782,0.0
1211,-0.04041476809965722,-0.0069827271474944075,133.9994538481934,0.0
1212,-0.040599601167263265,-0.007204296043601294,134.7399024776086,0.0
1213,-0.040533196296192064,-0.007018813300312742,135.44060621801017,0.0
1214,-0.04009217639444575,-0.0063146735084813575,136.0980454824314,0.0
1215,-0.03913116273486785,-0.005016248634217059,136.70868334153522,0.0
1216,-0.03752240499289474,-0.0031027408277731934,137.26898580808813,0.0
1217,-0.0352079309107354,-0.0006233742530402171,137.77544380574383,0.0
1218,-0.03224589106125685,0.0022956260168682917,138.22459668222857,0.0
1219,-0.02883204698486518,0.005455857053557273,138.6130570839705,0.0
1220,-0.025284591930761144,0.008604686600930628,138.93753696537826,0.0
1221,-0.02199311716927943,0.01146463159503754,139.19487446255656,0.0
1222,-0.01934521754183625,0.013769551165564447,139.38206131962147,0.0
1223,-0.01765158582738686,0.015301091938282493,139.49627051742013,0.0
1224,-0.01708984786905677,0.015918453055191274,139.53488372093022,1.0
1225,-0.017680044684106364,0.015575879214202455,139.50661279035972,0.0
1226,-0.019294395258352717,0.014324976237230707,139.4228360624334,0.0
1227,-0.02169482055951803,0.01230223896704253,139.2852015602235,0.0
1228,-0.02458611727141275,0.009705215694052803,139.09547248539297,0.0
1229,-0.027671118640209925,0.006762759252550666,138.85551445080813,0.0
1230,-0.030695924111001676,0.0037054037350732604,138.56728260112718,0.0
1231,-0.03347720866717633,0.0007410364135371017,138.23280875682988,0.0
1232,-0.03590865690750205,-0.001960935506230738,137.8541887078692,0.0
1233,-0.03794868556454926,-0.0042761829235769865,137.4335697724359,0.0
1234,-0.03959586696872593,-0.006124340069906842,136.97313872457465,0.0
1235,-0.040861047685652116,-0.0074631905379963,136.47511018191304,0.0
1236,-0.041745509731529226,-0.008281568867468676,135.94171553187945,0.0
1237,-0.04223238290007342,-0.00859371376131507,135.37519246179613,0.0
1238,-0.04229409640213009,-0.008436371323143605,134.7777751453995,0.0
1239,-0.04191292048244738,-0.007868276952496868,134.15168512590398,0.0
1240,-0.041106388228207606,-0.006970312162382912,133.49912292387972,0.0
1241,-0.03994674701955374,-0.00584407263171473,132.82226038712463,0.0
1242,-0.03856504739664641,-0.004606960997318291,132.12323378950035,0.0
1243,-0.03713587071618971,-0.003383077586459908,131.40413767645774,0.0
1244,-0.03584600216097751,-0.0022907078841463884,130.6670194467615,0.0
1245,-0.03485653064982349,-0.0014285647100251964,129.9138746527557,0.0
1246,-0.03427031068733671,-0.0008636717533401952,129.14664299539993,0.0
1247,-0.03411455860493573,-0.000623632615026801,128.36720498521905,0.0
1248,-0.034342730151516496,-0.0006950699728518617,127.57737923621653,0.0
1249,-0.03485327132042199,-0.0010285576456334727,126.77892035663652,0.0
1250,-0.035517986427096346,-0.001548858823883691,125.97351739816442,0.0
1251,-0.03621116696050886,-0.0021681637829241906,125.16279282364809,0.0
1252,-0.03683219909276075,-0.002799574020812278,124.34830195262765,0.0
1253,-0.03731779194875298,-0.003368366651712739,123.53153284379384,0.0
1254,-0.03764356861874283,-0.003819436006253975,122.71390657387481,0.0
1255,-0.037817353503474,-0.004120446460889912,121.89677787329786,0.0
1256,-0.0378677105067351,-0.00426129680617645,121.08143608020598,0.0
1257,-0.03783139288820757,-0.004251204164691878,120.26910637596376,0.0
1258,-0.03774279630287516,-0.004114904288676904,119.4609512670885,0.0
1259,-0.037627564144697395,-0.0038891324343652035,118.65807228053569,0.0
1260,-0.03750130475383011,-0.0036198402078300457,117.86151184139403,0.0
1261,-0.03737304755088995,-0.003359769513901141,117.07225530426078,0.0
1262,-0.037251795296985295,-0.003165336955960103,116.29123311182322,0.0
1263,-0.03715357612617119,-0.003091540063936134,115.51932305644175,0.0
1264,-0.0371059269248804,-0.0031839367035917184,114.75735262277135,0.0
1265,-0.037146817326726055,-0.0034676699273062527,114.00610139165798,0.0
1266,-0.03731577437671437,-0.003934830047801825,113.26630348767556,0.0
1267,-0.03763664762320822,-0.004532817133839594,112.53865005471773,0.0
1268,-0.038094231581265854,-0.005157343712519226,111.82379174601299,0.0
1269,-0.038610495124583304,-0.005653861450162593,111.12234121678316,0.0
1270,-0.0390293376238537,-0.005830214553114919,110.43487560951067,0.0
1271,-0.03911990312030177,-0.005481199681052826,109.76193902341547,0.0
1272,-0.03860593610148039,-0.004422784339564421,109.10404496126941,0.0
1273,-0.03722186434941697,-0.002530676476781236,108.46167874809493,0.0
1274,-0.03478644883431429,0.00022437958575988399,107.83529991760997,0.0
1275,-0.03127515835179305,0.0037529494030722997,107.22534456349725,0.0
1276,-0.02686733423947988,0.007841925543479053,106.63222765369984,0.0
1277,-0.02194745273793741,0.01217186229602653,106.05634530697974,0.0
1278,-0.017052094772067296,0.016355518912755804,105.49807703193427,0.0
1279,-0.012771960307021466,0.019991537433857558,104.95778792955029,0.0
1280,-0.00963440709888783,0.02272334671648202,104.43583086119696,0.0
1281,-0.007999440774098834,0.02429178301249882,103.93254858472625,0.0
1282,-0.007997411764887337,0.024571056838228814,103.44827586206897,1.0
1283,-0.009522081331404548,0.023581317926609162,102.96939731546553,0.0
1284,-0.012274828689467658,0.021476231743973184,102.48258522193622,0.0
1285,-0.015842020056177394,0.018509351183907622,101.9885880088819,0.0
1286,-0.019782355347606462,0.01498732451168531,101.48813604089018,0.0
1287,-0.023703996900076928,0.011220173214424919,100.98194092704627,0.0
1288,-0.027318628779738414,0.007478629859956842,100.47069494315932,0.0
1289,-0.030467038611075702,0.003966083880229832,99.95507056335957,0.0
1290,-0.033116195672220676,0.0008087622247868191,99.43572009529021,0.0
1291,-0.03533143514828088,-0.0019366397527456414,98.91327541295668,0.0
1292,-0.037230577917209275,-0.004262542644872921,98.38834778119963,0.0
1293,-0.03893020533921628,-0.006184454353619768,97.86152776571963,0.0
1294,-0.040497009738224905,-0.007717127703111103,97.33338522259676,0.0
1295,-0.04191742305520443,-0.008859384495815487,96.80446936130939,0.0
1296,-0.04309519144672246,-0.009591206075617134,96.27530887536041,0.0
1297,-0.043879197276059365,-0.009883009221865083,95.74641213475596,0.0
1298,-0.044114419490014024,-0.00971350546583502,95.21826743475246,0.0
1299,-0.043700662814381355,-0.009090105341470867,94.69134329548055,0.0
1300,-0.04263997904458145,-0.008065113681930958,94.16608880727017,0.0
1301,-0.04105654664297789,-0.006742134655919286,93.64293401673359,0.0
1302,-0.03918154999542798,-0.005269808352446979,93.1222903489058,0.0
1303,-0.03730710607293862,-0.0038234551649755488,92.6045510609966,0.0
1304,-0.03572313805054291,-0.002578441535720761,92.09009172356639,0.0
1305,-0.034655722248511586,-0.0016812312675846353,91.57927072520118,0.0
1306,-0.03422358568964307,-0.0012246285498123445,91.07242979702379,0.0
1307,-0.034422469661025516,-0.001232606590733747,90.56989455363892,0.0
1308,-0.0351380660871363,-0.0016577553543052404,90.07197504736759,0.0
1309,-0.036180448705525094,-0.0023914726204842863,89.57896633287713,0.0
1310,-0.03732856609339601,-0.0032843292667626405,89.09114903955842,0.0
1311,-0.03837305677938106,-0.004172175300237839,88.6087899492398,0.0
1312,-0.039148618051695463,-0.0049028372126360764,88.13214257705428,0.0
1313,-0.03955182268309767,-0.005358680680238863,87.66144775349788,0.0
1314,-0.03954485929788088,-0.005471601765274988,87.19693420592479,0.0
1315,-0.039148777978047083,-0.005228750531617473,86.73881913792565,0.0
1316,-0.03843084688521639,-0.0046690638219374515,86.28730880522384,0.0
1317,-0.03748985695996214,-0.0038721657301915144,85.84259908690339,0.0
1318,-0.03644154997951015,-0.002942203919935708,85.40487605095099,0.0
1319,-0.0354047887651762,-0.0019896785328013073,84.97431651325284,0.0
1320,-0.034488309023440376,-0.0011143266367001502,84.55108858933575,0.0
1321,-0.03377808090469346,-0.00039172365489485326,84.13535223828009,0.0
1322,-0.03332622967054688,0.0001344691285999043,83.72725979836358,0.0
1323,-0.03314358346490286,0.00045367087086640263,83.3269565141139,0.0
1324,-0.033198545052111325,0.0005831756034171865,82.93458105456247,0.0
1325,-0.03342449558452453,0.0005579738217970779,82.55026602259544,0.0
1326,-0.033736054741918764,0.0004180234922896808,82.17413845539576,0.0
1327,-0.03405159429890954,0.0001960254426290151,81.80632031606076,0.0
1328,-0.03431646695925176,-9.121160875386948e-05,81.44692897656437,0.0
1329,-0.0345198450016619,-0.0004454217716030394,81.0960776923105,0.0
1330,-0.034698902595858165,-0.0008825203884445794,80.75387606859906,0.0
1331,-0.034927389141242285,-0.0014220035527476346,80.42043051939321,0.0
1332,-0.035290395222533126,-0.0020727092377280203,80.09584471884243,0.0
1333,-0.03585168314184335,-0.002818905107211462,79.78022004607529,0.0
1334,-0.036622887340606904,-0.0036111342696204343,79.47365602383567,0.0
1335,-0.03754435404120485,-0.004365568804536478,79.17625075158979,0.0
1336,-0.03848515576436416,-0.0049738252699900055,78.88810133378627,0.0
1337,-0.039265147333694704,-0.005322627224680885,78.60930430400272,0.0
1338,-0.03969570841696997,-0.005319944149607282,78.33995604576378,0.0
1339,-0.039629725349535044,-0.004921991845468005,78.08015321086658,0.0
1340,-0.039007578148200855,-0.004154377754262085,77.82999313610034,0.0
1341,-0.03788611076087448,-0.003121110196842269,77.58957425929904,0.0
1342,-0.03644188768042022,-0.0019972062332686046,77.35899653571883,0.0
1343,-0.034946735856553564,-0.0010038939977387363,77.13836185578768,0.0
1344,-0.03372002263185824,-0.0003692665013502569,76.92777446533158,0.0
1345,-0.033066436204333666,-0.00028088658870456507,76.7273413894433,0.0
1346,-0.03320996818010286,-0.0008394456985257523,76.53717286122355,0.0
1347,-0.0342352888813136,-0.0020234838530966493,76.35738275669453,0.0
1348,-0.036047604673499316,-0.0036740250869135398,76.1880890372592,0.0
1349,-0.03836125131540365,-0.005504801989158761,76.02941420116106,0.0
1350,-0.0407247116462504,-0.007138992652459195,75.88148574548627,0.0
1351,-0.04258446043734382,-0.008167923231636889,75.74443664034517,0.0
1352,-0.04338193697326526,-0.008222122159165478,75.61840581697409,0.0
1353,-0.0426682981763529,-0.00704163335554196,75.5035386716133,0.0
1354,-0.040213041665290605,-0.004531578514656135,75.39998758714098,0.0
1355,-0.036078575824394665,-0.0007910802284562027,75.30791247458137,0.0
1356,-0.030636512962494783,0.003891405523234439,75.22748133675661,0.0
1357,-0.024514050617224045,0.009076514619659774,75.15887085651897,0.0
1358,-0.018477964386744674,0.014239230137455938,75.10226701218441,0.0
1359,-0.013283461177464612,0.01884836640218492,75.0578657229925,0.0
1360,-0.009527705668702905,0.022444869416905478,75.02587352764283,0.0
1361,-0.0075473378539671135,0.024704285711740905,75.00650829920802,0.0
1362,-0.007384967030370391,0.025472837885146916,75.0,1.0
1363,-0.00882675637768039,0.02477279828308672,75.00085924876892,0.0
1364,-0.011490976018829924,0.022779572929531415,75.00343571277854,0.0
1365,-0.014934498973357467,0.01977837920610854,75.00772764510215,0.0
1366,-0.018744720642880706,0.016111398356203024,75.01373353351063,0.0
1367,-0.022596146113347457,0.012126390354695874,75.02145209971346,0.0
1368,-0.02626726979217033,0.0081353905765821,75.03088229868047,0.0
1369,-0.029627055138217284,0.004388275635303229,75.04202331804373,0.0
1370,-0.0326067994774744,0.0010619058380869125,75.05487457757913,0.0
1371,-0.035172067909750984,-0.001737737654229801,75.06943572876709,0.0
1372,-0.037303504727903114,-0.0039648934200933236,75.0857066544324,0.0
1373,-0.038988546747234856,-0.00561969251031614,75.10368746846252,0.0
1374,-0.04022135640185446,-0.006734186452591718,75.12337851560429,0.0
1375,-0.041006759309737316,-0.007361227157447248,75.14478037133878,0.0
1376,-0.04136488520049762,-0.007567023287069181,75.16789384183414,0.0
1377,-0.0413349032996721,-0.0074268206907571535,75.19271996397639,0.0
1378,-0.040977255369496354,-0.007022334785667517,75.21926000547792,0.0
1379,-0.04037368396120501,-0.006439375594542289,75.24751546506391,0.0
1380,-0.03962377134053266,-0.005764469433964965,75.27748807273669,0.0
1381,-0.03883672159468952,-0.0050800015238171865,75.30917979011781,0.0
1382,-0.03811836590886466,-0.004458228818758856,75.34259281086857,0.0
1383,-0.03755551792849763,-0.003955187733512506,75.37772956118845,0.0
1384,-0.037201732571671274,-0.0036058484585871717,75.41459270039233,0.0
1385,-0.03706903159416721,-0.0034217530771562996,75.45318512156645,0.0
1386,-0.03712873105685706,-0.0033918576702423307,75.4935099523035,0.0
1387,-0.03732160759621274,-0.0034865403096839983,75.53557055551722,0.0
1388,-0.03757447303878321,-0.0036639721548565865,75.5793705303371,0.0
1389,-0.03781811345173299,-0.0038775115758211175,75.62491371308333,0.0
1390,-0.0380013238896938,-0.00408262824199414,75.67220417832299,0.0
1391,-0.03809744499362547,-0.004242125678325583,75.7212462400076,0.0
1392,-0.03810262147871114,-0.00432900456753323,75.77204445269315,0.0
1393,-0.038027809856422824,-0.004326999603473124,75.82460361284284,0.0
1394,-0.0378883538813575,-0.0042294106880546994,75.87892876021367,0.0
1395,-0.037695232749013555,-0.004037165088646456,75.9350251793274,0.0
1396,-0.03745098152037865,-0.003757022896730024,75.99289840102692,0.0
1397,-0.037151316157547104,-0.003400521754280039,76.05255420411892,0.0
1398,-0.036791356041232244,-0.0029837867564716618,76.11399861710363,0.0
1399,-0.036373685070246506,-0.0025278828169440553,76.17723791999312,0.0
1400,-0.0359148422782105,-0.002059109680103575,76.24227864621855,0.0
1401,-0.03544742018668125,-0.0016086109262149003,76.30912758462838,0.0
1402,-0.035016589230561,-0.0012108719673034757,76.37779178157786,0.0
1403,-0.03467194399041368,-0.0009010247942543959,76.44827854311181,0.0
1404,-0.03445726641909385,-0.0007112297643948277,76.52059543724161,0.0
1405,-0.034401480183005276,-0.0006666532016268784,76.5947502963179,0.0
1406,-0.034513531322877725,-0.000781646937273852,76.6707512195004,0.0
1407,-0.0347824436807472,-0.0010566769979427067,76.74860657532666,0.0
1408,-0.035181924199285286,-0.0014764141413483346,76.82832500438087,0.0
1409,-0.03567727380558109,-0.0020092751819618705,76.90991542206484,0.0
1410,-0.036231566966640705,-0.0026086456386184586,76.99338702147271,0.0
1411,-0.036808481333478006,-0.0032160102366762056,77.07874927637118,0.0
1412,-0.03737081304819841,-0.003766188298875429,77.1660119442871,0.0
1413,-0.03787610695352487,-0.004194700259556972,77.2551850697048,0.0
1414,-0.0382729819638438,-0.00444688871332812,77.34627898737455,0.0
1415,-0.03850251387271037,-0.0044877832541367025,77.43930432573497,0.0
1416,-0.03850770976560238,-0.004310966801404342,77.5342720104511,0.0
1417,-0.03825076956861265,-0.003944130594348043,77.63119326807069,0.0
1418,-0.037733567580704785,-0.003448909321338508,77.73007962980115,0.0
1419,-0.037013383963555524,-0.0029132203314072907,77.83094293540942,0.0
1420,-0.036205156513319285,-0.002435759650017381,77.93379533724762,0.0
1421,-0.035464338146131216,-0.002104330563725943,78.03864930440699,0.0
1422,-0.034950350908196474,-0.0019718241944034513,78.14551762700302,0.0
1423,-0.03477779931836106,-0.0020352907523752033,78.25441342059447,0.0
1424,-0.03496857031377004,-0.00222400320570556,78.3653501307396,0.0
1425,-0.03542048554114011,-0.0024013201902847716,78.47834153769244,0.0
1426,-0.035906019867233324,-0.0023825085761283223,78.59340176124239,0.0
1427,-0.0361077772621607,-0.00196697460264227,78.71054526570063,0.0
1428,-0.03568727111239048,-0.000979467283616591,78.82978686503655,0.0
1429,-0.0343726279440177,0.0006881629430695439,78.95114172816817,0.0
1430,-0.03204245895242114,0.0030441883211856265,79.07462538440984,0.0
1431,-0.02878067472519809,0.005981489333972604,79.20025372908128,0.0
1432,-0.024882601102073,0.00928406569121906,79.32804302928221,0.0
1433,-0.020805976078505557,0.012655362813276451,79.45800992983608,0.0
1434,-0.01707756691464918,0.015763049041604575,79.59017145940786,0.0
1435,-0.014181041677925433,0.018290941087334495,79.72454503679984,0.0
1436,-0.012458196238027146,0.019987147512503155,79.86114847743035,0.0
1437,-0.012050700822245398,0.020698625964693993,80.0,1.0
1438,-0.012895189303549699,0.02038588368215161,80.18457943701931,0.0
1439,-0.014766862447903518,0.01911647248838696,80.45642780400811,0.0
1440,-0.017352896887589148,0.01704087252065539,80.81300665232843,0.0
1441,-0.02033145865631306,0.014358030245351552,81.25219515824388,0.0
1442,-0.023435334305655798,0.011279363454827995,81.77223275523725,0.0
1443,-0.026487825118429585,0.007999258026779265,82.37166753693035,0.0
1444,-0.02940815767238879,0.004677382143369031,83.04930895477789,0.0
1445,-0.032191105334473884,0.001434410342329349,83.80418353242827,0.0
1446,-0.034869905086848785,-0.0016409643893651677,84.63549246762202,0.0
1447,-0.03747352902772851,-0.004478599928452785,85.54257010366041,0.0
1448,-0.03998969664999258,-0.0070130852602742,86.5248423345448,0.0
1449,-0.04234374971428285,-0.009174959460607557,87.58178406810477,0.0
1450,-0.044400173738644445,-0.010890316784607865,88.71287491612912,0.0
1451,-0.045987939370261084,-0.012089234066437594,89.91755231557455,0.0
1452,-0.04694382636170048,-0.01272055345672491,91.19516131618306,0.0
1453,-0.04716158111164068,-0.012768467423734164,92.54490030342342,0.0
1454,-0.04663172231298467,-0.012265646977488057,93.96576196832251,0.0
1455,-0.04545876172690134,-0.01129849049235591,95.45646889509189,0.0
1456,-0.043849288985210504,-0.010002166322582828,97.01540322222957,0.0
1457,-0.0420734622208188,-0.008545835680763395,98.64052995301043,0.0
1458,-0.0404106236697156,-0.0071109682021916415,100.32931365836467,0.0
1459,-0.039094204954700416,-0.00586728040972681,102.07862854173214,0.0
1460,-0.0382705847091831,-0.004951118781863339,103.88466213521018,0.0
1461,-0.037981692244949204,-0.004450079179536499,105.74281328316165,0.0
1462,-0.03817375328601064,-0.004395715116211764,107.6475855567411,0.0
1463,-0.038726948133818925,-0.004764013288145804,109.59247784160478,0.0
1464,-0.03949500470463819,-0.005481616790651176,111.56987455804989,0.0
1465,-0.040341389432357766,-0.006435066704489502,113.57093880726124,0.0
1466,-0.04116047697873013,-0.0074807551706340585,115.58551267749448,0.0
1467,-0.04187758051338811,-0.008454564429005565,117.60202996282935,0.0
1468,-0.04242964145184261,-0.009181707508583563,119.60744759756273,0.0
1469,-0.042736386094460906,-0.00948837101154907,121.58720311994931,0.0
1470,-0.0426770350760248,-0.009216818593011902,123.5252063506682,0.0
1471,-0.04208772110753566,-0.00824445300636634,125.40387407610382,0.0
1472,-0.04078853986155373,-0.006505254695138988,127.20421671027009,0.0
1473,-0.03863780289448778,-0.004009749006293809,128.90598550023697,0.0
1474,-0.035598250596610675,-0.0008581375388858267,130.48788766415333,0.0
1475,-0.03179102136530171,0.002758738785103388,131.92787475524764,0.0
1476,-0.027512927087816608,0.006574022130528498,133.20350642815154,0.0
1477,-0.023202832471851384,0.01027498427352054,134.29238763184782,0.0
1478,-0.01936064394314823,0.013544527363758226,135.17267217666478,0.0
1479,-0.01644049988096109,0.016106398726219048,135.8236198839501,0.0
1480,-0.014750407142124179,0.017764821366008276,136.2261885543702,0.0
1481,-0.014389202464781063,0.018430053243007102,136.36363636363637,1.0
1482,-0.015239077427637124,0.01812455614936507,136.35911316571867,0.0
1483,-0.017013329176165964,0.01696911041054304,136.3458173816416,0.0
1484,-0.01934168790640835,0.015153010621488074,136.32416202715712,0.0
1485,-0.021865502125092032,0.012896042282914386,136.2945627755182,0.0
1486,-0.024314868316423623,0.010411299740373216,136.2574374630074,0.0
1487,-0.026548316605056712,0.007876790970737763,136.213205618038,0.0
1488,-0.028549070976812498,0.005420660970564449,136.16228801455586,0.0
1489,-0.03038549222899566,0.0031207850095184017,136.10510625035474,0.0
1490,-0.032153067150639626,0.001015670859095939,136.0420823508072,0.0
1491,-0.03391877059615525,-0.0008788853980076818,135.97363839840835,0.0
1492,-0.03568531666759445,-0.0025535576160381135,135.90019618843138,0.0
1493,-0.03738433741642033,-0.003994603724640123,135.82217691090065,0.0
1494,-0.03889712925359768,-0.005180793528273489,135.74000085900394,0.0
1495,-0.04009297836802648,-0.006087751831228282,135.65408716398477,0.0
1496,-0.04087084625623694,-0.006696984430390836,135.56485355648536,0.0
1497,-0.041191010890125244,-0.0070056755594487385,135.4727161542449,0.0
1498,-0.04108794512348007,-0.007033534076800295,135.3780892760002,0.0
1499,-0.04066219857308349,-0.006824298478097437,135.28138528138527,0.0
1500,-0.040055275022006634,-0.006441444069639602,135.18301443658166,0.0
1501,-0.039415898608044446,-0.005959503040933467,135.08338480543546,0.0
1502,-0.038867707309238324,-0.005453632353088613,134.98290216572568,0.0
1503,-0.03848708702435245,-0.004990320660156392,134.881969950246,0.0
1504,-0.03829614205733957,-0.004621416512470387,134.78098921234408,0.0
1505,-0.03827096073058575,-0.004382288881901623,134.68035861555242,0.0
1506,-0.03836094077979533,-0.004293389647439305,134.5804744469401,0.0
1507,-0.03851224564749608,-0.004363299447528207,134.4817306538161,0.0
1508,-0.03868796923642278,-0.004590900892201344,134.3845189034223,0.0
1509,-0.038879007729494076,-0.004964794206675421,134.289228665267,0.0
1510,-0.03910228168831893,-0.005459323037905312,134.19624731576826,0.0
1511,-0.039386181872653754,-0.006028233522535153,134.10596026490066,0.0
1512,-0.039746517198444346,-0.006598516742328834,134.01875110456697,0.0
1513,-0.04015944268698462,-0.007067844033499599,133.93500177845107,0.0
1514,-0.04054018941953547,-0.007308804942976722,133.85509277314702,0.0
1515,-0.04073694144393371,-0.007181787799084923,133.77940333040368,0.0
1516,-0.04054695266246307,-0.006556042725524862,133.7083116803717,0.0
1517,-0.0397565792877982,-0.005335806438185757,133.64219529579472,0.0
1518,-0.03819903544766494,-0.0034861226021638946,133.5814311671438,0.0
1519,-0.035815492711010796,-0.0010519294834146734,133.526396098758,0.0
1520,-0.03269993977826411,0.001835378324131554,133.47746702612204,0.0
1521,-0.029109314623924437,0.004967323702375142,133.43502135448443,0.0
1522,-0.02542924046742863,0.00808342827862529,133.3994373190995,0.0
1523,-0.02210014506663117,0.01090782917882837,133.37109436745877,0.0
1524,-0.019523152814792014,0.013190146381587069,133.3503735639683,0.0
1525,-0.017973504895462206,0.014742000435161664,133.33765801762323,0.0
1526,-0.017547459677401483,0.015461525887048019,133.33333333333334,1.0
1527,-0.01815733010430777,0.015341214079350877,133.3378552887312,0.0
1528,-0.019573283918292446,0.014458599881196924,133.35114465576837,0.0
1529,-0.021496039898563347,0.012953465176473212,133.37278903256816,0.0
1530,-0.023636567096673635,0.0109981771573185,133.40237872511025,0.0
1531,-0.02577922210694267,0.00876872245736442,133.43950624375037,0.0
1532,-0.027812222943839487,0.006422785740385758,133.48376582675192,0.0
1533,-0.0297207574728418,0.004088358530925016,133.5347529900734,0.0
1534,-0.031549638668904374,0.0018628269620797732,133.59206410277855,0.0
1535,-0.03335107775607797,-0.00018060227838238548,133.65529598754824,0.0
1536,-0.035136732263189294,-0.0019840069566664344,133.72404554588078,0.0
1537,-0.03685086432827602,-0.003498190686492573,133.79790940766551,0.0
1538,-0.03837388261377818,-0.0046815728450886,133.87648360490846,0.0
1539,-0.03955497325311795,-0.005504994332652317,133.959363269474,0.0
1540,-0.0402623079918574,-0.00596026497187465,134.04614235478752,0.0
1541,-0.040432911197014906,-0.006068551289779333,134.1364133815181,0.0
1542,-0.040104013005768525,-0.005884460232587442,134.22976720732834,0.0
1543,-0.03941391071726436,-0.005492963643686185,134.3257928208406,0.0
1544,-0.0385709711630696,-0.004998655969400805,134.42407716002626,0.0
1545,-0.037800606556721766,-0.004509420418386949,134.5242049552739,0.0
1546,-0.03728760152225476,-0.004118511867128815,134.62575859743762,0.0
1547,-0.03713220922998825,-0.00388970237460215,134.72831803120528,0.0
1548,-0.03733284986444377,-0.0038492803582026724,134.8314606741573,0.0
1549,-0.0377986399822441,-0.003986649663738335,134.93476136191433,0.0
1550,-0.038385287343478965,-0.00426272270672972,135.03779231978896,0.0
1551,-0.038941464219010236,-0.0046230676158696,135.140123161371,0.0
1552,-0.03935114965122342,-0.005011549676631565,135.24132091447925,0.0
1553,-0.039560183584452485,-0.005380357515456583,135.34095007491226,0.0
1554,-0.03958078575333551,-0.005693743194642633,135.43857268842007,0.0
1555,-0.03947420928987247,-0.005925057279721736,135.53374846130225,0.0
1556,-0.039317548943968286,-0.006049010726896674,135.62603490001274,0.0
1557,-0.03916499517225189,-0.0060328091540810085,135.7149874801182,0.0
1558,-0.039015745850768876,-0.005830340782522137,135.8001598449164,0.0
1559,-0.0387996965638423,-0.0053827698531108935,135.88110403397027,0.0
1560,-0.038387628376477745,-0.0046269177642115356,135.9573707417559,0.0
1561,-0.037625469699145916,-0.0035102826192058446,136.0285096065557,0.0
1562,-0.03638409358121028,-0.0020092196082163167,136.09406952965233,0.0
1563,-0.03460972496466407,-0.00014540289510675715,136.15359902479514,0.0
1564,-0.032358111840362,0.0020043305801217748,136.20664659781858,0.0
1565,-0.02979969511914426,0.00430825656767768,136.25276115619067,0.0
1566,-0.027192350211773787,0.00659124068567676,136.2914924481611,0.0
1567,-0.024829582194006484,0.008655766935437948,136.32239153106104,0.0
1568,-0.022980610113957037,0.010308601409364283,136.34501126818276,0.0
1569,-0.021840703204628383,0.011387976720248622,136.3589068535355,0.0
1570,-0.021504649646409024,0.011786288527759481,136.36363636363637,1.0
1571,-0.02196624632430987,0.011464535197158888,136.35788022953975,0.0
1572,-0.023137176202259767,0.010456632202235357,136.34074925813434,0.0
1573,-0.02487385891980874,0.00886371798642463,136.31245371175552,0.0
1574,-0.0270021620538784,0.006840162327543574,136.27320906556287,0.0
1575,-0.029335285249203532,0.004573946280889213,136.22323566385325,0.0
1576,-0.031685939892121574,0.0022644038984211056,136.16275837745218,0.0
1577,-0.033876962667605565,0.00010016404176257888,136.09200626299693,0.0
1578,-0.03575375412929621,-0.0017602854147021141,136.01121222488973,0.0
1579,-0.03719875530282532,-0.003203512060877687,135.92061268066428,0.0
1580,-0.038144961576325576,-0.0041701969458684054,135.82044723046928,0.0
1581,-0.03858413953384849,-0.004657606791646525,135.7109583313355,0.0
1582,-0.038566483592425004,-0.004715417520939335,135.5923909768508,0.0
1583,-0.03819108490606323,-0.004435541292985628,135.4649923828288,0.0
1584,-0.037589289497381675,-0.003937312256604269,135.3290116795132,0.0
1585,-0.03690455556548101,-0.003349979906495402,135.1846996108205,0.0
1586,-0.0362724248482715,-0.0027948398643767775,135.0323082410802,0.0
1587,-0.035803253399214204,-0.002369420782942186,134.87209066969103,0.0
1588,-0.03556931402819623,-0.0021359060402417057,134.70430075407094,0.0
1589,-0.03559734180850729,-0.0021154106548898583,134.5291928412362,0.0
1590,-0.03586741953625951,-0.002288912871802092,134.3470215083078,0.0
1591,-0.03631875816514327,-0.0026046513835703516,134.1580413122008,0.0
1592,-0.036862043547795424,-0.0029907721705851684,133.96250654871795,0.0
1593,-0.0373967197796141,-0.0033710961185950713,133.76067102122852,0.0
1594,-0.037830361015571065,-0.003681238477476015,133.5527878190801,0.0
1595,-0.03809664065187411,-0.0038820829076312556,133.339109105855,0.0
1596,-0.03816854202660178,-0.003967886976875367,133.11988591755173,0.0
1597,-0.038064257433088555,-0.003967089174894575,132.89536797073842,0.0
1598,-0.037844409013614216,-0.003935126305791471,132.66580348069704,0.0
1599,-0.03760050346953683,-0.003940088172511388,132.43143898954796,0.0
1600,-0.037435730897812325,-0.004043587338867021,132.19251920431844,0.0
1601,-0.03744035254890135,-0.004280507863465809,131.94928684489236,0.0
1602,-0.03766513180517677,-0.004642014964799181,131.701982501757,0.0
1603,-0.0380975913683046,-0.005066108876444857,131.4508445034393,0.0
1604,-0.038647029151599774,-0.005438965265088485,131.19610879350537,0.0
1605,-0.039144488580988124,-0.005608382866673198,130.93800881697766,0.0
1606,-0.03936238281398075,-0.005408141522321763,130.67677541600818,0.0
1607,-0.039054654448397466,-0.00468945581230291,130.41263673463078,0.0
1608,-0.03801245797611838,-0.0033536155014580148,130.1458181324018,0.0
1609,-0.036123747034323556,-0.001378941517958273,129.87654210672693,0.0
1610,-0.033420269743030064,0.0011642369039996671,129.60502822366072,0.0
1611,-0.030095191748351117,0.004114717764497805,129.33149305695682,0.0
1612,-0.026480801696303697,0.007238463396353681,129.05615013513912,0.0
1613,-0.0229878022914219,0.01026058510658982,128.77920989635695,0.0
1614,-0.02002144693334033,0.01290515437957873,128.5008796507831,0.0
1615,-0.017899101204871922,0.014934996354132644,128.22136355030923,0.0
1616,-0.0167937809641136,0.01618381672864612,127.94086256528986,0.0
1617,-0.016718332300278888,0.016575042500377835,127.65957446808511,1.0
1618,-0.017549718013512787,0.016125000024127995,127.34512826159023,0.0
1619,-0.0190794566208541,0.014931569016343522,126.96693337907003,0.0
1620,-0.02107025787709559,0.013152292825977947,126.52796101104772,0.0
1621,-0.023301625007668227,0.010977441866706163,126.0313018006534,0.0
1622,-0.02559560515397372,0.008603528651429576,125.4801402989711,0.0
1623,-0.02782300182186216,0.006211523247573186,124.87773019786307,0.0
1624,-0.029896321815114736,0.00395207972833558,124.22737060291593,0.0
1625,-0.03175732170566847,0.0019380964245380786,123.53238356821751,0.0
1626,-0.03336541564141022,0.00024341036631963207,122.79609307307065,0.0
1627,-0.034690428925281534,-0.0010943593131077594,122.02180557966838,0.0
1628,-0.035710708857782,-0.002068845944039997,121.21279227121349,0.0
1629,-0.03641588109995964,-0.002699371600675729,120.37227303280005,0.0
1630,-0.036812351966792244,-0.0030255652204778534,119.50340220323527,0.0
1631,-0.03692880219116341,-0.003102261885667952,118.60925609533436,0.0
1632,-0.03681858543014014,-0.002994381189885351,117.6928222553629,0.0
1633,-0.03655656180936102,-0.0027714425167259635,116.7569904093693,0.0
1634,-0.03622963665411113,-0.002501639315054855,115.80454502514773,0.0
1635,-0.03592268324938428,-0.00224580408715007,114.83815940339028,0.0
1636,-0.03570361010938882,-0.002051954981378945,113.86039120002044,0.0
1637,-0.03561206927148014,-0.0019512633689048996,112.8736792734873,0.0
1638,-0.03565524525887814,-0.0019561502821952887,111.88034174561415,0.0
1639,-0.03581171005147345,-0.0020608488279209728,110.8825751620968,0.0
1640,-0.03604152003707423,-0.002244287406714745,109.88245463857493,0.0
1641,-0.036298748992960185,-0.0024747149591761415,108.88193487999304,0.0
1642,-0.03654228358794151,-0.0027152338676317673,107.88285196438224,0.0
1643,-0.03674200960733972,-0.0029293808618373676,106.88692578690001,0.0
1644,-0.03687980209390591,-0.003086064855323129,105.895763065662,0.0
1645,-0.036946913957421605,-0.0031634330926639913,104.91086081731373,0.0
1646,-0.03694049247618089,-0.0031514785778485096,103.93361021718222,0.0
1647,-0.03686168977564982,-0.0030533430719839,102.9653007660071,0.0
1648,-0.036716494079314994,-0.0028852971292054933,102.00712469250267,0.0
1649,-0.03651871120711436,-0.0026753425070101134,101.06018152819878,0.0
1650,-0.036293199575270586,-0.00246036902197828,100.12548279803201,0.0
1651,-0.036076992902883,-0.002281885265517802,99.20395677691381,0.0
1652,-0.03591648282082383,-0.0021805604133803523,98.2964532689234,0.0
1653,-0.035860183472186544,-0.002190125554278212,97.40374837180619,0.0
1654,-0.035948282441975926,-0.0023314921167874106,96.52654919507303,0.0
1655,-0.03620159441105701,-0.002608131486471685,95.66549850517336,0.0
1656,-0.03661317006808224,-0.003003723210589558,94.82117927595019,0.0
1657,-0.03714542476046579,-0.0034827794058040302,93.99411912688085,0.0
1658,-0.03773428959552709,-0.003994431881486484,93.18479463547739,0.0
1659,-0.038299886201407285,-0.0044789424973977615,92.39363551367985,0.0
1660,-0.03876118821632217,-0.004875924100644373,91.62102864115015,0.0
1661,-0.039050826213473375,-0.005132889329345266,90.8673219510853,0.0
1662,-0.03912623892330795,-0.005212673551783541,90.13282816654713,0.0
1663,-0.03897483684214662,-0.005098519408888215,89.41782838737731,0.0
1664,-0.038613067933393086,-0.004796094354928878,88.72257552956145,0.0
1665,-0.03808118295419354,-0.004332313982230396,88.04729762045139,0.0
1666,-0.03743621369503668,-0.0037514229192972563,87.39220095458182,0.0
1667,-0.03674504722960486,-0.0031092253937907684,86.75747311594675,0.0
1668,-0.036078139409675955,-0.002466587966917528,86.14328587356528,0.0
1669,-0.0355033562448615,-0.0018833333716280196,85.54979795798508,0.0
1670,-0.03507937670641086,-0.0014134197324389124,84.97715772706893,0.0
1671,-0.034849030187226605,-0.0011018938259429855,84.42550573000884,0.0
1672,-0.03483416643954599,-0.0009835865144041016,83.8949771790302,0.0
1673,-0.03503418760835013,-0.001082980605149799,83.38570433870805,0.0
1674,-0.035429575564180645,-0.0014142565337705779,82.89781884323344,0.0
1675,-0.03598976630504662,-0.0019803564284384028,82.43145395235923,0.0
1676,-0.03668246286708834,-0.002770126180649066,81.98674675713711,0.0
1677,-0.037480119540936586,-0.003753243557551204,81.56384034694601,0.0
1678,-0.038359674053795804,-0.004873634970021401,81.1628859497237,0.0
1679,-0.039293686247587035,-0.0060431934608971795,80.78404505776068,0.0
1680,-0.040234226776594106,-0.007138488862584212,80.42749155191639,0.0
1681,-0.04109423441490849,-0.008003430003643425,80.09341383768626,0.0
1682,-0.041733730493778244,-0.008460211508169873,79.78201700720234,0.0
1683,-0.041959359137008455,-0.008329283178123667,79.4935250420044,0.0
1684,-0.04154425243992305,-0.007456747456160076,79.22818307229652,0.0
1685,-0.040270453024572765,-0.005745053057550084,78.98625970942255,0.0
1686,-0.03798832421699384,-0.0031808463228377715,78.76804946947742,0.0
1687,-0.034678593400605494,0.00014689364848363565,78.57387530734651,0.0
1688,-0.030496633342520462,0.004044279610883618,78.40409128206275,0.0
1689,-0.025779201969053523,0.008228519092311853,78.25908537622065,0.0
1690,-0.021002919143895748,0.012361433084660483,78.13928249433431,0.0
1691,-0.01669919577945299,0.016095111788864993,78.04514766751151,0.0
1692,-0.013346467406990234,0.019121007965679684,77.97718949469703,0.0
1693,-0.01127055379367738,0.02121249547124934,77.93596385407383,0.0
1694,-0.010583075372830807,0.02225219996544966,77.92207792207792,1.0
1695,-0.011175952825713514,0.022238988219179117,77.95701626288403,0.0
1696,-0.01277157965225163,0.021274414637310567,78.06008587677681,0.0
1697,-0.015010349610526231,0.019533277919492435,78.22891511120868,0.0
1698,-0.01754644863810747,0.017226366073482897,78.46142713868117,0.0
1699,-0.0201227206826588,0.014564549792883262,78.75580172112845,0.0
1700,-0.022605247334696703,0.011731942168023948,79.11044097469285,0.0
1701,-0.024973596961906333,0.00887245695448306,79.52393832837436,0.0
1702,-0.02727740647501774,0.006089886959106094,79.99504998798193,0.0
1703,-0.029578941155886784,0.0034578664978256444,80.52266831051877,0.0
1704,-0.031902372268399294,0.001033815417644497,81.10579656875558,0.0
1705,-0.034204913788394506,-0.0011293030065023706,81.74352464537843,0.0
1706,-0.03637600571327065,-0.002977958702758186,82.43500524405067,0.0
1707,-0.0382619508633012,-0.004461458111924503,83.17943024375114,0.0
1708,-0.039707050662452344,-0.005542314891311431,83.97600685518424,0.0
1709,-0.0405990128131484,-0.006209628154981106,84.8239332659847,0.0
1710,-0.04090599902757959,-0.006490350582632847,85.72237348677595,0.0
1711,-0.04069485152148445,-0.006453786038522434,86.67043113472928,0.0
1712,-0.040124605224078326,-0.006206538381699639,87.66712191695434,0.0
1713,-0.0394157993281474,-0.0058778644472141746,88.71134460471715,0.0
1714,-0.03880290020573083,-0.00559817598085717,89.80185032312531,0.0
