,PPG_Raw,PPG_Clean,PPG_Rate,PPG_Peaks
0,-0.7137333870938971,-0.14727671834013234,112.43144424131627,0.0
1,-0.8081965450797467,-0.229735120955526,112.43144424131627,0.0
2,-0.9015999009305007,-0.3121850317786274,112.43144424131627,0.0
3,-0.9933031809811267,-0.3944386542045001,112.43144424131627,0.0
4,-1.0829961260248813,-0.47608383963836487,112.43144424131627,0.0
5,-1.1705822497020943,-0.5563737770785072,112.43144424131627,0.0
6,-1.2558910066094777,-0.6341383463772996,112.43144424131627,0.0
7,-1.3383100261858756,-0.7077469900113944,112.43144424131627,0.0
8,-1.4164748253788229,-0.7751549424056616,112.43144424131627,0.0
9,-1.4881546458967982,-0.8340542685973713,112.43144424131627,0.0
10,-1.5504271202775204,-0.8821291074999049,112.43144424131627,0.0
11,-1.6001501064422836,-0.9173859030337147,112.43144424131627,0.0
12,-1.6346386740226457,-0.9385024399025425,112.43144424131627,0.0
13,-1.6523723904931662,-0.9451229969451903,112.43144424131627,0.0
14,-1.6535256063300436,-0.9380274680059645,112.43144424131627,0.0
15,-1.6401483525608254,-0.9191219134027168,112.43144424131627,0.0
16,-1.615919811112187,-0.8912332309544104,112.43144424131627,0.0
17,-1.5855194893704763,-0.8577332736198924,112.43144424131627,0.0
18,-1.5537716453178867,-0.8220571209829359,112.43144424131627,0.0
19,-1.5247793533448943,-0.7872062391608061,112.43144424131627,0.0
20,-1.501257450709402,-0.7553332538018649,112.43144424131627,0.0
21,-1.4842049021584214,-0.7274894794234854,112.43144424131627,0.0
22,-1.47295492501873,-0.7035829821365289,112.43144424131627,0.0
23,-1.465543173782986,-0.6825515958352762,112.43144424131627,0.0
24,-1.4592715334145345,-0.6627115323867916,112.43144424131627,0.0
25,-1.4513295880938992,-0.6422070013017187,112.43144424131627,0.0
26,-1.4393579667102323,-0.6194661611455011,112.43144424131627,0.0
27,-1.4218752980941587,-0.5935670384557759,112.43144424131627,0.0
28,-1.3985231582066164,-0.564433695643747,112.43144424131627,0.0
29,-1.370103423317646,-0.5328149705794926,112.43144424131627,0.0
30,-1.338395566492603,-0.5000404062646171,112.43144424131627,0.0
31,-1.3057592574572596,-0.46759381604150757,112.43144424131627,0.0
32,-1.274557953931288,-0.4365865919810497,112.43144424131627,0.0
33,-1.2464805672792576,-0.4072424635951432,112.43144424131627,0.0
34,-1.22188108881239,-0.378515951583158,112.43144424131627,0.0
35,-1.199286926860857,-0.34795356679878026,112.43144424131627,0.0
36,-1.17523221397004,-0.3118690582152612,112.43144424131627,0.0
37,-1.14454088087624,-0.2658459079915714,112.43144424131627,0.0
38,-1.1011093163527816,-0.2055112803734515,112.43144424131627,0.0
39,-1.0391246492581985,-0.1274594523424235,112.43144424131627,0.0
40,-0.9545225548348615,-0.030154804048361072,112.43144424131627,0.0
41,-0.8463730463333117,0.08537176132717483,112.43144424131627,0.0
42,-0.7178278425306011,0.21519586824725462,112.43144424131627,0.0
43,-0.5763080245055688,0.3526435722708975,112.43144424131627,0.0
44,-0.43276835840577066,0.4889186773646571,112.43144424131627,0.0
45,-0.3001130630789035,0.6141289257905036,112.43144424131627,0.0
46,-0.1910846527389516,0.7185437332564654,112.43144424131627,0.0
47,-0.11611568005601285,0.7938678023463472,112.43144424131627,0.0
48,-0.0816567493647871,0.8343129142967473,112.43144424131627,0.0
49,-0.089358112245216,0.8372944517359331,112.43144424131627,1.0
50,-0.1362315797652065,0.8036577536792564,112.97532637807089,0.0
51,-0.21564267141607618,0.737431884378273,113.52091065338625,0.0
52,-0.31877628766493415,0.6451921888589163,114.06811109718824,0.0
53,-0.4361488045120939,0.5351698130335021,114.61683862195379,0.0
54,-0.5588153787989426,0.41626704676218973,115.16700096792047,0.0
55,-0.6790965312410282,0.2971235011380715,115.71850264922405,0.0
56,-0.7908435054121372,0.18534012931424784,116.27124490109344,0.0
57,-0.8894026732824161,0.08692059421824191,116.82512562823611,0.0
58,-0.9714845028992715,0.005946180509284409,117.38003935455514,0.0
59,-1.0350951080467203,-0.055529972713190864,117.93587717434191,0.0
60,-1.0795849416230816,-0.09739908053088545,118.49252670509718,0.0
61,-1.105760614464703,-0.1212575022747829,119.04987204213562,0.0
62,-1.1159367681613215,-0.13004604265337252,119.60779371513732,0.0
63,-1.1137996574768871,-0.12760287428487513,120.16616864681347,0.0
64,-1.1040109279643704,-0.11817049994529108,120.7248701138596,0.0
65,-1.0915745576898201,-0.10590515490141977,121.28376771037449,0.0
66,-1.0810847652842541,-0.09444301550998549,121.84272731392925,0.0
67,-1.0760310722413122,-0.08657592500526315,122.40161105447406,0.0
68,-1.0783353901616812,-0.0840762536568944,122.96027728627703,0.0
69,-1.0882341481213877,-0.0876859645140437,123.51858056309248,0.0
70,-1.1045185692879598,-0.09725332645404047,124.07637161676108,0.0
71,-1.1250449769862987,-0.11196970369992564,124.63349733944833,0.0
72,-1.1473592813183497,-0.13063720248099506,125.18980076973101,0.0
73,-1.1692636027043197,-0.1518927384962862,125.74512108274496,0.0
74,-1.1891846285085705,-0.17432840212456194,126.2992935846104,0.0
75,-1.2062643105747681,-0.1964797854826666,126.85214971135281,0.0
76,-1.220163209267785,-0.2166961827308434,127.40351703254102,0.0
77,-1.230631560254945,-0.23294879343368657,127.95321925986268,0.0
78,-1.2369579535339705,-0.24266368222537624,128.50107626086177,0.0
79,-1.2374486765244126,-0.2426754478860634,129.04690407805936,0.0
80,-1.229116192490293,-0.22937992211373842,129.5905149536817,0.0
81,-1.2077480333358706,-0.19912074124056345,130.13171736021587,0.0
82,-1.168468415072932,-0.1487834059700653,130.67031603701327,0.0
83,-1.1067847775338127,-0.07650563721072373,131.20611203315718,0.0
84,-1.0199470610337944,0.017638212577371082,131.73890275680873,0.0
85,-0.9082882354182149,0.13114214715824277,132.26848203123876,0.0
86,-0.7761294928366885,0.258907845195665,132.79464015775085,0.0
87,-0.6318811414085768,0.3935051373041471,133.31716398569154,0.0
88,-0.4871641777354523,0.5258543066452976,133.835836989739,0.0
89,-0.3550675698027456,0.6462373574927783,134.350439354651,0.0
90,-0.24794034602445464,0.7454689269605967,134.86074806764583,0.0
91,-0.175283724125392,0.8160189962630588,135.36653701857662,0.0
92,-0.14228724229487671,0.8528897801693753,135.86757710805165,0.0
93,-0.14935044428787939,0.8541052148447142,136.36363636363637,1.0
94,-0.19262574525576032,0.8207574769176085,136.86401519698853,0.0
95,-0.26532076782663994,0.7566471759683686,137.3775435118567,0.0
96,-0.35930990356640885,0.6676280612800387,137.90326140049888,0.0
97,-0.4665792406310763,0.560806011929004,138.4401803842113,0.0
98,-0.580160616471294,0.44374019246250845,138.9872812677717,0.0
99,-0.6944397296116926,0.3237583969122616,139.54351209881716,0.0
100,-0.8049591403562654,0.2074446059305418,140.1077862429281,0.0
101,-0.9079925085984586,0.10030345827096318,140.67898058667188,0.0
102,-1.000192824167565,0.006569114653772107,141.25593388231604,0.0
103,-1.0785219245591082,-0.07088760070404312,141.83744524934593,0.0
104,-1.1405056455463083,-0.13059152240048094,142.422272849294,0.0
105,-1.18470094005707,-0.17245119920675234,143.00913275169341,0.0
106,-1.21116674800085,-0.19769626261956855,143.59669801018305,0.0
107,-1.2217246426941197,-0.20874404020083537,144.18359796889325,0.0
108,-1.2198686355954742,-0.20897595621044018,144.7684178202003,0.0
109,-1.2103019437424383,-0.20241815803315283,145.34969843572867,0.0
110,-1.1981987198394883,-0.1933420303553729,145.92593649306596,0.0
111,-1.1883717774593479,-0.18582071302618183,146.49558492100553,0.0
112,-1.1845485057759495,-0.18329045003391461,147.0570536862082,0.0
113,-1.1889121859501275,-0.18816716972729958,147.6087109439411,0.0
114,-1.2019727399202014,-0.20156012934759426,148.14888457496886,0.0
115,-1.2227246554864355,-0.22311016501396758,148.6758641297079,0.0
116,-1.2489701412377046,-0.25096563943614386,149.1879031993633,0.0
117,-1.2776613138690391,-0.28189872817917866,149.68322223192874,0.0
118,-1.3051533565602227,-0.311559170844572,150.16001180860036,0.0
119,-1.3273440015344047,-0.3348594767005061,150.61643639332226,0.0
120,-1.339768361376593,-0.34648013260555394,151.05063856481678,0.0
121,-1.33778083913571,-0.34147131050830043,151.46074373655594,0.0
122,-1.3169548635168062,-0.31590758861609836,151.84486536569173,0.0
123,-1.273756495700054,-0.26752750652714063,152.20111064700194,0.0
124,-1.206420322801243,-0.1962678666722057,152.52758668244235,0.0
125,-1.1158235356526178,-0.1045931210155511,152.8224071109653,0.0
126,-1.0060752502686443,0.0024689476624265086,153.08369917692053,0.0
127,-0.8845572504849032,0.11763954494693671,153.30961120866664,0.0
128,-0.7612771665656514,0.2320491937046589,153.49832047207025,0.0
129,-0.6475887021520543,0.3361825930180095,153.64804135646153,0.0
130,-0.5545263264691743,0.4209864686974406,153.75703384346008,0.0
131,-0.4911209267816719,0.4789806500592674,153.82361220201355,0.0
132,-0.46306490150783536,0.5052040362720768,153.84615384615384,1.0
133,-0.4719853508143391,0.4978505753428049,153.77613822697953,0.0
134,-0.5154108937348989,0.4585003630675715,153.56950775897766,0.0
135,-0.5873474149361348,0.39191610075317407,153.23189369283412,0.0
136,-0.6792649298746479,0.30544175048218214,152.76952780125754,0.0
137,-0.7812651470593582,0.2080960749407399,152.1891461806268,0.0
138,-0.883237082655227,0.10949077081985159,151.49789211922112,0.0
139,-0.975882625245236,0.018718100948700328,150.7032201467102,0.0
140,-1.0515647026644328,-0.056652373656872146,149.8128031419905,0.0
141,-1.1049674918513075,-0.11135024572001659,148.83444410027877,0.0
142,-1.1335533765070887,-0.14286991491425632,147.77599386230193,0.0
143,-1.1377721841981285,-0.15158258134789587,146.64527580389046,0.0
144,-1.12095660292441,-0.14049618725600715,145.45001818674493,0.0
145,-1.0888528625849279,-0.11470861175367321,144.1977945915945,0.0
146,-1.0487973364884577,-0.08063763811864397,142.8959726017322,0.0
147,-1.0086403200401477,-0.04513871762879338,141.55167068365643,0.0
148,-0.9756009928008567,-0.014633504816206677,140.17172302545575,0.0
149,-0.955274451252992,0.005634452425220572,138.76265194365217,0.0
150,-0.9509825730965643,0.012125351962978398,137.33064735466445,0.0
151,-0.9635725665858527,0.003257593064513453,135.8815527256929,0.0
152,-0.9916513170020735,-0.02061575426905196,134.42085686847668,0.0
153,-1.0321409902809104,-0.057471851800082074,132.9536909142435,0.0
154,-1.0809852165941687,-0.10405489658256642,131.48482980517005,0.0
155,-1.1338376635521292,-0.15639850152575596,130.01869765266446,0.0
156,-1.186613248610312,-0.21034789937435286,128.55937634181234,0.0
157,-1.2358484078510812,-0.2620116389362346,127.1106168007373,0.0
158,-1.2788734816905187,-0.30809727379594914,125.67585240016366,0.0
159,-1.3138341841152499,-0.34611319779463556,124.25821399933055,0.0
160,-1.3396126332043337,-0.3744432723338418,122.86054620725304,0.0
161,-1.3557005118836893,-0.3923181181268391,121.4854244812711,0.0
162,-1.3620727896422264,-0.3997152874252451,120.13517273640106,0.0
163,-1.3590984765030507,-0.39722074534718377,118.81188118811882,0.0
164,-1.3475025728888448,-0.38587864033162433,117.5174241970997,0.0
165,-1.3283650234106867,-0.3670484292368713,116.25347792662892,0.0
166,-1.3031201860471606,-0.34228090278884166,115.021537661629,0.0
167,-1.273516238348272,-0.31321921019753507,113.82293467245165,0.0
168,-1.241510732640342,-0.2815277201319276,112.65885253681901,0.0
169,-1.2091071513549836,-0.24884924115695234,111.53034285974566,0.0
170,-1.1781639346560306,-0.21678792992064783,110.4383403541767,0.0
171,-1.150222268820386,-0.1869097691382539,109.38367726472882,0.0
172,-1.126399063278026,-0.16074484430777583,108.36709713364888,0.0
173,-1.1073772785288605,-0.13976773603752013,107.38926792224302,0.0
174,-1.0934971289339626,-0.12532778382716767,106.45079451291194,0.0
175,-1.0849111162286451,-0.11850401066796923,105.55223062689389,0.0
176,-1.0817239110786325,-0.11987337625252721,104.6940902011753,0.0
177,-1.0840140622053067,-0.12920621909168697,103.87685827508834,0.0
178,-1.0916484300620821,-0.14513561539392458,103.10100144315791,0.0
179,-1.1038615873518602,-0.16487996234454982,102.366977936058,0.0
180,-1.1186724736882936,-0.18411943743730647,101.67524739634437,0.0
181,-1.1323212574778105,-0.19712604461474095,101.02628042018831,0.0
182,-1.1389882328124292,-0.197216409224361,100.42056794088002,0.0
183,-1.1310588207728325,-0.17753636210234117,99.85863053463133,0.0
184,-1.1000957284103539,-0.13210610085448057,99.34102773441256,0.0
185,-1.0384779462434202,-0.056972490007086,98.86836744345294,0.0
186,-0.9414176893808279,0.04874612839860212,98.44131554686132,0.0
187,-0.8088555403070372,0.18215589441609842,98.06060582786536,0.0
188,-0.6466508602105324,0.33642068626701727,97.72705030472386,0.0
189,-0.46658715415865987,0.5012383171275201,97.44155011578768,0.0
190,-0.2849967380401428,0.6639374397276808,97.20510709387476,0.0
191,-0.1202002943975617,0.8110377829605652,97.01883618756023,0.0
192,0.010673133525746024,0.9300085365128989,96.88397890673401,0.0
193,0.0947053611189045,1.01090866992544,96.801917993537,0.0
194,0.12529174218958972,1.0476138845470833,96.7741935483871,1.0
195,0.10283271046411994,1.0384235413412326,96.8052684305057,0.0
196,0.03392804183490303,0.9859745232397664,96.89689633926125,0.0
197,-0.07059549368733774,0.8965328752916863,97.04683870269825,0.0
198,-0.19820266538955442,0.778851851798307,97.25304317518109,0.0
199,-0.3370155797653233,0.6428492243348759,97.51361765242618,0.0
200,-0.4774672497709584,0.4983562668343463,97.82680645008477,0.0
201,-0.6129732391297278,0.3541330876176695,98.19096825454344,0.0
202,-0.7396814263541757,0.21725209554476266,98.6045555094789,0.0
203,-0.8556207740411949,0.09285252502075626,99.0660949476241,0.0
204,-0.9596908418452657,-0.015808999781902672,99.57416901604108,0.0
205,-1.0508965101799426,-0.10712690571020708,100.12739797649432,0.0
206,-1.1280684183875471,-0.18084795362212375,100.72442249156092,0.0
207,-1.1900861224149109,-0.23778628402819363,101.36388653299282,0.0
208,-1.2364197603830027,-0.27958611838697056,102.04442047250231,0.0
209,-1.2676962513541237,-0.3085238145649932,102.76462423740641,0.0
210,-1.2860085169960056,-0.3273175684539095,103.52305043517816,0.0
211,-1.2948028185851048,-0.33891347908577096,104.31818737259051,0.0
212,-1.298345168953449,-0.34623658760617504,105.14844191741705,0.0
213,-1.3009182256906309,-0.3519237933181986,106.01212217415018,0.0
214,-1.3059863081814433,-0.3580791207889658,106.90741997043469,0.0
215,-1.3155684249756872,-0.3661003297503322,107.83239317837057,0.0
216,-1.3299864576256095,-0.37661521775914547,108.78494792493184,0.0
217,-1.348037432610201,-0.3895393375836487,109.76282077882044,0.0
218,-1.3675137753167856,-0.40423325726598763,110.76356103737096,0.0
219,-1.3858999566823358,-0.4197085450650721,111.7845132767674,0.0
220,-1.4010328549983688,-0.4348176487982537,112.82280037178671,0.0
221,-1.4115345064660005,-0.44836936162769303,113.87530723731216,0.0
222,-1.416900522654122,-0.45913773267995767,114.93866559247807,0.0
223,-1.417232747829903,-0.46577089780201236,116.00924009874333,0.0
224,-1.41271147644986,-0.4666459432811401,117.08311627432641,0.0
225,-1.4029826142885375,-0.45974420924666504,118.15609063775723,0.0
226,-1.3866683845145142,-0.44262869019596107,119.22366358087937,0.0
227,-1.3611884675408725,-0.41258727128180894,120.28103551406555,0.0
228,-1.3230062911762548,-0.36696532925060366,121.32310686084178,0.0
229,-1.2683074142984367,-0.303658162293292,122.34448250224962,0.0
230,-1.1939960916126744,-0.22168152916420591,123.33948127944463,0.0
231,-1.098790038259065,-0.12170176865213506,124.30215115229245,0.0
232,-0.9841319867400187,-0.006396843339303848,125.22629057805032,0.0
233,-0.8546449771858444,0.11945897436118053,126.10547661369355,0.0
234,-0.7179468876988467,0.24924454536401425,126.93310015457492,0.0
235,-0.5837948917038452,0.3750665920741686,127.70240859815095,0.0
236,-0.4627121246620197,0.488583098993721,128.4065560628977,0.0
237,-0.3643993944656095,0.5819464214968502,129.03866109925636,0.0
238,-0.2963002820306684,0.6487127594917002,129.59187160346931,0.0
239,-0.2626414720132484,0.6845732751819164,130.05943639079197,0.0
240,-0.2641254354285433,0.687800022545507,130.43478260869566,1.0
241,-0.2982603931484134,0.6593559816891827,130.76125521015658,0.0
242,-0.3601410947051206,0.6026782065050837,131.08628857572293,0.0
243,-0.44340299301507785,0.5231927175017627,131.4096232157087,0.0
244,-0.5410894391495662,0.4276504696923215,131.7309950863053,0.0
245,-0.6462797256308254,0.3233833763069848,132.05013563407437,0.0
246,-0.7524699228889583,0.2175719025037967,132.36677185215464,0.0
247,-0.8538100427783336,0.11659844796779616,132.68062634862375,0.0
248,-0.9453320471142963,0.025540803652170083,132.99141742744848,0.0
249,-1.0232488684100394,-0.052158250971427234,133.29885918244634,0.0
250,-1.0853026024438006,-0.11482509047764994,133.6026616046705,0.0
251,-1.1310478099509567,-0.16248889180381498,133.90253070361382,0.0
252,-1.161921101420537,-0.19662903050436153,134.19816864261074,0.0
253,-1.180988201410085,-0.21977220981935489,134.4892738887938,0.0
254,-1.192357557611898,-0.23499768446785896,134.77554137793953,0.0
255,-1.2003649235617764,-0.24542639530703375,135.05666269450944,0.0
256,-1.208720606188249,-0.25377583435562523,135.33232626716313,0.0
257,-1.2198368764200724,-0.26205222881202184,135.60221757998545,0.0
258,-1.2345075590418124,-0.27142449431037835,135.86601939963475,0.0
259,-1.2520110424483217,-0.28228485023448135,136.12341201857603,0.0
260,-1.270586563653072,-0.2944579434418528,136.3740735145217,0.0
261,-1.2881309791966353,-0.307484858022859,136.61768002615383,0.0
262,-1.3029086300334296,-0.32089054222475816,136.85390604515075,0.0
263,-1.3140711920079036,-0.334348958752444,137.08242472448865,0.0
264,-1.3218407372342278,-0.3476896424374841,137.302908202929,0.0
265,-1.3272999450978589,-0.3607359380563118,137.51502794554426,0.0
266,-1.331836973857877,-0.37301758962060216,137.71845510006892,0.0
267,-1.3363870547158125,-0.3834448830302598,137.9128608687983,0.0
268,-1.3406775067506969,-0.3900556824141854,138.09791689568593,0.0
269,-1.3427007470451076,-0.38994237343555616,138.27329566822164,0.0
270,-1.3386035943462617,-0.37943166744110624,138.43867093359572,0.0
271,-1.32309620152866,-0.3545327625525879,138.59371812858114,0.0
272,-1.2903663514884565,-0.311601376908251,138.73811482248712,0.0
273,-1.2353560044339025,-0.2481052861760546,138.87154117245916,0.0
274,-1.1551414024563071,-0.1633375835733381,138.99368039032225,0.0
275,-1.0500848958155087,-0.058918749548126606,139.10421922008283,0.0
276,-0.9244280901736608,0.06103850475272318,139.20284842512723,0.0
277,-0.786095056331586,0.19016281809773233,139.2892632840743,0.0
278,-0.6456659071884339,0.3204354952214631,139.36316409416258,0.0
279,-0.5147180983022942,0.44308012059662016,139.42425668097658,0.0
280,-0.40393451291194915,0.5495753693690891,139.47225291324241,0.0
281,-0.32146082090885114,0.6326171845307248,139.50687122135267,0.0
282,-0.27191625823871163,0.6868781471191827,139.52783711821158,0.0
283,-0.2562445235825037,0.7094658661930672,139.53488372093022,1.0
284,-0.2723176928586771,0.7000516523075457,139.51750805441054,0.0
285,-0.3159817791311737,0.660705449218894,139.4664061840589,0.0
286,-0.3821394671180781,0.5955161788383174,139.38314915995954,0.0
287,-0.4655282241732752,0.5100901168362455,139.26934667232743,0.0
288,-0.5610331638234268,0.41100612611370935,139.12663995377767,0.0
289,-0.6635948788353784,0.3052768254578022,138.95669495523612,0.0
290,-0.767945273286968,0.19983431514629366,138.761195835146,0.0
291,-0.8684649047835621,0.10104114681772652,138.54183879553125,0.0
292,-0.9593851827312874,0.01422815604988531,138.30032629248748,0.0
293,-1.035391713742342,-0.056721952196514464,138.03836164287762,0.0
294,-1.0924928235459266,-0.10970268796505966,137.75764404348976,0.0
295,-1.1288790188596545,-0.14456397207249608,137.4598640137288,0.0
296,-1.1454682406264642,-0.16308568314358787,137.14669926811854,0.0
297,-1.1459154531084137,-0.1687090917342423,136.819811020516,0.0
298,-1.136026166373417,-0.16603300995643094,136.48084071801765,0.0
299,-1.122690348848006,-0.16013215373691692,136.13140719907432,0.0
300,-1.1125867305205412,-0.15580001645352431,135.77310426733965,0.0
301,-1.1109613604880926,-0.1568441777737027,135.40749867024428,0.0
302,-1.120751920594385,-0.1655601033337011,135.0361284692077,0.0
303,-1.1422293720423302,-0.18247914025455722,134.66050178675306,0.0
304,-1.1731948714472236,-0.20643398696872428,134.28209591455104,0.0
305,-1.209641008867337,-0.2349222300628012,133.90235676556867,0.0
306,-1.2466952687717738,-0.2646895719468042,133.52269865300127,0.0
307,-1.279628287993095,-0.2924117792081734,133.14450437849632,0.0
308,-1.304728002879172,-0.31533673377535104,132.76912561230668,0.0
309,-1.319894724341729,-0.3317582637829676,132.39788354840388,0.0
310,-1.3248784569096954,-0.3412289918373481,132.03206981821634,0.0
311,-1.3211425095672518,-0.344472935760237,131.6729476475016,0.0
312,-1.311391639244595,-0.3430197260897573,131.32175324189367,0.0
313,-1.2988493972757071,-0.3386396827530173,130.97969738786193,0.0
314,-1.286407726908058,-0.3327019814765747,130.6479672571578,0.0
315,-1.2757986664351009,-0.32559844630977597,130.32772840429303,0.0
316,-1.2669484147819017,-0.3163684953753902,130.02012694817398,0.0
317,-1.257663254925022,-0.30262640735427193,129.72629193070054,0.0
318,-1.2437597684396065,-0.2808353382651916,129.4473378469165,0.0
319,-1.2196841349361631,-0.2469030554252323,129.18436734317208,0.0
320,-1.1795689705302979,-0.19700525650437464,128.93847408171874,0.0
321,-1.1185652053387118,-0.12848792146220397,128.71074577221634,0.0
322,-1.0341882024896312,-0.040673006763688,128.50226737279124,0.0
323,-0.927365557997703,0.06460028370439963,128.31412446555353,0.0
324,-0.8028974813475678,0.1828229257297151,128.14740681388284,0.0
325,-0.6691501639141038,0.3071051398697864,128.0032121113365,0.0
326,-0.5369816142351165,0.4288756472871091,127.88264993474873,0.0
327,-0.41810244190604284,0.5388808210575985,127.78684591700907,0.0
328,-0.3232364225767183,0.6283178431562629,127.71694615815639,0.0
329,-0.2605066192541986,0.6899156964795619,127.6741218968565,0.0
330,-0.2344028465650148,0.7187959141033357,127.65957446808511,1.0
331,-0.2455048731235676,0.7129948121535681,127.66863235202109,0.0
332,-0.2909082985509224,0.6735963169649707,127.695362457284,0.0
333,-0.3651122495740551,0.60449237734348,127.73910963457016,0.0
334,-0.4610487225554158,0.5118414967054215,127.79923087115863,0.0
335,-0.5709826954571398,0.4033266001815727,127.8750935851553,0.0
336,-0.6871524635962275,0.2873205723878519,127.9660740034401,0.0
337,-0.8021760258343426,0.17205715567039717,128.07155561752197,0.0
338,-0.9093485367719586,0.06488535742883214,128.1909277122222,0.0
339,-1.0029618520584864,-0.028334897387821523,128.32358396277,0.0
340,-1.0787034747825581,-0.10365507021929443,128.46892109651338,0.0
341,-1.1340872990755155,-0.15925101819995777,128.62633761602464,0.0
342,-1.1687877725838578,-0.1954127921994826,128.79523258092323,0.0
343,-1.1847293202507216,-0.21431412322731785,128.97500444624842,0.0
344,-1.1858306091731496,-0.21958645059444695,129.16504995569616,0.0
345,-1.1773972469585787,-0.21574761745699422,129.36476308849248,0.0
346,-1.1652599939782315,-0.20755886766122603,129.57353405910888,0.0
347,-1.1548315323267353,-0.19939885598841126,129.79074836943877,0.0
348,-1.150279021228446,-0.19474420429809589,130.01578591344781,0.0
349,-1.1539775680536788,-0.19582993999287876,130.24802013468633,0.0
350,-1.1663360163345322,-0.2035315083168786,130.48681723740978,0.0
351,-1.1859972047777012,-0.21746875770026142,130.73153545239302,0.0
352,-1.2103360256202058,-0.23629004608351578,130.98152435884882,0.0
353,-1.2361264821217681,-0.25806084156009673,131.23612426416372,0.0
354,-1.2602278798467172,-0.2806637641076012,131.49466564345366,0.0
355,-1.2801473793613807,-0.30212033520978043,131.75646864120705,0.0
356,-1.2943669401865239,-0.3207685887079628,132.0208426375298,0.0
357,-1.302372815327135,-0.33527027512629154,132.2870858817303,0.0
358,-1.3043889189601046,-0.34446797045290484,132.55448519618145,0.0
359,-1.300882100188885,-0.34715518361323505,132.82231575356846,0.0
360,-1.2919663030899184,-0.3418509223959477,133.08984093077427,0.0
361,-1.2768724165145746,-0.3266761181430381,133.3563122427661,0.0
362,-1.2536599559558663,-0.2994095581291614,133.62096935992176,0.0
363,-1.2193144906318922,-0.2577582973554172,133.88304021227367,0.0
364,-1.170294535330833,-0.19982072619896155,134.14174118414658,0.0
365,-1.1034704362838497,-0.12466288117054494,134.3962774026175,0.0
366,-1.0172628055241844,-0.03288509047591187,134.64584312313457,0.0
367,-0.9126838611412851,0.07296072415503913,134.88962221548707,0.0
368,-0.7939581337507923,0.18822614242847563,135.12678875312267,0.0
369,-0.668475853817862,0.306368486373794,135.35650770855494,0.0
370,-0.5460020341621705,0.4195052684588879,135.577935757294,0.0
371,-0.4372765155357855,0.5192513256144863,135.7902221923614,0.0
372,-0.3523222782134131,0.597707897823997,135.9925099510162,0.0
373,-0.2988653889496322,0.6484399190441197,136.1839367548236,0.0
374,-0.28122928891527005,0.6672802825052652,136.36363636363637,1.0
375,-0.29991554984503377,0.652835606348053,136.53961806897365,0.0
376,-0.3518792789544601,0.6066264815018626,136.7202170613475,0.0
377,-0.4313233017573527,0.5328610256005885,136.905051263635,0.0
378,-0.5307330141971239,0.4378985778640749,137.0937350224439,0.0
379,-0.6418805678475509,0.32949971338685724,137.28587886023794,0.0
380,-0.7566249809182541,0.21597531530574327,137.4810892477312,0.0
381,-0.8674695681941802,0.10534361974673169,137.6789683970592,0.0
382,-0.9679450803541666,0.004586520319165802,137.8791140762901,0.0
383,-1.0529223150508418,-0.08092753017679938,138.08111944589024,0.0
384,-1.1189180944602615,-0.14781135467698564,138.28457291780464,0.0
385,-1.1643773357895606,-0.19479790328798433,138.4890580378551,0.0
386,-1.1898418003016593,-0.22265181389793945,138.69415339219555,0.0
387,-1.197893364529925,-0.2338763582749329,138.89943253859408,0.0
388,-1.192798989337214,-0.23225910760733695,139.10446396333825,0.0
389,-1.1798686419380728,-0.2223179875088482,139.30881106457775,0.0
390,-1.164630207344325,-0.20872155732162015,139.51203216293206,0.0
391,-1.1519895378102212,-0.19575909605529632,139.7136805401962,0.0
392,-1.1455556057781964,-0.18692476406902062,139.91330450697535,0.0
393,-1.1472675034933157,-0.1846563452436304,140.1104475000702,0.0
394,-1.1573780525238067,-0.19023729042717963,140.3046482104166,0.0
395,-1.1747551488414703,-0.20383841622377022,140.49544074235644,0.0
396,-1.1973841508849745,-0.2246511130542098,140.6823548049818,0.0
397,-1.2229119376442934,-0.251054194468044,140.86491593624885,0.0
398,-1.2490734640195147,-0.28076464732244266,141.04264576050312,0.0
399,-1.2738829021113052,-0.31094643507202313,141.21506227999384,0.0
400,-1.295546040549388,-0.33828406428617774,141.3816802008791,0.0
401,-1.3121452673903302,-0.35905841154022605,141.5420112941372,0.0
402,-1.321241431738913,-0.36928042799022937,141.6955647917057,0.0
403,-1.3195976148985429,-0.3649357937461025,141.84184781805786,0.0
404,-1.3032275539471883,-0.3423681613164492,141.98036585731313,0.0
405,-1.2678908877887698,-0.29878528973883445,142.11062325584487,0.0
406,-1.2100120523148925,-0.23282262247769858,142.23212376021164,0.0
407,-1.1278328217007771,-0.1450578127920408,142.3443710900874,0.0
408,-1.0224798841263534,-0.03835164744586521,142.4468695457058,0.0
409,-0.898592614093409,0.08209540957601846,142.53912464916476,0.0
410,-0.7642390479550373,0.20903620776819476,142.6206438187591,0.0
411,-0.630035180469281,0.3338166096266592,142.69093707532232,0.0
412,-0.5076176968963633,0.4472854252286347,142.74951777936482,0.0
413,-0.4078219785822798,0.5408378648232193,142.79590339759656,0.0
414,-0.3390102210163084,0.6074246624515092,142.8296162972165,0.0
415,-0.3059417260222394,0.6423646052946337,142.85018456614225,0.0
416,-0.3093989564179377,0.6438378908321549,142.85714285714286,1.0
417,-0.34654936258260344,0.6129999731351634,142.83329296280493,0.0
418,-0.41182468371448266,0.5537239139875902,142.76253393511558,0.0
419,-0.4980061217565857,0.4720377110243058,142.64611764261625,0.0
420,-0.5972346695640157,0.3753606424343578,142.48537746929458,0.0
421,-0.7017855018789759,0.2716557249762878,142.28172027605558,0.0
422,-0.8045864101308097,0.1686072332917115,142.03661827803919,0.0
423,-0.8995590549092545,0.07291044729823071,141.7516009096033,0.0
424,-0.9818862476836858,-0.010266291263397898,141.42824674465672,0.0
425,-1.0482661477408024,-0.0776133363065985,141.06817553523257,0.0
426,-1.0971409430502952,-0.12779400253802173,140.67304042587446,0.0
427,-1.1288261097297427,-0.16134916720029666,140.2445203956938,0.0
428,-1.145447275862676,-0.18041721652459855,139.7843129739815,0.0
429,-1.1506232187680974,-0.18831044999140123,139.29412726913975,0.0
430,-1.1489020464969402,-0.18900320028019046,138.77567734455525,0.0
431,-1.1450361024297886,-0.18659647478579894,138.23067596896797,0.0
432,-1.143239835565487,-0.1848256049713852,137.6608287629879,0.0
433,-1.1465911748534034,-0.18666895057150049,137.0678287577571,0.0
434,-1.1567026938180214,-0.19409733570610582,136.4533513764122,0.0
435,-1.1737139220162534,-0.2079787611080054,135.81904984402024,0.0
436,-1.196565864132325,-0.2281265559986035,135.1665510270838,0.0
437,-1.2234444744276491,-0.2534577538739712,134.4974516995652,0.0
438,-1.252246393697579,-0.2822170687433064,133.8133152286775,0.0
439,-1.2809369775766997,-0.3122224376994273,133.1156686704449,0.0
440,-1.307729105834414,-0.34109907005591683,132.40600026223663,0.0
441,-1.3310890566926772,-0.36648559948362996,131.6857572971233,0.0
442,-1.3496435805396558,-0.3862120764995901,130.9563443629712,0.0
443,-1.3620938220067897,-0.3984595526328692,130.21912192765936,0.0
444,-1.3672246104338108,-0.4019116975022538,129.47540525064838,0.0
445,-1.3640412829579103,-0.39590043284590376,128.72646360032238,0.0
446,-1.351999012442146,-0.380533329410219,127.97351975603242,0.0
447,-1.3312440753695165,-0.35677587647691966,127.21774977356257,0.0
448,-1.3027803645645628,-0.32645242710122346,126.46028299278345,0.0
449,-1.268501556482629,-0.2921301228682792,125.70220226652307,0.0
450,-1.2310672468312986,-0.25686254035146394,124.94454439013873,0.0
451,-1.1936291531476508,-0.2237934864132382,124.18830071188765,0.0
452,-1.1594251998385314,-0.19565283822089458,123.43441790494053,0.0
453,-1.13126435571294,-0.17420975595397234,122.6837988827347,0.0
454,-1.110938510537295,-0.15977653618950013,121.93730384029861,0.0
455,-1.0986288152849313,-0.15087083716236685,121.19575140517527,0.0
456,-1.0924193294756797,-0.14413805683634004,120.45991988261112,0.0
457,-1.088072634602659,-0.1346053559357043,119.73054858073746,0.0
458,-1.079232417746917,-0.1162852352010976,119.00833920254604,0.0
459,-1.058170276372552,-0.08307698470905701,118.29395729252732,0.0
460,-1.0170780022538877,-0.029842070556439143,117.58803372689677,0.0
461,-0.9497405013102835,0.046528123021225776,116.89116623736558,0.0
462,-0.8532554128289664,0.14625966290980946,116.20392095941509,0.0
463,-0.7293570462866619,0.2662481583471315,115.52683399699899,0.0
464,-0.5849127542031861,0.400141399259851,114.8604129965239,0.0
465,-0.4313172130801582,0.5389786909794712,114.2051387238398,0.0
466,-0.2827914294613167,0.6722986865718512,113.56146663880827,0.0
467,-0.15392007640948002,0.7895260795446741,112.92982846280691,0.0
468,-0.05701914559504886,0.881385413168404,112.3106337352691,0.0
469,-1.0852244528788274e-05,0.9410847563628334,111.70427135605651,0.0
470,0.014652756702764636,0.9650654522238523,111.1111111111111,1.0
471,-0.01020646526596198,0.9532126967526418,110.51234994440559,0.0
472,-0.06779884829764748,0.9085391008872191,109.89006567968005,0.0
473,-0.14930487720013938,0.8364588888333166,109.24592343087505,0.0
474,-0.245833718947596,0.7438380690251472,108.58156717262547,0.0
475,-0.3498731380037104,0.6380222113464453,107.89861467090925,0.0
476,-0.45594767169775435,0.526010403096058,107.19865291525394,0.0
477,-0.5605039861543893,0.4138772216309241,106.48323404849313,0.0
478,-0.6612868748923619,0.3064673593862407,105.75387178524677,0.0
479,-0.7565817049049811,0.20732265319849197,105.01203830610817,0.0
480,-0.8446631715131947,0.11876414297030052,104.25916161093483,0.0
481,-0.9236425244004335,0.04204677868655146,103.49662331166337,0.0
482,-0.9917135788238601,-0.022474866170281715,102.72575684266064,0.0
483,-1.0476342422272011,-0.07519836473458291,101.94784606476382,0.0
484,-1.0911986285867503,-0.11714037043470016,101.16412423780241,0.0
485,-1.1234746701263918,-0.14979889983550665,100.37577333550426,0.0
486,-1.146685738484273,-0.174990997615941,99.5839236762076,0.0
487,-1.1637564910910148,-0.1946597689601329,98.78965384269729,0.0
488,-1.1776676142245657,-0.21066459193919596,97.99399086470082,0.0
489,-1.1908269339307354,-0.22458453450766308,97.19791063807833,0.0
490,-1.2046476132615551,-0.23757054322305982,96.40233855547214,0.0
491,-1.2194410506033548,-0.2502745760801243,95.60815032410927,0.0
492,-1.2346190924906033,-0.26286636732271257,94.81617294752948,0.0
493,-1.2491009096639543,-0.27512733184668225,94.02718584921381,0.0
494,-1.2617682343896222,-0.2865935083415808,93.24192211737413,0.0
495,-1.2718213191089405,-0.2967108606886846,92.46106985151165,0.0
496,-1.278945878743038,-0.3049686227231805,91.68527359272932,0.0
497,-1.283280175938053,-0.31098778114099834,90.91513582117345,0.0
498,-1.2852390881484652,-0.3145576156261553,90.15121850535995,0.0
499,-1.2852863233626217,-0.3156279885155401,89.3940446894992,0.0
500,-1.283742681147746,-0.31427442596088184,88.64410010625113,0.0
501,-1.2806886183628843,-0.31065498451647294,87.90183480361752,0.0
502,-1.2759800610336502,-0.3049732141741356,87.1676647758917,0.0
503,-1.2693598238239356,-0.2974531120987639,86.44197358974316,0.0
504,-1.26061881936879,-0.2883236292889563,85.72511399760093,0.0
505,-1.2497448501574133,-0.27780538553803763,85.01740953151932,0.0
506,-1.2369975013774666,-0.26609249443800687,84.31915607165865,0.0
507,-1.222870287097652,-0.25332737152799023,83.63062338439131,0.0
508,-1.207942852183823,-0.23957371494447488,82.95205662585195,0.0
509,-1.1926726971720218,-0.22479907310749675,82.28367780749112,0.0
510,-1.1772077449169895,-0.20888036341002209,81.62568722086483,0.0
511,-1.16130263672646,-0.19164171914541422,80.97826481950442,0.0
512,-1.1443894861646413,-0.17292474884573306,80.34157155625994,0.0
513,-1.125798033957307,-0.1526795496610473,79.71575067500541,0.0
514,-1.1050607899665672,-0.13105478524207997,79.1009289560325,0.0
515,-1.0821990740658514,-0.10846079899736585,78.49721791485041,0.0
516,-1.0578836629754933,-0.0855833724101672,77.90471495445274,0.0
517,-1.0334028334923804,-0.06333698271043257,77.32350447141383,0.0
518,-1.010436974611205,-0.04276220487574946,76.75365891643817,0.0
519,-0.9907060058721359,-0.024887448398950726,76.19523981021364,0.0
520,-0.9755973454781206,-0.010585604065117549,75.64829871561233,0.0
521,-0.965884846380505,-0.000458037977237466,75.11287816744793,0.0
522,-0.9616163488431992,0.005228954933117619,74.58901256113663,0.0
523,-0.9621935845523819,0.006544386315588319,74.0767290017237,0.0
524,-0.9666102048877283,0.0038354393965904093,73.5760481148317,0.0
525,-0.9737673098759954,-0.0023668674576804993,73.08698482116277,0.0
526,-0.982764050989538,-0.011451513936303698,72.60954907624692,0.0
527,-0.9930717101899909,-0.022814115097127094,72.14374657717454,0.0
528,-1.0045415835729679,-0.03590828278803264,71.68957943808567,0.0
529,-1.0172565513383478,-0.05025651528086351,71.24704683621296,0.0
530,-1.0312919594526728,-0.06542808666601724,70.81614563029109,0.0
531,-1.046482767042983,-0.0809998098424419,70.39687095315455,0.0
532,-1.0622893194983627,-0.09651748023409315,69.98921678035018,0.0
533,-1.0778151444509327,-0.11147161206619022,69.59317647658949,0.0
534,-1.0919709255982895,-0.12529337141892913,69.20874332186473,0.0
535,-1.1037217027169233,-0.13736913992019076,68.83591101904547,0.0
536,-1.1123223021227977,-0.14706820402009313,68.4746741847703,0.0
537,-1.1174525389795178,-0.15377907465956686,68.12502882543988,0.0
538,-1.1192058956190654,-0.15695475857775448,67.78697280011674,0.0
539,-1.1179449533386678,-0.15617258715945298,67.4605062721334,0.0
540,-1.1140898260840113,-0.15121575306968796,67.14563215121262,0.0
541,-1.1079333590370681,-0.14217826486924257,66.84235652790814,0.0
542,-1.0995705784285088,-0.1295820050410541,66.55068910218334,0.0
543,-1.0889912655802156,-0.11447689014842452,66.2706436079598,0.0
544,-1.076322876008548,-0.09847889620532602,66.00223823548818,0.0
545,-1.0621430129856837,-0.08369364187404271,65.74549605342094,0.0
546,-1.0477285710544713,-0.07248214272478401,65.50044543250107,0.0
547,-1.035094037160238,-0.06705349455248015,65.26712047282415,0.0
548,-1.026706333975975,-0.06891418069407429,65.04556143668309,0.0
549,-1.0248451318046994,-0.07825667122701017,64.83581518906843,0.0
550,-1.0306888239462815,-0.0934171363966127,64.63793564796966,0.0
551,-1.0433213001961692,-0.11055757347377519,64.45198424671057,0.0
552,-1.058942900303258,-0.12371796854996611,64.27803041065104,0.0
553,-1.0705996285525867,-0.12533280960993037,64.11615205070306,0.0
554,-1.0686919034793878,-0.10721738676812563,63.96643607624032,0.0
555,-1.0423758717509704,-0.061918562783559034,63.828978930130994,0.0
556,-0.9817399494947565,0.015782711784634043,63.7038871487939,0.0
557,-0.8803733816518345,0.12750466556666953,63.59127795037025,0.0
558,-0.7377203818654856,0.270337982524257,63.491279854322286,0.0
559,-0.5605252456213765,0.43660837558425053,63.404033336014265,0.0
560,-0.36279357533820966,0.6144555630292904,63.32969152010818,0.0
561,-0.16403455452117516,0.789190027453998,63.26842091691769,0.0
562,0.013967070081418507,0.9452181750497546,63.22040220621161,0.0
563,0.15112793795426133,1.0681942236858606,63.185831073351665,0.0
564,0.23278838205759061,1.1469993452103557,63.164919103089545,0.0
565,0.25220971213190135,1.175182543714145,63.15789473684211,1.0
566,0.2112317022685318,1.151615967287889,63.19129086318015,0.0
567,0.11903112411606054,1.0802891377126849,63.28993622597648,0.0
568,-0.010524824860402529,0.969347043525107,63.45179682220186,0.0
569,-0.16208193334860224,0.8296205352104691,63.67517791577335,0.0
570,-0.3216626399457222,0.6729709954422105,63.95868552384985,0.0
571,-0.4785329725003903,0.5107633542502568,64.30119285761208,0.0
572,-0.6258219806405303,0.3527038446802914,64.70181074775365,0.0
573,-0.7600546457616197,0.206160626774528,65.159861234027,0.0
574,-0.8800428186362608,0.07596279818046964,65.67485361312838,0.0
575,-0.9856677696818913,-0.03542172206960592,66.24646232697148,0.0
576,-1.0769902584665574,-0.1274774552497413,66.87450613933032,0.0
577,-1.1539045017688356,-0.2011492877644258,67.55892809705242,0.0
578,-1.2163037167422064,-0.25837701878108044,68.29977580577452,0.0
579,-1.2645347795932687,-0.301712110007663,69.09718157189472,0.0
580,-1.299843201320117,-0.3340218368226385,69.95134197459663,0.0
581,-1.3245558812136284,-0.3582544971403203,70.86249643583062,0.0
582,-1.3418836856455958,-0.3772319529147442,71.83090435403999,0.0
583,-1.3553887818772827,-0.3934485334828088,72.85682036077218,0.0
584,-1.3682907193466625,-0.40887803789225213,73.94046724994539,0.0
585,-1.3828379332614158,-0.424811556401531,75.08200611950218,0.0
586,-1.3999372111058965,-0.4417592303304155,76.2815032568942,0.0
587,-1.4191343678945285,-0.45944540531872574,77.53889329624074,0.0
588,-1.438917430429278,-0.4769110296582471,78.85393817967052,0.0
589,-1.457215236216761,-0.49271554962565,80.22618147267038,0.0
590,-1.4719226192323587,-0.5052099282666367,81.65489761854289,0.0
591,-1.4813071670502407,-0.5128381740190333,83.13903577667757,0.0
592,-1.4842246333726092,-0.5144193238846748,84.67715798075945,0.0
593,-1.480155356113731,-0.5093646541014093,86.2673714848883,0.0
594,-1.46913509263762,-0.49779375413497207,87.90725534748462,0.0
595,-1.4516671985606489,-0.4805256868736292,89.59378154516602,0.0
596,-1.4286689356169315,-0.45893654382915156,91.32323122203239,0.0
597,-1.4014439641591552,-0.4346922697132689,93.0911070738954,0.0
598,-1.3716171597385762,-0.4093859197326491,94.89204334992779,0.0
599,-1.340945736895378,-0.38413054560599935,96.71971553035749,0.0
600,-1.3109490614410024,-0.35917928899375695,98.56675240667005,0.0
601,-1.2823769407143812,-0.3336570871437864,100.42465404009823,0.0
602,-1.2546395017991296,-0.3054866290997935,102.283719882823,0.0
603,-1.225409073899665,-0.2715693019603709,104.13299217676618,0.0
604,-1.1906280474866842,-0.22823878730420333,105.96022054096107,0.0
605,-1.1450848121228123,-0.17194627348941605,107.75185434308004,0.0
606,-1.0835572531102466,-0.10007421568805336,109.49306992495681,0.0
607,-1.0023166604389957,-0.011726713266557817,111.16783989764335,0.0
608,-0.9006089000932828,0.09167500668630091,112.7590514073618,0.0
609,-0.7816587235894356,0.20614353634000715,114.2486793667263,0.0
610,-0.6528211696667775,0.32531455503161705,115.61801902851631,0.0
611,-0.5247235101992461,0.44107847675785594,116.84797987314512,0.0
612,-0.4095386129907105,0.5445632829501378,117.91943957162562,0.0
613,-0.31880447201150214,0.6272990525920336,118.81365285067285,0.0
614,-0.2613532042721881,0.6823540854523851,119.51270561621311,0.0
615,-0.24187723590669474,0.7052401870142254,120.0,1.0
616,-0.2604526443142102,0.6944378219484363,120.37470739432008,0.0
617,-0.31303908928436225,0.6514751896768912,120.74607384670234,0.0
618,-0.3926953490510305,0.5805861236243771,121.11389704180478,0.0
619,-0.4910869657473101,0.488047078182719,121.47797174819547,0.0
620,-0.5998607344400156,0.38133690040341084,121.83808991020705,0.0
621,-0.7115955275549085,0.2682688782823869,122.19404074765889,0.0
622,-0.8202385240335327,0.1562181118839564,122.5456108636053,0.0
623,-0.9211185300495968,0.05152188402449916,122.89258436025386,0.0
624,-1.010735450035009,-0.04091762327529677,123.23474296318349,0.0
625,-1.0865374751520798,-0.11783694601997266,123.57186615397639,0.0
626,-1.146830874205108,-0.17765076220305492,123.90373131135945,0.0
627,-1.1908590850323764,-0.2203605537506595,124.23011386093357,0.0
628,-1.2189825242069745,-0.24735917500877674,124.5507874335472,0.0
629,-1.2328256746729314,-0.26114905998056837,124.86552403235099,0.0
630,-1.2352539421086306,-0.2649880447574736,125.17409420854626,0.0
631,-1.2300975098909337,-0.26248167513243903,125.47626724581653,0.0
632,-1.2216299940929038,-0.2571530390115365,125.77181135340581,0.0
633,-1.2139006005391966,-0.2520353013672634,126.06049386778054,0.0
634,-1.2100754837391106,-0.24934124373975722,126.34208146278479,0.0
635,-1.211947947657775,-0.2502622679485478,126.61634036816875,0.0
636,-1.219730784744572,-0.25493379136541894,126.88303659634074,0.0
637,-1.232168383530163,-0.26257627469244693,127.14193617716226,0.0
638,-1.2469288146683937,-0.27178673809297116,127.39280540057335,0.0
639,-1.2611787564055235,-0.28092245494162194,127.63541106680293,0.0
640,-1.272216194977374,-0.2884948978358006,127.86952074388559,0.0
641,-1.2780350568457248,-0.2934846444294287,128.09490303217208,0.0
642,-1.2777141113792603,-0.29550027550295005,128.31132783548702,0.0
643,-1.2715517331813928,-0.2947355859233528,128.51856663855187,0.0
644,-1.2609047291495679,-0.29172463558845024,128.7163927902575,0.0
645,-1.2477345742807708,-0.28694456531299684,128.90458179233525,0.0
646,-1.233920955305625,-0.28036066584649977,129.0829115929415,0.0
647,-1.220468524279033,-0.271035642748675,129.25116288463624,0.0
648,-1.2067949485821774,-0.2569263604295847,129.40911940620322,0.0
649,-1.1903219091709738,-0.23496240551841757,129.55656824772652,0.0
650,-1.1665683634170936,-0.20144422281275254,129.6933001583065,0.0
651,-1.1298519390898258,-0.15272443179233142,129.81910985576792,0.0
652,-1.074548606623732,-0.08606046531200211,129.93379633768393,0.0
653,-0.9966789216192168,-0.00046892424747413397,130.0371631930124,0.0
654,-0.8954375569870622,0.10261099508201627,130.12901891361543,0.0
655,-0.7742223659384531,0.21901614356687787,130.2091772049093,0.0
656,-0.6407927033160341,0.34202634923410347,130.27745729487074,0.0
657,-0.5063959088144658,0.4630105009127038,130.3336842406073,0.0
658,-0.3839932993462772,0.5724591486641726,130.3776892316826,0.0
659,-0.2859959441816662,0.6612251037584026,130.40930988937419,0.0
660,-0.22208064388014975,0.7217472276680569,130.4283905610317,0.0
661,-0.1976321232258631,0.7490375218231822,130.43478260869566,1.0
662,-0.21315601430770573,0.741265572335444,130.43098645162465,0.0
663,-0.2647080488261283,0.6998621507406846,130.4198177458114,0.0
664,-0.34510149374583665,0.6291619217781773,130.40160784647838,0.0
665,-0.4454827596144497,0.535689340787193,130.37669009494797,0.0
666,-0.5568442354202265,0.4272435217201431,130.34539946889947,0.0
667,-0.671152612310805,0.31194932866202585,130.30807224847933,0.0
668,-0.7819500840754298,0.197416955585078,130.26504569872404,0.0
669,-0.8844664169858816,0.0901034964297187,130.21665776868795,0.0
670,-0.9754081557753372,-0.005085883435322042,130.16324680760104,0.0
671,-1.0526387451005976,-0.08496740432296046,130.10515129831964,0.0
672,-1.114929444274964,-0.14805921550139714,130.0427096082736,0.0
673,-1.1618698123308053,-0.19442390757911265,129.97625975805735,0.0
674,-1.193918803358827,-0.225418853103913,129.9061392077606,0.0
675,-1.212495991587413,-0.24338787996279782,129.8326846610863,0.0
676,-1.2199864348570455,-0.25131644709252554,129.75623188725788,0.0
677,-1.2195669176165211,-0.2524677435000648,129.6771155606793,0.0
678,-1.2148355201016505,-0.25002019048460694,129.5956691182727,0.0
679,-1.2093061811728605,-0.2467347707598994,129.51222463438782,0.0
680,-1.2058830180235807,-0.24468801288968123,129.42711271314747,0.0
681,-1.2064392315331305,-0.24510771832290218,129.3406623980692,0.0
682,-1.2115956969648554,-0.24833997590667667,129.2532010987823,0.0
683,-1.2207417693088185,-0.2539572607390588,129.16505453464228,0.0
684,-1.2322854426885703,-0.2609915059572969,129.0765466950318,0.0
685,-1.2440760091237426,-0.2682486667260281,128.98799981612723,0.0
686,-1.2539149102742229,-0.27463937075438716,128.89973437390395,0.0
687,-1.2600578029766372,-0.2794501884149562,128.81206909315136,0.0
688,-1.2616092097150036,-0.2824862039253858,128.7253209722684,0.0
689,-1.258719471027282,-0.2840389764039484,128.63980532361603,0.0
690,-1.252515772478534,-0.2846717343454342,128.55583582920886,0.0
691,-1.2447407882459858,-0.2848589399304011,128.4737246115397,0.0
692,-1.2371358698710666,-0.2845604070877671,128.39378231934404,0.0
693,-1.2306821898704898,-0.28284001034757567,128.31631822812753,0.0
694,-1.2248827872968568,-0.2776460729962771,128.2416403552997,0.0
695,-1.2173052845978973,-0.26584924689936734,128.1700555897788,0.0
696,-1.2035869194328939,-0.24358490818894507,128.10186983595779,0.0
697,-1.1780200834779337,-0.20687893892546458,128.03738817194977,0.0
698,-1.1346951323758285,-0.15246282523121185,127.97691502206126,0.0
699,-1.069006375727768,-0.07862434820584324,127.92075434347534,0.0
700,-0.9791752616780236,0.014089182186159746,127.86920982716232,0.0
701,-0.867369379216266,0.12248616947167867,127.82258511307579,0.0
702,-0.7400427173006948,0.24078101138706154,127.78118401973155,0.0
703,-0.607301131680551,0.3611094379252594,127.74531078831419,0.0
704,-0.48136559803738177,0.4744401586529772,127.71527034150117,0.0
705,-0.3744784471512805,0.5717274345491147,127.6913685572473,0.0
706,-0.29677440335178906,0.6450967050451243,127.67391255782533,0.0
707,-0.2546488042404998,0.6888502769824753,127.66321101447637,0.0
708,-0.24999418871842605,0.700122767522179,127.65957446808511,1.0
709,-0.2804064631909304,0.6790941628983209,127.65957446808511,0.0
710,-0.34018478096109755,0.6287608578396386,127.65957446808511,0.0
711,-0.42175927667028984,0.5543484258504077,127.65957446808511,0.0
712,-0.5171283869063291,0.4625052463726459,127.65957446808511,0.0
713,-0.6189687439236058,0.360434081740496,127.65957446808511,0.0
714,-0.7212488512447591,0.2551009187466817,127.65957446808511,0.0
715,-0.8193653456491926,0.15261762424804146,127.65957446808511,0.0
716,-0.909962452703078,0.05784258129819401,127.65957446808511,0.0
717,-0.9906493353603564,-0.025803783884847303,127.65957446808511,0.0
718,-1.059791342012862,-0.09634387647085052,127.65957446808511,0.0
719,-1.116451288315535,-0.15311747014387378,127.65957446808511,0.0
720,-1.1604482489990506,-0.19657385944520206,127.65957446808511,0.0
721,-1.1924324572137865,-0.2280195933459585,127.65957446808511,0.0
722,-1.2138695295544077,-0.24934816822643585,127.65957446808511,0.0
723,-1.2268766835572869,-0.26276984081648214,127.65957446808511,0.0
724,-1.2339253460681954,-0.27055653899901955,127.65957446808511,0.0
725,-1.237481431028119,-0.27481736589961486,127.65957446808511,0.0
726,-1.2396739865409372,-0.2773214220986706,127.65957446808511,0.0
727,-1.242064855515394,-0.27938360312211447,127.65957446808511,0.0
728,-1.2455529508775187,-0.2818238837726264,127.65957446808511,0.0
729,-1.2504066793521775,-0.28500134576849434,127.65957446808511,0.0
730,-1.25639059806117,-0.2889123776148022,127.65957446808511,0.0
731,-1.2629421537583339,-0.2933305700362286,127.65957446808511,0.0
732,-1.2693583742454262,-0.2979565818577546,127.65957446808511,0.0
733,-1.2749629911452331,-0.3025420421600126,127.65957446808511,0.0
734,-1.2792335605735887,-0.30695401461407884,127.65957446808511,0.0
735,-1.2818719220271362,-0.31115630039837683,127.65957446808511,0.0
736,-1.2828020248499596,-0.31510031311348907,127.65957446808511,0.0
737,-1.2820818696087348,-0.318539467812969,127.65957446808511,0.0
738,-1.2797247154185918,-0.32080359718053214,127.65957446808511,0.0
739,-1.2754402886925889,-0.320589204774745,127.65957446808511,0.0
740,-1.2683309720516078,-0.315832102090181,127.65957446808511,0.0
741,-1.256611516841611,-0.3037262965182643,127.65957446808511,0.0
742,-1.237457357302801,-0.2809339391451183,127.65957446808511,0.0
743,-1.2071073012276488,-0.24399616420246215,127.65957446808511,0.0
744,-1.1613246009533638,-0.1899086916520672,127.65957446808511,0.0
745,-1.096238197418279,-0.11677850043355775,127.65957446808511,0.0
746,-1.0094524621371148,-0.024440974610381236,127.65957446808511,0.0
747,-0.9011716526218733,0.08509723755536197,127.65957446808511,0.0
748,-0.7749972805783241,0.2075077995904978,127.65957446808511,0.0
749,-0.6380774196866427,0.33635291888515906,127.65957446808511,0.0
750,-0.5004340696015227,0.4636597407764159,127.65957446808511,0.0
751,-0.3735324947778158,0.5807792258002727,127.65957446808511,0.0
752,-0.26840426666353295,0.6793881205496004,127.65957446808511,0.0
753,-0.19379849259200022,0.7524600197974964,127.65957446808511,0.0
754,-0.15484506341313944,0.795039550041016,127.65957446808511,0.0
755,-0.15255937793867408,0.804700398470875,127.65957446808511,1.0
756,-0.1842535197190136,0.7816400131834144,127.65957446808511,0.0
757,-0.24464035273394652,0.7284408611227251,127.65957446808511,0.0
758,-0.32722492517559104,0.6495890588365097,127.65957446808511,0.0
759,-0.425537694601571,0.5508709981431654,127.65957446808511,0.0
760,-0.5338823218814117,0.438762933234804,127.65957446808511,0.0
761,-0.6474924308704492,0.3198944647246049,127.65957446808511,0.0
762,-0.7622262176848447,0.2006198078698868,127.65957446808511,0.0
763,-0.8740871794880523,0.08668846915249803,127.65957446808511,0.0
764,-0.9788918616150845,-0.017016587046471743,127.65957446808511,0.0
765,-1.072310879373237,-0.10670449327183942,127.65957446808511,0.0
766,-1.1503322572139147,-0.17987615824732972,127.65957446808511,0.0
767,-1.2100065312028612,-0.2354791382541237,127.65957446808511,0.0
768,-1.2502018715306933,-0.2739751647850732,127.65957446808511,0.0
769,-1.272072446512821,-0.29727145596498267,127.65957446808511,0.0
770,-1.2790320325663016,-0.30848256946466296,127.65957446808511,0.0
771,-1.2761910646742154,-0.3115235662583654,127.65957446808511,0.0
772,-1.269392545933865,-0.31057731711914716,127.65957446808511,0.0
773,-1.264103197973862,-0.30951559426975445,127.65957446808511,0.0
774,-1.2644424526263793,-0.3113733913345396,127.65957446808511,0.0
775,-1.2725672413478653,-0.3179721534074688,127.65957446808511,0.0
776,-1.288512330595397,-0.3297606142650732,127.65957446808511,0.0
777,-1.3104620269750138,-0.34589837882692887,127.65957446808511,0.0
778,-1.335336356439138,-0.3645578799268126,127.65957446808511,0.0
779,-1.3595295216951067,-0.3833763692092974,127.65957446808511,0.0
780,-1.37963822965677,-0.3999606672499774,127.65957446808511,0.0
781,-1.3930493201432013,-0.41233909526221424,127.65957446808511,0.0
782,-1.3983037748603389,-0.4192683508171314,127.65957446808511,0.0
783,-1.3952031611622089,-0.4203348683945748,127.65957446808511,0.0
784,-1.3846652144844716,-0.4158340513800297,127.65957446808511,0.0
785,-1.3683645005082192,-0.40645845291907706,127.65957446808511,0.0
786,-1.3482150753382802,-0.39286873996649696,127.65957446808511,0.0
787,-1.3257710074670335,-0.375250937043753,127.65957446808511,0.0
788,-1.3016419012377145,-0.35297356793381185,127.65957446808511,0.0
789,-1.2750424254857653,-0.3244452546704206,127.65957446808511,0.0
790,-1.2436077162499661,-0.28723730422617305,127.65957446808511,0.0
791,-1.2035942796783408,-0.2384816397045434,127.65957446808511,0.0
792,-1.150531383810821,-0.1754916255240522,127.65957446808511,0.0
793,-1.080283027011307,-0.09649502639459294,127.65957446808511,0.0
794,-0.9903402031247994,-0.0013288550722012071,127.65957446808511,0.0
795,-0.8810314099066853,0.10806281032950618,127.65957446808511,0.0
796,-0.7562787025056131,0.22745899262937402,127.65957446808511,0.0
797,-0.6235887841653028,0.35058944789093,127.65957446808511,0.0
798,-0.49316075994808434,0.4697468806540719,127.65957446808511,0.0
799,-0.3762604566125015,0.5766871784097525,127.65957446808511,0.0
800,-0.28325666831051327,0.663657484776946,127.65957446808511,0.0
801,-0.22183671019469303,0.7243652018372216,127.65957446808511,0.0
802,-0.1958638418152579,0.7547180709781581,127.65957446808511,1.0
803,-0.20512799766372877,0.7532209298085569,127.65608701557494,0.0
804,-0.24595785424347494,0.7209925014327384,127.64582224014234,0.0
805,-0.3124134565413335,0.6614440147497826,127.62907799208551,0.0
806,-0.39764746794754846,0.5797202539865938,127.60615384615386,0.0
807,-0.4950402267911091,0.48202992434072567,127.57735080579886,0.0
808,-0.5988556344399879,0.3749839738533748,127.54297102050985,0.0
809,-0.7043705536047266,0.265026157787267,127.50331751660296,0.0
810,-0.8076244492042034,0.1579947616125948,127.45869394177812,0.0
811,-0.9050515594156743,0.05881410648817392,127.40940432370782,0.0
812,-0.9932582997068614,-0.02870910791680864,127.35575284287202,0.0
813,-1.0691022353987347,-0.10201260551356148,127.29804361980791,0.0
814,-1.1300669145661193,-0.15984331642529542,127.23658051689861,0.0
815,-1.1747802471454005,-0.20225556489008895,127.17166695478487,0.0
816,-1.2034514737531632,-0.23052359839183117,127.10360574344516,0.0
817,-1.218024867541173,-0.24694795967644279,127.03269892795485,0.0
818,-1.2219481987513987,-0.25454910629125066,126.95924764890283,0.0
819,-1.2195852919970633,-0.25666691558634513,126.88355201741467,0.0
820,-1.215414921840059,-0.2565127915112933,126.80591100470569,0.0
821,-1.2132173987853925,-0.256742234605577,126.72662234606358,0.0
822,-1.2154437519296406,-0.25912220411506315,126.64598245914055,0.0
823,-1.2229013576799994,-0.26435604804275126,126.56428637641751,0.0
824,-1.2347998673568128,-0.2721010460016826,126.48182769168835,0.0
825,-1.2491122541979778,-0.2811759156376219,126.39889852040112,0.0
826,-1.2631419652849705,-0.2899166310099595,126.31578947368422,0.0
827,-1.274160126147194,-0.29660736437655305,126.23278964587963,0.0
828,-1.2799839520256249,-0.2998961621868165,126.15018661540195,0.0
829,-1.2793970161349473,-0.2991057888853831,126.06826645874158,0.0
830,-1.2723503472327007,-0.2943690993064427,125.98731377743215,0.0
831,-1.2599212403927742,-0.2865520970224969,125.90761173780632,0.0
832,-1.2440401614166638,-0.2769706868319054,125.82944212337185,0.0
833,-1.2270246479580227,-0.26695157699108973,125.75308539964743,0.0
834,-1.2109840153688558,-0.2573257385133537,125.6788207913111,0.0
835,-1.197182252443259,-0.2479666211280825,125.60692637152584,0.0
836,-1.1854697315280456,-0.23748888053560066,125.5376791633243,0.0
837,-1.173913201194699,-0.22320344044363005,125.471355252952,0.0
838,-1.1587565176086103,-0.20138205411699356,125.40822991508817,0.0
839,-1.1348156097887632,-0.1678246966678933,125.34857774988696,0.0
840,-1.0963381894995525,-0.11865640796073984,125.29267283180414,0.0
841,-1.038244351176697,-0.05122037743544572,125.24078887020333,0.0
842,-0.9575322223116217,0.03510428050204206,125.19319938176197,0.0
843,-0.854525387472933,0.13833662114505355,125.15017787472988,0.0
844,-0.7336039437373927,0.25372267648592717,125.11199804512503,0.0
845,-0.6031333848600937,0.37403302430203794,125.07893398498717,0.0
846,-0.47448655298411535,0.49031236432896197,125.05126040284647,0.0
847,-0.3603010017875804,0.5929715494641714,125.02925285660504,0.0
848,-0.27234799023461104,0.6730397857863222,125.01318799907156,0.0
849,-0.21952260654777844,0.7233600483518893,125.00334383643346,0.0
850,-0.20644048411238494,0.7395227879688676,125.0,1.0
851,-0.23294761349066512,0.720388272517732,125.0167486018051,0.0
852,-0.29457948827681457,0.668131844315446,125.06609614751852,0.0
853,-0.3837430818061995,0.5878377052085135,125.14673028817704,0.0
854,-0.4912321006700179,0.4867439448316223,125.25738000801535,0.0
855,-0.607669493489519,0.3732885795132411,125.39680923549767,0.0
856,-0.7245860069706298,0.2561172036834204,125.56381083034366,0.0
857,-0.8350252872648686,0.14319144882789528,125.75720090677667,0.0
858,-0.9337358251121332,0.04109519727066051,125.97581345872685,0.0
859,-1.017110174565502,-0.04541338698670877,126.21849525770335,0.0
860,-1.0830438539844416,-0.11359916953678037,126.48410099859382,0.0
861,-1.1308282908646468,-0.16272221396666628,126.7714886728302,0.0
862,-1.161103280443508,-0.19382657265999256,127.07951515223776,0.0
863,-1.1758165098819566,-0.2093929881944886,127.40703197051143,0.0
864,-1.1781005083770586,-0.21290291788178717,127.75288129268652,0.0
865,-1.1719909772632306,-0.2083605123862458,128.1158920662223,0.0
866,-1.1619653101209364,-0.1998192997181553,128.49487635042868,0.0
867,-1.1523529212247356,-0.19096012417904376,128.88862582396183,0.0
868,-1.1467310926538394,-0.1847632050041733,129.29590847300864,0.0
869,-1.1474466258884342,-0.18330686553665632,129.71546546558687,0.0
870,-1.1553824360234992,-0.1877073661904864,130.14600822011082,0.0
871,-1.1700250034484658,-0.19819031216649438,130.58621567901298,0.0
872,-1.1898049059317959,-0.21425929418652354,131.03473180076458,0.0
873,-1.2126068083090864,-0.234908439216719,131.49016328609136,0.0
874,-1.2363008229245662,-0.2588186281990483,131.95107755651742,0.0
875,-1.2591455338214168,-0.2844858518111404,132.41600100557017,0.0
876,-1.279952738158797,-0.3102539061615402,132.88341754501133,0.0
877,-1.2979737798923332,-0.3342572331509439,133.35176747029416,0.0
878,-1.3125498063207337,-0.3543145296299506,133.81944667104162,0.0
879,-1.322643350345271,-0.36783976693872794,134.2848062136551,0.0
880,-1.3264174752647597,-0.3718458305032737,134.7461523241471,0.0
881,-1.3210371944967711,-0.36310243096187866,135.20174679989321,0.0
882,-1.3028289815902223,-0.3384752831546141,135.64980787916315,0.0
883,-1.2678497204387567,-0.29542484672979125,136.08851159696022,0.0
884,-1.212799769982371,-0.23259190084595838,136.51599365481576,0.0
885,-1.1360934852801619,-0.15035749354002936,136.93035183069162,0.0
886,-1.0388134819098922,-0.05124823257240873,137.32964895298625,0.0
887,-0.9252600365427086,0.05992886305797057,137.71191645976955,0.0
888,-0.8028828039253898,0.17629542810569188,138.0751585607424,0.0
889,-0.6815342022243982,0.2894652917704014,138.41735701500195,0.0
890,-0.5721662184529734,0.3904035965828256,138.73647653246618,0.0
891,-0.4852437410059553,0.47046257137639425,139.03047080077224,0.0
892,-0.4292165710463496,0.5224379708707245,139.29728913262076,0.0
893,-0.4093592144322276,0.5414836540487121,139.53488372093022,1.0
894,-0.4271712457688301,0.5257457011673372,139.75822529294442,0.0
895,-0.4803783304195127,0.4766248734265616,139.98343051411786,0.0
896,-0.563437993612777,0.3986357713768489,140.21017416610746,0.0
897,-0.6683734833623908,0.2988905694842538,140.438126784773,0.0
898,-0.7857468225805048,0.1862848008028472,140.66695457720633,0.0
899,-0.9056264618181985,0.07049653785508903,140.8963193538834,0.0
900,-1.0184757769867174,-0.03907312228329596,141.12587847648194,0.0
901,-1.1159490171876114,-0.13428973494641816,141.3552848219208,0.0
902,-1.1916016413376347,-0.20908960135856963,141.58418676319255,0.0
903,-1.2414942134406959,-0.2600064949622907,141.81222816756767,0.0
904,-1.264612997836513,-0.2863628071572948,142.03904841275687,0.0
905,-1.262986367997146,-0.2901084621105327,142.26428242161785,0.0
906,-1.2413841103787129,-0.2753375236380694,142.48756071599345,0.0
907,-1.2065625675052294,-0.24755862910255552,142.70850949026004,0.0
908,-1.1661418591444626,-0.21283355880316043,142.9267507051563,0.0
909,-1.1273236879319504,-0.1769199047808261,143.14190220244552,0.0
910,-1.0957273253954378,-0.1445522002818307,143.35357784094722,0.0
911,-1.074606450313811,-0.11896865366062781,143.56138765444567,0.0
912,-1.0646132177043017,-0.10174147510851493,143.76493803195496,0.0
913,-1.064130524322531,-0.09290728002756377,143.9638319207836,0.0
914,-1.0700462720738704,-0.09133367248453561,144.1576690527991,0.0
915,-1.078739405926616,-0.09521283974027601,144.34604619424655,0.0
916,-1.087014228121362,-0.10255362389715357,144.52855741942236,0.0
917,-1.0927594130765526,-0.1115547906480954,144.7047944084425,0.0
918,-1.0952002544944694,-0.12078141627642719,144.87434676928206,0.0
919,-1.0947235540178168,-0.12912401429458875,145.0368023841885,0.0
920,-1.0923537716280804,-0.13558225100377735,145.1917477804955,0.0
921,-1.0890300966217215,-0.13896661949519906,145.33876852577833,0.0
922,-1.0848743669188006,-0.1376392388867028,145.4774496472036,0.0
923,-1.0786512310482101,-0.1294112172253045,145.6073760748293,0.0
924,-1.0676015593293584,-0.11167812317521691,145.7281331085115,0.0
925,-1.0477688410801063,-0.08181410822237299,145.83930690796646,0.0
926,-1.0148305912260902,-0.03777275820692797,145.94048500542598,0.0
927,-0.9653041063308296,0.021223634865897387,146.0312568402094,0.0
928,-0.8978540822635835,0.09406755083574847,146.11121431441413,0.0
929,-0.8143415356382732,0.17739004294452124,146.17995236880532,0.0
930,-0.7202670740051306,0.2655577446399682,146.23706957785848,0.0
931,-0.6243930094259353,0.3511057312067985,146.28216876278145,0.0
932,-0.537546857478765,0.4255780713383615,146.31485762121244,0.0
933,-0.4708420016685556,0.48065734532531423,146.33474937216167,0.0
934,-0.4337175672648053,0.5093954678703924,146.34146341463415,1.0
935,-0.432242518930252,0.5073271245337969,146.34146341463415,0.0
936,-0.4680418822725742,0.47326110600835536,146.34146341463415,0.0
937,-0.5380274388081824,0.40960026657745874,146.34146341463415,0.0
938,-0.6349185458691313,0.3221250793226066,146.34146341463415,0.0
939,-0.7483829994514855,0.21927074599686658,146.34146341463415,0.0
940,-0.8665464556081277,0.1110146744957704,146.34146341463415,0.0
941,-0.9776098439399169,0.007554263787429169,146.34146341463415,0.0
942,-1.0713507868986014,-0.08201538044325218,146.34146341463415,0.0
943,-1.1403357913837495,-0.1508208885927761,146.34146341463415,0.0
944,-1.1807157885643582,-0.1949641424355477,146.34146341463415,0.0
945,-1.192518025311446,-0.21381153918003487,146.34146341463415,0.0
946,-1.1793946634148966,-0.2097989500297719,146.34146341463415,0.0
947,-1.1478544887427533,-0.18781108388750334,146.34146341463415,0.0
948,-1.1060877196773422,-0.15426033320252883,146.34146341463415,0.0
949,-1.0625771435833549,-0.11603315980195508,146.34146341463415,0.0
950,-1.0247441826961967,-0.0794844038465858,146.34146341463415,0.0
951,-0.9978820633836925,-0.04963955081572047,146.34146341463415,0.0
952,-0.9845710691235161,-0.02971600799018179,146.34146341463415,0.0
953,-0.9846634983458216,-0.02100657133305394,146.34146341463415,0.0
954,-0.9957959319159436,-0.023095300716524568,146.34146341463415,0.0
955,-1.0142694933980998,-0.03431304940390936,146.34146341463415,0.0
956,-1.036066418967253,-0.052300020104759565,146.34146341463415,0.0
957,-1.0577591178091945,-0.0745340978424013,146.34146341463415,0.0
958,-1.0771120021630938,-0.09870759699820886,146.34146341463415,0.0
959,-1.093259143033529,-0.12288540724496405,146.34146341463415,0.0
960,-1.1064418077231402,-0.14544220613372302,146.34146341463415,0.0
961,-1.1173922566189656,-0.16483983918506762,146.34146341463415,0.0
962,-1.1265391368742588,-0.1793525640685677,146.34146341463415,0.0
963,-1.1332684463975164,-0.18686562792103031,146.34146341463415,0.0
964,-1.1354829887072744,-0.18485619864938008,146.34146341463415,0.0
965,-1.1296480991685534,-0.1706178518760587,146.34146341463415,0.0
966,-1.1113936390829577,-0.14172152665382318,146.34146341463415,0.0
967,-1.0765856675619967,-0.09663384234022751,146.34146341463415,0.0
968,-1.0226284768577383,-0.03535658387447599,146.34146341463415,0.0
969,-0.9496570786429956,0.040075123982260624,146.34146341463415,0.0
970,-0.8612689089945851,0.12538520510394563,146.34146341463415,0.0
971,-0.7645342418281348,0.21423720849253464,146.34146341463415,0.0
972,-0.6691997941122446,0.2988217488083051,146.34146341463415,0.0
973,-0.5862131424227485,0.3707816175585556,146.34146341463415,0.0
974,-0.5258837003592804,0.4223295521855146,146.34146341463415,0.0
975,-0.4960987253177783,0.447367860738655,146.34146341463415,1.0
976,-0.5009951232951133,0.4424136162751996,146.30326509494796,0.0
977,-0.5403557043846725,0.40716807738964467,146.1900552984326,0.0
978,-0.6097987633771155,0.3446348298931328,146.0040755116275,0.0
979,-0.7016321097158082,0.2607718915817185,145.74776802837573,0.0
980,-0.8061113738921696,0.16374094997125996,145.42375345827693,0.0
981,-0.91281072581911,0.06287719570654277,145.03480779590816,0.0
982,-1.0118722125987702,-0.03246288924154146,144.5838393599387,0.0
983,-1.095003450273099,-0.11401275495958055,144.07386589169653,0.0
984,-1.1561884079956692,-0.17552165873553757,143.50799207878546,0.0
985,-1.1921264491128014,-0.21338675785699118,142.88938774201563,0.0
986,-1.202417231278271,-0.22692840375934242,142.22126689420955,0.0
987,-1.1894873570329192,-0.21829383390970175,141.50686784835477,0.0
988,-1.1582405413511818,-0.19202038164526716,140.7494345210036,0.0
989,-1.1154268608926825,-0.15432912301747798,139.95219904558272,0.0
990,-1.0687691319033157,-0.11225029373149178,139.11836578008487,0.0
991,-1.025940879575783,-0.07269978538863368,138.2510967650554,0.0
992,-0.993539939906226,-0.04162897200646637,137.3534986613313,0.0
993,-0.9762255702920642,-0.023356680375436388,136.4286111729839,0.0
994,-0.976172622196768,-0.02016315977031511,135.47939693959117,0.0
995,-0.9929414437330957,-0.03218509266907928,134.50873286345245,0.0
996,-1.0237772676192438,-0.05760434134962226,133.51940282168698,0.0
997,-1.0642605840602652,-0.09307919968131985,132.5140917002865,0.0
998,-1.109157957574265,-0.13433330628414483,131.49538067700956,0.0
999,-1.1532919942016266,-0.1768000269522674,130.4657436723456,0.0
1000,-1.1922656124229725,-0.2162215730315518,129.4275448824452,0.0
1001,-1.2229294518296705,-0.24912092187669257,128.38303730467518,0.0
1002,-1.2435527777732829,-0.2730957282472406,127.33436216507975,0.0
1003,-1.2537271244263528,-0.28691965006150744,126.28354915725629,0.0
1004,-1.25408235864284,-0.29047028510399703,125.23251740375093,0.0
1005,-1.2459182350745408,-0.28452806676177844,124.18307705379979,0.0
1006,-1.230849935805211,-0.27050349501774007,123.13693143487322,0.0
1007,-1.2105393262022373,-0.2501505786938809,122.09567967981125,0.0
1008,-1.1865446459626563,-0.22531462836253016,121.06081975618588,0.0
1009,-1.1602809812843358,-0.19774652157588576,120.03375182972475,0.0
1010,-1.1330517895055716,-0.1689975722114629,119.01578189903685,0.0
1011,-1.1060958077804528,-0.14039266130885583,118.00812564437001,0.0
1012,-1.0805992715617643,-0.11306629802222903,117.01191243860053,0.0
1013,-1.057650591837947,-0.08803720128167236,116.02818947401995,0.0
1014,-1.0381541310367373,-0.06629130976419786,115.05792596367812,0.0
1015,-1.0227525241704833,-0.04884034649652747,114.10201738100847,0.0
1016,-1.0118126626307022,-0.036723583487843436,113.16128970616843,0.0
1017,-1.0054998297164894,-0.030925856518551342,112.23650365194067,0.0
1018,-1.0039076997629506,-0.032197361143771336,111.32835884615076,0.0
1019,-1.007155587619817,-0.04078172338871426,110.43749795135012,0.0
1020,-1.0153400351702584,-0.056087199520689544,109.56451070599249,0.0
1021,-1.0282583244788464,-0.07636682828583914,108.7099378745019,0.0
1022,-1.0449093017515332,-0.09849849827306939,107.87427509649976,0.0
1023,-1.0628981058282365,-0.1179648849106949,107.05797662804218,0.0
1024,-1.0779794588932914,-0.12911711576578427,106.26145897003344,0.0
1025,-1.0840159868786752,-0.1257611025741617,105.48510438104131,0.0
1026,-1.0735674914146847,-0.10203620325809229,104.72926427357031,0.0
1027,-1.0391638742363682,-0.05347571528047747,103.99426249446518,0.0
1028,-0.9750879859732879,0.02193211751736271,103.28039849153912,0.0
1029,-0.8792734982117918,0.12290348124588615,102.58795036977446,0.0
1030,-0.7547855929991878,0.24445109696000306,101.917177841541,0.0
1031,-0.6103650836888069,0.3780590260249938,101.26832507624266,0.0
1032,-0.4597076992891699,0.5124829259858634,100.64162345565579,0.0
1033,-0.3194863077135574,0.6350892392900557,100.03729424197438,0.0
1034,-0.20650490358333176,0.7335266919422323,99.45555116625488,0.0
1035,-0.13466193842288368,0.7974435064928462,98.89660294556481,0.0
1036,-0.11248081137048906,0.8199454253210802,98.36065573770492,1.0
1037,-0.14179952447609653,0.7985384402551885,97.83351518361113,0.0
1038,-0.2178619744469826,0.7354036550678266,97.30127689178099,0.0
1039,-0.33065346308249055,0.6369836004539338,96.7645675251552,0.0
1040,-0.467015396609435,0.5129872649228688,96.2239948461745,0.0
1041,-0.6129503325417911,0.37501627224071526,95.68014745085861,0.0
1042,-0.7555991115329571,0.2350593183136147,95.13359458526959,0.0
1043,-0.884576204905562,0.10409311956520835,94.58488603906154,0.0
1044,-0.9925929125302916,-0.009023926931797488,94.03455211081484,0.0
1045,-1.075493735167034,-0.09825562876114999,93.48310363989245,0.0
1046,-1.1319287141650132,-0.16065990173952724,92.93103209962872,0.0
1047,-1.1628788530586138,-0.19626645863483558,92.3788097467683,0.0
1048,-1.1711751171945721,-0.20764311509597497,91.82688982220472,0.0
1049,-1.1610541600985653,-0.19925486275115906,91.27570679822504,0.0
1050,-1.1377220693213377,-0.17672167473549166,90.72567666764188,0.0
1051,-1.1068764189778324,-0.14607012039614015,90.1771972703843,0.0
1052,-1.0741652091751808,-0.11305662410568514,89.63064865332255,0.0
1053,-1.0446159665293009,-0.08262071725389539,89.08639345931233,0.0
1054,-1.0221180491401312,-0.05850651676670607,88.54477734166254,0.0
1055,-1.0090602392714243,-0.043069993416739616,88.00612940045173,0.0
1056,-1.0062036590361623,-0.037268339941796916,87.47076263734124,0.0
1057,-1.0128150556184432,-0.04080691713472978,86.93897442575499,0.0
1058,-1.0270195223743506,-0.052401220402237034,86.41104699351627,0.0
1059,-1.046279852946323,-0.07009927145532772,85.88724791524733,0.0
1060,-1.067888804960293,-0.0916067103537773,85.3678306120491,0.0
1061,-1.089373109563343,-0.11456407465451582,84.85303485618333,0.0
1062,-1.108744281212121,-0.13674247852192684,84.34308727867652,0.0
1063,-1.1245761986751537,-0.15614695713427423,83.83820187795709,0.0
1064,-1.1359302543414351,-0.17104115960833233,83.33858052781748,0.0
1065,-1.1421788071978176,-0.17992721303558631,82.8444134831679,0.0
1066,-1.142795484267163,-0.18152541478390383,82.35587988221273,0.0
1067,-1.1371874186821902,-0.17479675049414198,81.87314824383665,0.0
1068,-1.1246389601262006,-0.15903662193368096,81.39637695913437,0.0
1069,-1.1044153425789922,-0.13404325338096998,80.92571477615597,0.0
1070,-1.0760357695659357,-0.1003345274560973,80.46130127706934,0.0
1071,-1.0396723219910264,-0.059359878149169217,80.00326734706132,0.0
1072,-0.9965769563633363,-0.013637077092930572,79.55173563441149,0.0
1073,-0.9494021604073102,0.03325653563060037,79.10682100127727,0.0
1074,-0.9022779110357367,0.07688980563885328,78.66863096482423,0.0
1075,-0.8605455248113246,0.11239541424322327,78.23726612842543,0.0
1076,-0.8301229261191155,0.13506691088125694,77.81282060273429,0.0
1077,-0.8165703657047297,0.14105460241683287,77.39538241651157,0.0
1078,-0.8240180286107199,0.12804301206306828,76.98503391715475,0.0
1079,-0.8541816383808278,0.09577758262901481,76.58185216094148,0.0
1080,-0.9057066883205218,0.04632123439615127,76.18590929305536,0.0
1081,-0.9740348668634689,-0.016037717705859534,75.79727291751462,0.0
1082,-1.0518830138765127,-0.08524278928011579,75.41600645717116,0.0
1083,-1.1302880949252245,-0.15423762629050297,75.04216950399031,0.0
1084,-1.2000350286981456,-0.21592759021236174,74.67581815985986,0.0
1085,-1.2531838652394633,-0.2641745829470742,74.31700536821239,0.0
1086,-1.284378020027272,-0.29465439794486004,73.96578123677618,0.0
1087,-1.291659749631879,-0.3054297728685724,73.62219335179839,0.0
1088,-1.2766341784377475,-0.2971457197090675,73.28628708411017,0.0
1089,-1.2439771958016659,-0.2728247836393588,72.95810588742704,0.0
1090,-1.2004302195137755,-0.23731299156418487,72.63769158929847,0.0
1091,-1.1535251792863221,-0.19648687041143512,72.32508467514131,0.0
1092,-1.1103149255244764,-0.15636638767968164,72.02032456580837,0.0
1093,-1.0763501326006653,-0.12228277982563486,71.72344988916129,0.0
1094,-1.0550622536406669,-0.09822599138800676,71.4344987461322,0.0
1095,-1.047607414282006,-0.08645196289744278,71.1535089717737,0.0
1096,-1.0531222681019665,-0.08737695104681832,70.880518391811,0.0
1097,-1.069261913330002,-0.09973645388806737,70.6155650752249,0.0
1098,-1.092849915658345,-0.1209495080117945,70.35868758340824,0.0
1099,-1.1204795316167382,-0.14760983749347648,70.10992521645233,0.0
1100,-1.1489569748831248,-0.17602310888412492,69.86931825713592,0.0
1101,-1.1755517908387216,-0.20271975452267094,69.63690821320353,0.0
1102,-1.19808950636935,-0.22488880545277207,69.41273805853753,0.0
1103,-1.2149645032874161,-0.24069378495160515,69.19685247384469,0.0
1104,-1.2251540983412417,-0.24944347362424527,68.98929808749766,0.0
1105,-1.2282798314813594,-0.2515984631324731,68.79012371719205,0.0
1106,-1.224704354014277,-0.24860229400402328,68.5993806131016,0.0
1107,-1.2155961898514325,-0.24253850506543084,68.41712270323889,0.0
1108,-1.2028638807070424,-0.23563592410091008,68.24340684175522,0.0
1109,-1.1888701633630956,-0.2296743495996152,68.07829306094301,0.0
1110,-1.1758873596300843,-0.22537689463302196,67.92184482773601,0.0
1111,-1.1653378744585576,-0.22190455199774278,67.77412930553855,0.0
1112,-1.1569617838551551,-0.21658132477135217,67.63521762225395,0.0
1113,-1.1481420739764356,-0.20496388508516133,67.50518514542534,0.0
1114,-1.1336634861776158,-0.18132262650567055,67.38411176545037,0.0
1115,-1.1061475210081806,-0.13952413562662955,67.27208218788299,0.0
1116,-1.0572733175212976,-0.07421141807060289,67.16918623589387,0.0
1117,-0.9796749672467132,0.017911093070913486,67.0755191640249,0.0
1118,-0.8691549102422153,0.13694077346072792,66.99118198444279,0.0
1119,-0.7266553527660977,0.27905054662372153,66.91628180697549,0.0
1120,-0.5593728019461808,0.4363827657073882,66.85093219429938,0.0
1121,-0.3805397200503958,0.597663075531771,66.79525353373995,0.0
1122,-0.20772277052386007,0.7494883771718875,66.74937342725234,0.0
1123,-0.05991339879223386,0.8780949812819466,66.71342710126241,0.0
1124,0.04592871816178869,0.9712998877661343,66.68755783817501,0.0
1125,0.0980208273088154,1.0202600313484216,66.67191743149596,0.0
1126,0.09180423946907426,1.0207252234259447,66.66666666666667,1.0
1127,0.03042786821972161,0.9735635848943495,66.68702287935169,0.0
1128,-0.07634502999593458,0.8844877237675938,66.7472914986714,0.0
1129,-0.21439885780438975,0.7630685993276068,66.8463732903625,0.0
1130,-0.36803536339945325,0.6212541766899146,66.9832927046138,0.0
1131,-0.522564155179994,0.4716836914719841,67.15718562501928,0.0
1132,-0.6661976133887861,0.3260943041336103,67.36728829649519,0.0
1133,-0.7910090857055646,0.1940617733845328,67.61292724579233,0.0
1134,-0.8929902527253397,0.08222120472732142,67.8935100318893,0.0
1135,-0.9714458578400723,-0.00599467970972975,68.20851668304579,0.0
1136,-1.028056440783266,-0.07015799095604583,68.55749169335245,0.0
1137,-1.0659235732121821,-0.11231175364964607,68.94003646481762,0.0
1138,-1.0888144724338313,-0.13624913301139568,69.35580209186365,0.0
1139,-1.1006870579380443,-0.14674743120846698,69.8044823939647,0.0
1140,-1.1054515006675005,-0.14886699096345454,70.28580710937509,0.0
1141,-1.1068507950490702,-0.14738366037401382,70.79953516875673,0.0
1142,-1.1083390411786322,-0.14638389236674748,71.34544797226091,0.0
1143,-1.1128908376983169,-0.149021271271466,71.92334259746914,0.0
1144,-1.1227541269170396,-0.1574144878077525,72.53302486875185,0.0
1145,-1.1392214133818837,-0.17265775824610144,73.17430222124315,0.0
1146,-1.1625124528301165,-0.19491190586397478,73.84697629494121,0.0
1147,-1.1918305925532593,-0.223544745973625,74.55083519660276,0.0
1148,-1.2255923325971103,-0.25729170404941054,75.28564536929888,0.0
1149,-1.2617646136749543,-0.2944121163533643,76.0511430119308,0.0
1150,-1.2982049621080118,-0.3328244438785262,76.84702499388493,0.0
1151,-1.3329023675146079,-0.370214953185882,77.67293921356558,0.0
1152,-1.364060801055854,-0.40412777938143907,78.52847435403683,0.0
1153,-1.390035064281569,-0.4320562893719539,79.41314899471125,0.0
1154,-1.4091926927426144,-0.45156193385062,80.32640004524818,0.0
1155,-1.4198097841463466,-0.4604435801021724,81.26757047690177,0.0
1156,-1.420099518273674,-0.4569662403456438,82.2358963378494,0.0
1157,-1.408424431726765,-0.4401351303892964,83.23049305291222,0.0
1158,-1.383675628802994,-0.4099744934638764,84.25034102495391,0.0
1159,-1.3457362949541605,-0.3677482566750247,85.2942705755066,0.0
1160,-1.2959011273398189,-0.3160492871572018,86.36094628622413,0.0
1161,-1.23710902385951,-0.258691707864321,87.44885083095816,0.0
1162,-1.173868957314234,-0.20036837593666773,88.55626842090642,0.0
1163,-1.1118167987267915,-0.14608012269751863,89.68126802260474,0.0
1164,-1.0569232391339,-0.10039667765275079,90.82168655061945,0.0
1165,-1.0144610370752694,-0.06665978009583919,91.9751122835461,0.0
1166,-0.9879124204265012,-0.04627410995939627,93.13886880300987,0.0
1167,-0.9780381353002445,-0.038240421816821274,94.30999981016112,0.0
1168,-0.982329700270087,-0.039061339756321575,95.4852552316743,0.0
1169,-0.9950235042228496,-0.043094073521776355,96.66107908605663,0.0
1170,-1.0077711584794358,-0.04334377394371758,97.83359963922071,0.0
1171,-1.0109413815825345,-0.03260099086960247,98.99862243328917,0.0
1172,-0.995388934225239,-0.004745578506391457,100.15162682139406,0.0
1173,-0.9543905239746245,0.0440133931970728,101.28776668014059,0.0
1174,-0.8853508589976226,0.11420163549921786,102.40187599618764,0.0
1175,-0.7908628017384542,0.20264707433522472,103.48848002936211,0.0
1176,-0.6787936422561528,0.3026645829019938,104.54181273686918,0.0
1177,-0.5612678946503463,0.40485676344528465,105.55584109642363,0.0
1178,-0.45268764122191174,0.498409137066558,106.5242968857058,0.0
1179,-0.3671969723633738,0.5726593650672935,107.44071635731494,0.0
1180,-0.31616545237285015,0.6186658640746444,108.29848808937899,0.0
1181,-0.30626932691759545,0.6305038798613882,109.09090909090908,1.0
1182,-0.33857939762795825,0.6060753719202343,109.85694821580057,0.0
1183,-0.40877918176908223,0.5473180693815507,110.63961938335808,0.0
1184,-0.5083377180712895,0.4598147262818875,111.4382209327527,0.0
1185,-0.6262487872990137,0.3519094794883154,112.25200109449678,0.0
1186,-0.7508799119937419,0.2335125693721697,113.08015420050012,0.0
1187,-0.8715466275941992,0.11480569791464415,113.92181686933655,0.0
1188,-0.97958774646264,0.005047862558483648,114.77606418463257,0.0
1189,-1.068895450489398,-0.08836450423866166,115.64190588791757,0.0
1190,-1.1359920112895348,-0.16049323067447985,116.51828261094516,0.0
1191,-1.179812898321751,-0.2090857712627823,117.40406217639837,0.0
1192,-1.2013534515784643,-0.2344648788111289,118.29803600000483,0.0
1193,-1.2032842487171413,-0.23914841762557865,119.19891563138954,0.0
1194,-1.1895708155326041,-0.22728595524862963,120.10532947543739,0.0
1195,-1.165078419995323,-0.20400253862748893,121.01581974048106,0.0
1196,-1.1351241727600991,-0.17473375999544719,121.92883966420398,0.0
1197,-1.1049608036843253,-0.14462413764664123,122.84275107267865,0.0
1198,-1.0792248424623048,-0.11804536672783637,123.75582233235129,0.0
1199,-1.0614303427943133,-0.0982727025557637,124.66622675892683,0.0
1200,-1.0536123637046042,-0.08733645454467677,125.57204155087886,0.0
1201,-1.0562087097241073,-0.08604181244166059,126.47124731855995,0.0
1202,-1.0682167870342736,-0.09412623062943594,127.36172828246706,0.0
1203,-1.08759124253854,-0.1105034049489135,128.2412732159458,0.0
1204,-1.1117805566586603,-0.13353140595085783,129.10757720831415,0.0
1205,-1.1382593807701342,-0.16124390681665585,129.95824432385717,0.0
1206,-1.1649127529506136,-0.19149922043248088,130.790791230189,0.0
1207,-1.1901705640256117,-0.22202982836403257,131.60265186590232,0.0
1208,-1.2128650590071368,-0.25040916437675986,132.39118321203762,0.0
1209,-1.2318708814539228,-0.2739838277892565,133.15367222453213,0.0
1210,-1.2456628166137542,-0.28983888803252905,133.88734397530325,0.0
1211,-1.2519690698458017,-0.29486444338234613,134.58937103787073,0.0
1212,-1.2476915006679223,-0.28597062416380203,135.2568841393569,0.0
1213,-1.2292032073986416,-0.26045915487043775,135.88698408431742,0.0
1214,-1.1930280158679087,-0.21651134636436475,136.4767549371998,0.0
1215,-1.1367818877006655,-0.15370750370789793,137.02327842944334,0.0
1216,-1.0601500640426764,-0.07346408075624243,137.52364953453926,0.0
1217,-0.965622883344737,0.02072794123325508,137.97499313008333,0.0
1218,-0.8587416939269993,0.12335375002817686,138.37448164038378,0.0
1219,-0.74771468912659,0.2272538368264161,138.71935352704716,0.0
1220,-0.6424239730130039,0.3243064660316746,139.00693246875085,0.0
1221,-0.5530113082610812,0.40632551235517794,139.23464704581164,0.0
1222,-0.4883466339384392,0.46603939460606836,139.40005072092433,0.0
1223,-0.45471152943901266,0.4979977883301752,139.50084188537252,0.0
1224,-0.4549620615299365,0.49926462161016416,139.53488372093022,1.0
1225,-0.48829927898526365,0.4697944362473542,139.50837235490874,0.0
1226,-0.5506199184217252,0.4124443314294938,139.42979257481133,0.0
1227,-0.635293862547672,0.3326324090035887,139.300658592471,0.0
1228,-0.7341510535676152,0.23770391314739114,139.12258625196324,0.0
1229,-0.8384680629346958,0.1361001303522719,138.89728202161444,0.0
1230,-0.9398102111320901,0.03644001597927777,138.62653189670277,0.0
1231,-1.0306781599356112,-0.05337726271173304,138.31219032279495,0.0
1232,-1.104988426347986,-0.12695397533919228,137.95616924231655,0.0
1233,-1.1584513481899794,-0.17998414574906813,137.5604273585256,0.0
1234,-1.1888862759874128,-0.21059876591870968,137.1269597018147,0.0
1235,-1.196451105289386,-0.21943513130656694,136.65778757344788,0.0
1236,-1.1837021689967868,-0.20942450414500988,136.15494893169173,0.0
1237,-1.1553811681005828,-0.18532021600068221,135.62048927504267,0.0
1238,-1.1178662372623778,-0.15301849407763415,135.05645306709232,0.0
1239,-1.0783113578558225,-0.11875348491463991,134.46487573768513,0.0
1240,-1.0435964745581514,-0.08827061175311654,133.84777628556034,0.0
1241,-1.0192806807671155,-0.06609225116517015,133.20715049876347,0.0
1242,-1.0087676802231922,-0.05498190369643018,132.5449648008534,0.0
1243,-1.0128528943495474,-0.055686132718720874,131.86315072340187,0.0
1244,-1.0297398180275985,-0.06699057676671817,131.16359999852415,0.0
1245,-1.0555139275244851,-0.08607449792417607,130.4481602592244,0.0
1246,-1.0849708451970497,-0.10909747701403216,129.71863133019315,0.0
1247,-1.1126309845144016,-0.13191226589161098,128.97676208734399,0.0
1248,-1.1337455031554795,-0.15077770410026525,128.2242478608022,0.0
1249,-1.1451086870824139,-0.16294930171742722,127.46272835321629,0.0
1250,-1.1455344498202926,-0.16705192593065332,126.6937860431143,0.0
1251,-1.1359216662067162,-0.16318349878581268,125.9189450415114,0.0
1252,-1.1189149977097408,-0.15275153075096892,125.13967036904091,0.0
1253,-1.0982509629469561,-0.13809478325487676,124.35736762046302,0.0
1254,-1.0779444326396261,-0.12198011744153145,123.57338298344484,0.0
1255,-1.061499404635443,-0.10708224701805083,122.78900357894187,0.0
1256,-1.0513097470032204,-0.09554870682979064,122.00545809128366,0.0
1257,-1.0483563847494923,-0.08872591452194056,121.22391765712017,0.0
1258,-1.0522275001928787,-0.08708120859753746,120.44549698366995,0.0
1259,-1.0614133027377706,-0.09030954895124563,119.67125566817151,0.0
1260,-1.0737761836221396,-0.0975723177554645,118.9021996920405,0.0
1261,-1.0870769243321876,-0.10778817960822602,118.13928306492879,0.0
1262,-1.0994424720926856,-0.11988802388060613,117.3834095956376,0.0
1263,-1.1096806886204111,-0.13295931273182074,116.63543476862377,0.0
1264,-1.117376172419948,-0.14623703091624568,115.89616770662806,0.0
1265,-1.1227384434172323,-0.15894228780284986,115.16637320172799,0.0
1266,-1.126220689269621,-0.17001599829834368,114.44677379885351,0.0
1267,-1.1279809120691606,-0.1778332346565304,113.73805191748974,0.0
1268,-1.1273087636593122,-0.1800038026596995,113.04085199891433,0.0
1269,-1.122178158755579,-0.17335930624820195,112.35578266786902,0.0
1270,-1.1090947945633547,-0.15419434424563888,111.68341889904019,0.0
1271,-1.0833769884883466,-0.11877374829039462,111.02430418011753,0.0
1272,-1.039929727010213,-0.06404953927290666,110.37895266451162,0.0
1273,-0.9744476326768643,0.011533948986667444,109.74785130804065,0.0
1274,-0.8848330295900482,0.10731334968445005,109.13146198504249,0.0
1275,-0.7724828266956884,0.2199347816938652,108.53022358043893,0.0
1276,-0.6430397394109635,0.3432825785612534,107.94455405526965,0.0
1277,-0.5062697276039864,0.4688822605565109,107.37485248413681,0.0
1278,-0.3749315081297569,0.586755864480083,106.82150106385528,0.0
1279,-0.2627988962484379,0.6866092297059692,106.2848670933993,0.0
1280,-0.1822809139471666,0.7591546078981762,105.76530492597468,0.0
1281,-0.14224108763477766,0.7973381775075293,105.26315789473685,1.0
1282,-0.1465717584753843,0.7972598486582485,104.76421346576062,0.0
1283,-0.19384240397518626,0.7586372247624594,104.25465216811945,0.0
1284,-0.2780077507196106,0.684759214558895,103.73538549099017,0.0
1285,-0.3898637745641857,0.5819729487372549,103.20730476160165,0.0
1286,-0.518782220478749,0.45882630586659,102.67127994809225,0.0
1287,-0.6542710732201235,0.3250310750911588,102.12815863012966,0.0
1288,-0.7870616082757138,0.19041386145874312,101.57876513038605,0.0
1289,-0.9096343687234261,0.06399022174071074,101.02389979940082,0.0
1290,-1.0162871113282723,-0.04675290864071513,100.46433844592553,0.0
1291,-1.1029610902048725,-0.13633360136834163,99.90083190452427,0.0
1292,-1.1670543804723064,-0.2015175089154555,99.3341057319901,0.0
1293,-1.2073728001590376,-0.24135584206698663,98.76486002402109,0.0
1294,-1.2242405392474458,-0.25705264877803036,98.19376934357135,0.0
1295,-1.2196702258299714,-0.2516898312913224,97.62148275234345,0.0
1296,-1.197426771884803,-0.22983173806683527,97.04862393700684,0.0
1297,-1.162835425927871,-0.19703051256336374,96.47579142190581,0.0
1298,-1.1222707075662481,-0.15926122325041137,95.90355886025162,0.0
1299,-1.0823794358756254,-0.12232962205379912,95.33247539606391,0.0
1300,-1.0491892130550258,-0.09130909733263903,94.7630660894364,0.0
1301,-1.0272977725584356,-0.07007008836445573,94.19583239803544,0.0
1302,-1.0193184675256073,-0.06095999427692789,93.63125270809725,0.0
1303,-1.0256871408531727,-0.0646733982579712,93.06978290856208,0.0
1304,-1.0448432388184041,-0.08032442823964712,92.51185700236373,0.0
1305,-1.073711937798377,-0.10570159169365881,91.95788774928131,0.0
1306,-1.1083562372153206,-0.13765780285878879,91.40826733514639,0.0
1307,-1.144650137359735,-0.17257071605339408,90.8633680625847,0.0
1308,-1.1788457275393163,-0.20680415386279574,90.32354305885006,0.0
1309,-1.2079560982157467,-0.23711008151321747,89.78912699667914,0.0
1310,-1.229933477549331,-0.2609288089876712,89.26043682445568,0.0
1311,-1.243670391152359,-0.2765676263609574,88.73777250232061,0.0
1312,-1.2488813871399793,-0.2832594045849709,88.2214177411977,0.0
1313,-1.2459324981900257,-0.28111860018265067,87.71164074202483,0.0
1314,-1.2356774985065937,-0.27102056246715395,87.20869493278312,0.0
1315,-1.219337441144504,-0.2544314119117058,86.71281970120462,0.0
1316,-1.1984284167586432,-0.23321224452607747,86.22424112131054,0.0
1317,-1.1747118616845447,-0.20941605259948698,85.74317267218682,0.0
1318,-1.1501246011994344,-0.1850912270911459,85.26981594764325,0.0
1319,-1.1266510745066072,-0.16210323640219726,84.80436135562589,0.0
1320,-1.106127156262468,-0.14198581584215203,84.34698880645956,0.0
1321,-1.0900025568865206,-0.12583314055044192,83.89786838919234,0.0
1322,-1.079120432850961,-0.11424287076125775,83.45716103549049,0.0
1323,-1.073583832361738,-0.10731511050818524,83.02501917070035,0.0
1324,-1.0727617566094052,-0.10470413261234152,82.60158735184532,0.0
1325,-1.075446428135696,-0.10570988766173946,82.18700289246684,0.0
1326,-1.0801220240672447,-0.10938785702480908,81.78139647434924,0.0
1327,-1.0852642169227553,-0.1146520262809316,81.38489274628667,0.0
1328,-1.0895776154093275,-0.12034891690437172,80.99761091016121,0.0
1329,-1.0921013422366457,-0.12529092574379663,80.61966529470251,0.0
1330,-1.0921628565993335,-0.1282524572191034,80.25116591739241,0.0
1331,-1.0892168428131666,-0.12794831366324272,79.89221903506595,0.0
1332,-1.0826479334986228,-0.12302558507679659,79.54292768383922,0.0
1333,-1.0716290058340496,-0.11210361433856042,79.20339220907104,0.0
1334,-1.0551084393376058,-0.09388928503767735,78.87371078613528,0.0
1335,-1.03195848222385,-0.06737739879979018,78.55397993284802,0.0
1336,-1.001267206543266,-0.03212149155669682,78.24429501445798,0.0
1337,-0.9627133847537965,0.011465712268576206,77.94475074216972,0.0
1338,-0.9169379503780071,0.06184483390736564,77.65544166623022,0.0
1339,-0.8658218378581198,0.11618981647953514,77.37646266466928,0.0
1340,-0.8125952325654832,0.17040742030840902,77.10790942884309,0.0
1341,-0.761730011961065,0.21938977064923243,76.84987894699255,0.0
1342,-0.7185968398403826,0.25751951898614184,76.60246998708877,0.0
1343,-0.6888953436238476,0.2794013968238065,76.36578358030441,0.0
1344,-0.6778897377975229,0.2807427671962712,76.13992350651675,0.0
1345,-0.6895079366235833,0.25925802372003903,75.92499678332108,0.0
1346,-0.725396089729163,0.21543765510100854,75.72111416011035,0.0
1347,-0.7840647729276131,0.15301273992950315,75.52839061886014,0.0
1348,-0.8603099488427088,0.07896755312784769,75.34694588334831,0.0
1349,-0.9451213780268485,0.003009965059582058,75.17690493863697,0.0
1350,-1.026275339781362,-0.06350274425893401,75.01839856275195,0.0
1351,-1.0897212974817512,-0.10907878064008063,74.87156387261261,0.0
1352,-1.1217045012982516,-0.12383929613813752,74.73654488639453,0.0
1353,-1.1113412912279108,-0.10121253089961045,74.61349310465047,0.0
1354,-1.053142007440913,-0.039260603250805964,74.50256811267293,0.0
1355,-0.9488459259652142,0.05863891756407341,74.40393820675548,0.0
1356,-0.8079770591721315,0.18393353050087768,74.31778104720392,0.0
1357,-0.646784710935296,0.32388586214231796,74.24428434116159,0.0
1358,-0.48565168429208094,0.46327396771047225,74.18364655855126,0.0
1359,-0.345506040083402,0.5865171942232168,74.1360776846988,0.0
1360,-0.24409113555642403,0.6798547556284975,74.1018000134979,0.0
1361,-0.19300273128029138,0.7331957220008163,74.08104898529949,0.0
1362,-0.19616418147123074,0.7413326074360832,74.07407407407408,1.0
1363,-0.24997346900092868,0.704347145899302,74.0751353743422,0.0
1364,-0.3448860333280545,0.6272015452375928,74.07831481795758,0.0
1365,-0.46785781230826073,0.5186614731908776,74.08360598994473,0.0
1366,-0.6049546357768081,0.3898041537098327,74.09100283343459,0.0
1367,-0.7435322292454128,0.25240685182981426,74.10049964608663,0.0
1368,-0.873628663065135,0.11748673598413886,74.11209107667162,0.0
1369,-0.9884871689055285,-0.0058118835775487765,74.12577212181117,0.0
1370,-1.084358371285967,-0.11088703956791257,74.14153812287215,0.0
1371,-1.1598689702863578,-0.1939071921605262,74.15938476301216,0.0
1372,-1.215274338631736,-0.25367351234793767,74.17930806437398,0.0
1373,-1.251847596547829,-0.29123035798175645,74.20130438542645,0.0
1374,-1.271530888547997,-0.30934127475371714,74.22537041844893,0.0
1375,-1.2768333779300476,-0.3119256200579045,74.25150318715744,0.0
1376,-1.2708537412761127,-0.3035172392647596,74.27970004447016,0.0
1377,-1.2572661321053014,-0.2887752020970603,74.30995867041025,0.0
1378,-1.2401433939560527,-0.27205658897548124,74.34227707014381,0.0
1379,-1.2235770475073164,-0.2570553937231944,74.37665357215154,0.0
1380,-1.2111509893093668,-0.24651645426119365,74.41308682653198,0.0
1381,-1.2053968004445308,-0.2420419256574503,74.45157580343488,0.0
1382,-1.2073803838932202,-0.24401264460916328,74.4921197916231,0.0
1383,-1.2165401689580513,-0.25164262149119354,74.53471839716165,0.0
1384,-1.2308310703536562,-0.26317067302973823,74.57937154223255,0.0
1385,-1.2471492671579585,-0.2761718465366622,74.62607946407408,0.0
1386,-1.2619444348163393,-0.2879486279837848,74.6748427140435,0.0
1387,-1.2718857871182014,-0.29594461839243724,74.72566215680224,0.0
1388,-1.2744437571084506,-0.2981167189380055,74.77853896962215,0.0
1389,-1.2682777196698978,-0.29320829818733374,74.83347464181247,0.0
1390,-1.2533711749024516,-0.2808842378524785,74.8904709742665,0.0
1391,-1.2309143788403427,-0.26171500511600826,74.94953007912717,0.0
1392,-1.2029858400890547,-0.23702497013343168,75.01065437957111,0.0
1393,-1.1721179482993402,-0.2086438314080044,75.07384660971053,0.0
1394,-1.1408441308334825,-0.17861429323676817,75.13910981461265,0.0
1395,-1.1113167720257295,-0.14891153210232222,75.20644735043604,0.0
1396,-1.0850611236306675,-0.12122081575696908,75.27586288468396,0.0
1397,-1.0628959520308237,-0.0968018129808978,75.34736039657419,0.0
1398,-1.0450125540679513,-0.07644631829937631,75.42094417752539,0.0
1399,-1.031167099007208,-0.06051554123330336,75.49661883176012,0.0
1400,-1.0209157367674873,-0.049028310203109604,75.57438927702405,0.0
1401,-1.0138163157855224,-0.04176534010677642,75.65426074542233,0.0
1402,-1.009539308066601,-0.03835767060750026,75.73623878437245,0.0
1403,-1.007868670208757,-0.03833785023607306,75.82032925767449,0.0
1404,-1.0086156603547745,-0.041147175954384524,75.90653834669905,0.0
1405,-1.011496390939801,-0.04610742523975557,75.99487255169304,0.0
1406,-1.0160261084166708,-0.052377525122024246,76.0853386932042,0.0
1407,-1.0214635768362292,-0.058922049624890144,76.17794391362489,0.0
1408,-1.026812992501254,-0.06451823357849468,76.2726956788556,0.0
1409,-1.0308749264712966,-0.06782149219922136,76.36960178008954,0.0
1410,-1.032338282133597,-0.06749736050767752,76.46867033571854,0.0
1411,-1.0299152734501587,-0.0624121512190708,76.56990979336173,0.0
1412,-1.02252667202839,-0.05185791373206177,76.67332893201777,0.0
1413,-1.0095338872368098,-0.035772434754868965,76.7789368643418,0.0
1414,-0.9909878921073062,-0.014905356901788333,76.88674303904858,0.0
1415,-0.9678346237374195,0.009119852069662343,76.99675724344266,0.0
1416,-0.9419997701512941,0.033889152828417424,77.10898960607753,0.0
1417,-0.9162858181069892,0.05644729941588027,77.22345059954473,0.0
1418,-0.8940516002968089,0.07370494208919927,77.3401510433949,0.0
1419,-0.8786969705072549,0.08296113246218167,77.45910210719228,0.0
1420,-0.8730242834634198,0.08246654413985577,77.58031531370443,0.0
1421,-0.8785801598719003,0.07192914824312925,77.70380254222904,0.0
1422,-0.8950926360315826,0.052855898819586425,77.82957603205983,0.0
1423,-0.9201162167024736,0.028635768358987963,77.95764838609375,0.0
1424,-0.9489867507423434,0.0043024780332490895,78.08803257458132,0.0
1425,-0.9751674204246498,-0.014033485004640203,78.22074193902272,0.0
1426,-0.9910253981054581,-0.02003193000724593,78.3557901962119,0.0
1427,-0.9890043933933768,-0.008135904947377752,78.49319144243117,0.0
1428,-0.9630527944001626,0.025410437232641504,78.63296015779899,0.0
1429,-0.9100537629735088,0.08172133091788437,78.77511121077347,0.0
1430,-0.8309253570769258,0.15877488265733156,78.9196598628149,0.0
1431,-0.7310623837553232,0.25138313314967997,79.06662177320958,0.0
1432,-0.6199046392370311,0.35166615406394797,79.21601300405884,0.0
1433,-0.5096256492493697,0.44997681248392507,79.36785002543573,0.0
1434,-0.41318313309035803,0.5361364781857446,79.52214972071334,0.0
1435,-0.34216929630139953,0.6007818424991459,79.6789293920679,0.0
1436,-0.3049652803731361,0.636603028448713,79.83820676616027,0.0
1437,-0.3056065291711738,0.6392772204380069,80.0,1.0
1438,-0.3435398633542908,0.6079630631332864,80.2020899324829,0.0
1439,-0.41419016694574007,0.5453034024942474,80.4806842278615,0.0
1440,-0.5100589296309174,0.4569682194537451,80.83370388859919,0.0
1441,-0.6220133080273061,0.35083846577653055,81.25938246126069,0.0
1442,-0.7404890031387917,0.23597391726654132,81.75622351894845,0.0
1443,-0.8564619924993737,0.12152114663809921,82.32296193194448,0.0
1444,-0.9621670524408257,0.015705318877744803,82.95852796579028,0.0
1445,-1.0516064521104675,-0.0749801990337669,83.66201336629699,0.0
1446,-1.1208948464944115,-0.1463106943341528,84.43263868353387,0.0
1447,-1.1684520565724152,-0.19655759682341073,85.26972115778193,0.0
1448,-1.195018191471307,-0.22640806154604717,86.17264254472248,0.0
1449,-1.2034506990144445,-0.23861087883295212,87.1408162989598,0.0
1450,-1.1982802528660725,-0.23741028542389864,88.17365356808082,0.0
1451,-1.1850468298618402,-0.22785008666546913,89.27052747731838,0.0
1452,-1.169493060619523,-0.2150430250186733,90.43073521095684,0.0
1453,-1.1567385498551443,-0.20350228484930002,91.65345742447298,0.0
1454,-1.1505784902427394,-0.1966216219107374,92.93771455490302,0.0
1455,-1.1530333263932269,-0.19636765141356197,94.28231964033532,0.0
1456,-1.1642262051169376,-0.20321450658548385,95.68582731753493,0.0
1457,-1.182595295196896,-0.21631206261730362,97.14647874487927,0.0
1458,-1.2053785808243374,-0.2338406870750629,98.6621423019986,0.0
1459,-1.2292578147546118,-0.25347502438594194,100.23025005429967,0.0
1460,-1.251026561161723,-0.27286264097587754,101.84773014683529,0.0
1461,-1.2681550562567583,-0.29002408657655543,103.51093551481868,0.0
1462,-1.2791544333196891,-0.30359949408561804,105.21556957418036,0.0
1463,-1.283684453065371,-0.3129002578850812,106.95660989061373,0.0
1464,-1.2823941543206765,-0.31776663269133965,108.72823122328604,0.0
1465,-1.2765295770068865,-0.3182753029144749,110.52372980033132,0.0
1466,-1.2673847621612226,-0.31437643453326763,112.3354512031792,0.0
1467,-1.2557082998369653,-0.3055596620791349,114.15472480493173,0.0
1468,-1.241201479030655,-0.29064755290266087,115.97180830502944,0.0
1469,-1.222247061577051,-0.2677917987035462,117.77584649839669,0.0
1470,-1.195981667647418,-0.2347048153626765,119.5548489698209,0.0
1471,-1.1587652450321018,-0.18910533157743475,121.29569185775412,0.0
1472,-1.10701126741805,-0.12930223525285514,122.98414911697505,0.0
1473,-1.0382358475435849,-0.05479916065243699,124.60495874621445,0.0
1474,-0.9520901839474395,0.0332157658971019,126.1419291476285,0.0
1475,-0.8510936838645027,0.13161840149370463,127.57809006321189,0.0
1476,-0.7408152873657798,0.23541665401424205,128.89589131356462,0.0
1477,-0.6293681863389906,0.3381558864111582,130.0774507967922,0.0
1478,-0.5262659408238786,0.4326086171252256,131.10485088078627,0.0
1479,-0.4408812638995242,0.5116347122407873,131.9604794889247,0.0
1480,-0.3808825747747925,0.5690626898810747,132.62740895607385,0.0
1481,-0.35104163877078387,0.6004410259185932,133.08980231495542,0.0
1482,-0.3526931708122511,0.603539915547742,133.33333333333334,1.0
1483,-0.38392156046789044,0.5785392205327939,133.4619328100181,0.0
1484,-0.44032816430176475,0.5279017747807155,133.58813930870357,0.0
1485,-0.5160792685568438,0.45598632279729734,133.71192328788527,0.0
1486,-0.6049033419000434,0.3684887816190426,133.83325532777386,0.0
1487,-0.7007961575368291,0.27180951294588324,133.95210613952796,0.0
1488,-0.7983537374411984,0.1724313528140808,134.06844657456637,0.0
1489,-0.892813471375563,0.07636769781621365,134.18224763395415,0.0
1490,-0.9799813670465991,-0.0112867570351734,134.29348047786016,0.0
1491,-1.0562290662460236,-0.08668920247856055,134.40211643508002,0.0
1492,-1.118667203472994,-0.1474605626997205,134.50812701262154,0.0
1493,-1.1654815485208634,-0.19277027587404139,134.61148390534743,0.0
1494,-1.1963085965778637,-0.2232855249806487,134.71215900567077,0.0
1495,-1.2124739539069191,-0.24097850882465013,134.81012441329852,0.0
1496,-1.216940458618211,-0.2487967679066139,134.90535244501845,0.0
1497,-1.2139013499287574,-0.25022220222082214,134.99781564452388,0.0
1498,-1.2080702692685719,-0.24876923841433712,135.087486792272,0.0
1499,-1.2038207925816924,-0.24749351506935963,135.17433891536967,0.0
1500,-1.204380254601239,-0.24859115931876033,135.25834529748207,0.0
1501,-1.2112726280869148,-0.2531597507451382,135.33947948875843,0.0
1502,-1.2241406891483098,-0.2611648434189874,135.41771531576924,0.0
1503,-1.2409809563042553,-0.2716153057382459,135.49302689144974,0.0
1504,-1.258724240542859,-0.28290588775865094,135.56538862504345,0.0
1505,-1.2740157653884907,-0.2932473733406869,135.63477523204003,0.0
1506,-1.2840084994176022,-0.30108341900981156,135.70116174410214,0.0
1507,-1.2869868355810221,-0.305395029150381,135.76452351897436,0.0
1508,-1.2826799385235608,-0.3058194535104878,135.82483625036878,0.0
1509,-1.2721934029668458,-0.3025551642546598,135.88207597782107,0.0
1510,-1.2575706927695371,-0.2960786359678087,135.93621909651057,0.0
1511,-1.2410788803342208,-0.28674928936463734,135.98724236703805,0.0
1512,-1.2243832123330192,-0.2744135790816454,136.03512292515546,0.0
1513,-1.2078176044692897,-0.2581282214812327,136.07983829144024,0.0
1514,-1.1899591406675294,-0.23610187940215002,136.12136638090905,0.0
1515,-1.1676650115187752,-0.2059070782436121,136.15968551256296,0.0
1516,-1.1366322674897595,-0.16494938340095486,136.19477441885914,0.0
1517,-1.0924108354164765,-0.11111363777136435,136.22661225510114,0.0
1518,-1.0316677016828648,-0.04345386459174278,136.25517860874223,0.0
1519,-0.9534012967976571,0.03723144056028507,136.2804535085945,0.0
1520,-0.8597748822498059,0.12808534046466682,136.30241743393768,0.0
1521,-0.756298822708098,0.22423913299209486,136.3210513235208,0.0
1522,-0.6512421082458449,0.3192455990086017,136.33633658445007,0.0
1523,-0.5543587570832943,0.4058422390242738,136.3482551009563,0.0
1524,-0.4752121989666932,0.47691602046085224,136.35678924303622,0.0
1525,-0.42150115080457834,0.5264971286309469,136.36192187495945,0.0
1526,-0.39778781843349414,0.5506031179797592,136.36363636363637,1.0
1527,-0.40490309584369616,0.5477869216322309,136.36363636363637,0.0
1528,-0.4401009562550262,0.5193030755225783,136.36363636363637,0.0
1529,-0.4978301648799601,0.4688804817982518,136.36363636363637,0.0
1530,-0.5708558495268469,0.4021596661629298,136.36363636363637,0.0
1531,-0.6514327328985438,0.32590356899677325,136.36363636363637,0.0
1532,-0.732296916575274,0.2471157629205813,136.36363636363637,0.0
1533,-0.8073599297372147,0.17219833672416818,136.36363636363637,0.0
1534,-0.8721029834230528,0.10625920244674994,136.36363636363637,0.0
1535,-0.9237406559162624,0.05264395112963807,136.36363636363637,0.0
1536,-0.9612376820467051,0.012729148884202908,136.36363636363637,0.0
1537,-0.9852317966704581,-0.014021683089624315,136.36363636363637,0.0
1538,-0.9978674181827345,-0.029768110868108127,136.36363636363637,0.0
1539,-1.002510073487397,-0.037821094753583744,136.36363636363637,0.0
1540,-1.003310676199698,-0.042059157843140293,136.36363636363637,0.0
1541,-1.0046244520049097,-0.046312989523862286,136.36363636363637,0.0
1542,-1.0103454103763219,-0.05380238726991893,136.36363636363637,0.0
1543,-1.0232681251054854,-0.06670314518642631,136.36363636363637,0.0
1544,-1.0446111654791304,-0.08590402954506254,136.36363636363637,0.0
1545,-1.0738192324465146,-0.1109855906781444,136.36363636363637,0.0
1546,-1.1087063447332157,-0.14041624641801076,136.36363636363637,0.0
1547,-1.145924547389278,-0.1719226371144576,136.36363636363637,0.0
1548,-1.1816628938778868,-0.20295831893667818,136.36363636363637,0.0
1549,-1.2124221015759489,-0.23117508608198628,136.36363636363637,0.0
1550,-1.2356880553846188,-0.25480020163210626,136.36363636363637,0.0
1551,-1.2503487888338198,-0.2728423819553096,136.36363636363637,0.0
1552,-1.2567594192016673,-0.28508665291579915,136.36363636363637,0.0
1553,-1.256442434324893,-0.29188591397212216,136.36363636363637,0.0
1554,-1.251496123943339,-0.2938049738973688,136.36363636363637,0.0
1555,-1.2438522255423978,-0.29120999892785315,136.36363636363637,0.0
1556,-1.234561669991547,-0.28391359400596666,136.36363636363637,0.0
1557,-1.223289061974897,-0.27097802976616836,136.36363636363637,0.0
1558,-1.2081619223916107,-0.25074681761772255,136.36363636363637,0.0
1559,-1.1860521252973477,-0.22112402544094165,136.36363636363637,0.0
1560,-1.1532709559382879,-0.1800621703604023,136.36363636363637,0.0
1561,-1.1065517103099318,-0.12616639104005165,136.36363636363637,0.0
1562,-1.0441020661779603,-0.05928748703224378,136.36363636363637,0.0
1563,-0.9664643657567025,0.019031728862350883,136.36363636363637,0.0
1564,-0.8769476984791298,0.10537054206372987,136.36363636363637,0.0
1565,-0.7814914481887281,0.19457101100181556,136.36363636363637,0.0
1566,-0.6879606199944661,0.28020788481870523,136.36363636363637,0.0
1567,-0.6050159992425992,0.3553251160800008,136.36363636363637,0.0
1568,-0.54080219374236,0.4133231646044553,136.36363636363637,0.0
1569,-0.5017247092198238,0.4488512122426344,136.36363636363637,0.0
1570,-0.49154183544519126,0.4585567296085621,136.36363636363637,1.0
1571,-0.5109032577336649,0.4415704797005007,136.35788022953975,0.0
1572,-0.5573622505660125,0.39965142350576155,136.34074925813434,0.0
1573,-0.6258033718279958,0.33697310735903574,136.31245371175552,0.0
1574,-0.7091771825265825,0.25959008928843424,136.27320906556287,0.0
1575,-0.7994157202393039,0.17467030173735634,136.22323566385325,0.0
1576,-0.8884062344448578,0.08961027914809341,136.16275837745218,0.0
1577,-0.9689135759357737,0.011161615654395052,136.09200626299693,0.0
1578,-1.0353549260620432,-0.05531119261679665,136.01121222488973,0.0
1579,-1.084342391070872,-0.10634659348887418,135.92061268066428,0.0
1580,-1.114924893237406,-0.1406181808871212,135.82044723046928,0.0
1581,-1.1284901783593289,-0.15886987790718005,135.7109583313355,0.0
1582,-1.1283363948823626,-0.16358436825766975,135.5923909768508,0.0
1583,-1.1189850007117168,-0.15845183821520345,135.4649923828288,0.0
1584,-1.1053641346788803,-0.14773060660607096,135.3290116795132,0.0
1585,-1.0920203470362808,-0.13560010411331141,135.1846996108205,0.0
1586,-1.0825017738195395,-0.12559935024163066,135.0323082410802,0.0
1587,-1.0790016329414294,-0.12022292741276325,134.87209066969103,0.0
1588,-1.0822791869000534,-0.12071617823344466,134.70430075407094,0.0
1589,-1.091813170801325,-0.1270778497857737,134.5291928412362,0.0
1590,-1.1061083653235548,-0.13824736918015934,134.3470215083078,0.0
1591,-1.1230724166437458,-0.15242968659424294,134.1580413122008,0.0
1592,-1.1403976279058938,-0.16749554525895624,133.96250654871795,0.0
1593,-1.1559067713259419,-0.18138963487123222,133.76067102122852,0.0
1594,-1.1678406952369595,-0.19248253830743733,133.5527878190801,0.0
1595,-1.1750729797733406,-0.1998132639784797,133.339109105855,0.0
1596,-1.1772351591454604,-0.2031859611600558,133.11988591755173,0.0
1597,-1.1747323566797456,-0.2031057131785908,132.89536797073842,0.0
1598,-1.1686314171516798,-0.20056252588792928,132.66580348069704,0.0
1599,-1.16041586424887,-0.196697669050522,132.43143898954796,0.0
1600,-1.15162332177643,-0.19240941968949954,132.19251920431844,0.0
1601,-1.1434075283338778,-0.18797218956311634,131.94928684489236,0.0
1602,-1.1360944698840232,-0.18274983323239125,131.701982501757,0.0
1603,-1.1288256449481877,-0.17507706840555648,131.4508445034393,0.0
1604,-1.1193935310644267,-0.16236065454392595,131.19610879350537,0.0
1605,-1.1043645539092386,-0.14141549395629635,130.93800881697766,0.0
1606,-1.0795444099136677,-0.10900499121509556,130.67677541600818,0.0
1607,-1.0407686004828312,-0.06250808462293116,130.41263673463078,0.0
1608,-0.9849088115301693,-0.00059769342929826,130.1458181324018,0.0
1609,-0.9108964731269499,0.07620295136188532,129.87654210672693,0.0
1610,-0.8205089303072621,0.1652113715919345,129.60502822366072,0.0
1611,-0.718670486210308,0.2616131946996849,129.33149305695682,0.0
1612,-0.6131062757369475,0.3588554514731652,129.05615013513912,0.0
1613,-0.51334193764056,0.4493650715218235,128.77920989635695,0.0
1614,-0.42922572895039385,0.5254858361648392,128.5008796507831,0.0
1615,-0.3692996179029467,0.5804809607585047,128.22136355030923,0.0
1616,-0.33940221935126064,0.609433387541081,127.94086256528986,0.0
1617,-0.34182137591023654,0.6098952283665611,127.65957446808511,1.0
1618,-0.3751492512327045,0.5821864178198026,127.34512826159023,0.0
1619,-0.4347919132125231,0.5293083326240722,126.96693337907003,0.0
1620,-0.5139249962888945,0.45650542471901034,126.52796101104772,0.0
1621,-0.6046193930983969,0.37056250121332124,126.0313018006534,0.0
1622,-0.698892003900235,0.27895771719606166,125.4801402989711,0.0
1623,-0.789530760217077,0.18899878648648072,124.87773019786307,0.0
1624,-0.8706486153781183,0.10705563929212757,124.22737060291593,0.0
1625,-0.9379972237248957,0.03797396840327491,123.53238356821751,0.0
1626,-0.9891015632756354,-0.015280910667432146,122.79609307307065,0.0
1627,-1.023268132527345,-0.05173476344267858,122.02180557966838,0.0
1628,-1.0414901029100965,-0.07228385977654572,121.21279227121349,0.0
1629,-1.0462438051392222,-0.07937985791464064,120.37227303280005,0.0
1630,-1.0411587201577863,-0.07657285755516924,119.50340220323527,0.0
1631,-1.0305556585232258,-0.06797528074614938,118.60925609533436,0.0
1632,-1.0188819266811435,-0.057713388867330045,117.6928222553629,0.0
1633,-1.0101144469832966,-0.04943116750305808,116.7569904093693,0.0
1634,-1.0072327295246721,-0.04590237358184361,115.80454502514773,0.0
1635,-1.0118661926020964,-0.04879071067482621,114.83815940339028,0.0
1636,-1.0241879801087883,-0.058576692805493116,113.86039120002044,0.0
1637,-1.043068481174286,-0.07464567624406926,112.8736792734873,0.0
1638,-1.0664369253056862,-0.09550883082992867,111.88034174561415,0.0
1639,-1.091752406156993,-0.11911167816354065,110.8825751620968,0.0
1640,-1.1164720045363428,-0.14317638521379394,109.88245463857493,0.0
1641,-1.138424193018057,-0.16552544102668498,108.88193487999304,0.0
1642,-1.156038038562443,-0.18434455855911167,107.88285196438224,0.0
1643,-1.1684246419596367,-0.19835865214133847,106.88692578690001,0.0
1644,-1.175341134964231,-0.2069126049129839,105.895763065662,0.0
1645,-1.1770820420590071,-0.2099644593813427,104.91086081731373,0.0
1646,-1.1743400218398738,-0.2080098865312983,103.93361021718222,0.0
1647,-1.1680662286189318,-0.201962098259501,102.9653007660071,0.0
1648,-1.159348220905324,-0.19301108846048298,102.00712469250267,0.0
1649,-1.1493141505082096,-0.18248171019180304,101.06018152819878,0.0
1650,-1.1390645827200336,-0.1717037012658883,100.12548279803201,0.0
1651,-1.1296256847360668,-0.16190043096769516,99.20395677691381,0.0
1652,-1.1219109298695804,-0.15409842644827812,98.2964532689234,0.0
1653,-1.1166769354100146,-0.14905740857516928,97.40374837180619,0.0
1654,-1.1144651817516957,-0.14722049482971583,96.52654919507303,0.0
1655,-1.115533219215396,-0.14868555086363658,95.66549850517336,0.0
1656,-1.1197911508530884,-0.15320015089788414,94.82117927595019,0.0
1657,-1.1267661575894528,-0.16018306281468714,93.99411912688085,0.0
1658,-1.135616219863317,-0.16877389891602057,93.18479463547739,0.0
1659,-1.1452034100724438,-0.177909565678805,92.39363551367985,0.0
1660,-1.154220098147659,-0.18642209759930445,91.62102864115015,0.0
1661,-1.1613449114612846,-0.19314850931102706,90.8673219510853,0.0
1662,-1.1653975023714551,-0.19704063941736283,90.13282816654713,0.0
1663,-1.1654661675659024,-0.19726244925266606,89.41782838737731,0.0
1664,-1.1609960571797304,-0.19326415752767648,88.72257552956145,0.0
1665,-1.1518382821911384,-0.18482658079237163,88.04729762045139,0.0
1666,-1.1382639276573492,-0.17207423784403117,87.39220095458182,0.0
1667,-1.1209424781135124,-0.15546098151240925,86.75747311594675,0.0
1668,-1.1008794816791885,-0.13573587128813236,86.14328587356528,0.0
1669,-1.0793115261061608,-0.11389855374458842,85.54979795798508,0.0
1670,-1.0575692336751596,-0.09115182001166047,84.97715772706893,0.0
1671,-1.0369348160646332,-0.06885419776724194,84.42550573000884,0.0
1672,-1.0185300344535673,-0.048468328038669795,83.8949771790302,0.0
1673,-1.003265154241524,-0.03149349602974688,83.38570433870805,0.0
1674,-0.9918571646931605,-0.01936592545350388,82.89781884323344,0.0
1675,-0.984891435657733,-0.013311394154522996,82.43145395235923,0.0
1676,-0.9828684146656722,-0.014143599773660101,81.98674675713711,0.0
1677,-0.986163452283533,-0.022018679087813242,81.56384034694601,0.0
1678,-0.9948466968975898,-0.03617868936046212,81.1628859497237,0.0
1679,-1.008361443549635,-0.05473912559769227,80.78404505776068,0.0
1680,-1.0251279320539057,-0.0745902116114979,80.42749155191639,0.0
1681,-1.0422008864553187,-0.09148137294028635,80.09341383768626,0.0
1682,-1.055140310936022,-0.10033812299743615,79.78201700720234,0.0
1683,-1.0582420688725849,-0.0958204991998558,79.4935250420044,0.0
1684,-1.045212604017829,-0.0730781012998625,79.22818307229652,0.0
1685,-1.0102645261807917,-0.02860021314820014,78.98625970942255,0.0
1686,-0.9494728964861744,0.03898476618775962,78.76804946947742,0.0
1687,-0.862100029823142,0.12832398798161815,78.57387530734651,0.0
1688,-0.7515192440280869,0.23511392080669274,78.40409128206275,0.0
1689,-0.6253944000141815,0.3523229678462041,78.25908537622065,0.0
1690,-0.494924630848327,0.4708699392928281,78.13928249433431,0.0
1691,-0.3732154077197349,0.5806732780628852,78.04514766751151,0.0
1692,-0.2731096547726754,0.6719068934785456,77.97718949469703,0.0
1693,-0.20500250622012892,0.7362528337844574,77.93596385407383,0.0
1694,-0.17518797019330173,0.7679408597266968,77.92207792207792,1.0
1695,-0.1851256520946937,0.7644100681608577,77.95701626288403,0.0
1696,-0.2317276182120653,0.726505584974537,78.06008587677681,0.0
1697,-0.30845931235050666,0.6582132486880445,78.22891511120868,0.0
1698,-0.40683937264130376,0.5660147445426497,78.46142713868117,0.0
1699,-0.5178828481806678,0.4579976527264607,78.75580172112845,0.0
1700,-0.633159571490054,0.3428720237802343,79.11044097469285,0.0
1701,-0.7453630721851603,0.22903077888607054,79.52393832837436,0.0
1702,-0.8484983988546397,0.12375665703800386,79.99504998798193,0.0
1703,-0.9379082381775491,0.032637446414288104,80.52266831051877,0.0
1704,-1.010333007064034,-0.040784855841841494,81.10579656875558,0.0
1705,-1.0640784860379753,-0.09513098417044563,81.74352464537843,0.0
1706,-1.0992229782448921,-0.13108326752178293,82.43500524405067,0.0
1707,-1.1177108633029995,-0.15109252969814657,83.17943024375114,0.0
1708,-1.1231869571598447,-0.15892879110841776,83.97600685518424,0.0
1709,-1.1205127096104104,-0.15912303155790872,84.8239332659847,0.0
1710,-1.1150234470142506,-0.15635957033071324,85.72237348677595,0.0
1711,-1.1116816829867793,-0.15488787643469265,86.67043113472928,0.0
1712,-1.1143185635509858,-0.1580242342867086,87.66712191695434,0.0
1713,-1.1251262071944466,-0.16780454647588267,88.71134460471715,0.0
1714,-1.144486800666276,-0.1848295252578881,89.80185032312531,0.0
1715,-1.171132739494766,-0.20831566569857335,90.93721002165172,0.0
1716,-1.2025577263108616,-0.23633495684598527,92.11578004094156,0.0
1717,-1.2355605775863459,-0.2661990613798614,93.33566575313557,0.0
1718,-1.266803582434006,-0.2949243877350434,94.59468332890889,0.0
1719,-1.29329464417868,-0.319705701371329,95.89031977703375,0.0
1720,-1.3127413832835786,-0.3383279917684798,97.2196915138842,0.0
1721,-1.3237622087875045,-0.34945776902197767,98.57950185297244,0.0
1722,-1.3259649172267134,-0.35277343061289707,99.9659979598776,0.0
1723,-1.3199129785387727,-0.34891730369182766,101.37492799647748,0.0
1724,-1.306993919912369,-0.3392771814439678,102.801499379676,0.0
1725,-1.2891906463900606,-0.3256305535696718,104.2403393015705,0.0
1726,-1.2687485804017378,-0.3097079401834507,105.68545889573252,0.0
1727,-1.2477424658083849,-0.2927497485261315,107.13022268068836,0.0
1728,-1.2275810996162222,-0.2751401393259917,108.56732515613511,0.0
1729,-1.2085364955043365,-0.2561976842318821,109.98877665544332,0.0
1730,-1.1894245166675115,-0.23418346565897122,111.38590075098942,0.0
1731,-1.1675727630235235,-0.20655277518906806,112.74934564413104,0.0
1732,-1.1391730309749326,-0.17043066067318724,114.06911202283146,0.0
1733,-1.10003034264113,-0.12324229409905957,115.33459980808446,0.0
1734,-1.0466055403857655,-0.06338740266101262,116.53467600558858,0.0
1735,-0.9771346967373693,0.0091749057030803,117.65776550353,0.0
1736,-0.8925352135016826,0.09256033563094734,118.69196608800969,0.0
1737,-0.7968126583446516,0.18290819365072308,119.62518817105446,0.0
1738,-0.696783121864164,0.2746820991636142,120.44531874258728,0.0
1739,-0.6011073111827026,0.36128948708880815,121.14040788574299,0.0
1740,-0.5188394940788169,0.43592051061015213,121.69887487494252,0.0
1741,-0.4578494142907924,0.4924609930016197,122.10972947249499,0.0
1742,-0.423513764101546,0.526319546394977,122.36280263989723,0.0
1743,-0.4179779165251823,0.5350287337540456,122.44897959183673,1.0
1744,-0.4400994098766541,0.5185281073872362,122.43244694089688,0.0
1745,-0.48598207611974076,0.4791002160908101,122.38367177032248,0.0
1746,-0.5498713617552483,0.4209936734211189,122.30392356004776,0.0
1747,-0.6251456613101238,0.34981649004644977,122.19451371571073,0.0
1748,-0.7051934274714342,0.2718098355721916,122.05678923051225,0.0
1749,-0.7840662366312381,0.19311562633377116,121.89212650454117,0.0
1750,-0.856894134754232,0.11913500414904293,121.70192536249108,0.0
1751,-0.9201089821149667,0.05404637850011739,121.48760330578513,0.0
1752,-0.9715360668001494,0.0005192812040627354,121.25059003014188,0.0
1753,-1.010395721372478,-0.040369800480135026,120.99232223465411,0.0
1754,-1.037226558015026,-0.06903750037529421,120.71423874358648,0.0
1755,-1.0537205745302303,-0.08714432604302395,120.41777595740322,0.0
1756,-1.062458793917049,-0.09724106308093904,120.10436364506788,0.0
1757,-1.0665533701320438,-0.10236043669265917,119.77542108546474,0.0
1758,-1.0692286180221953,-0.10560359101752534,119.43235356191317,0.0
1759,-1.0733969634436242,-0.10976669233060177,119.07654921020658,0.0
1760,-1.081296530312017,-0.11704474549002236,118.70937621743195,0.0
1761,-1.0942501405364824,-0.12883800656361127,118.33218036601471,0.0
1762,-1.1125818138060168,-0.14567225175846016,117.94628291499573,0.0
1763,-1.1356926688825824,-0.1672293809662178,117.55297880847661,0.0
1764,-1.1622633035966148,-0.1924715594232979,117.15353519945086,0.0
1765,-1.1905248706768299,-0.2198323738259209,116.74919027586463,0.0
1766,-1.2185342922853755,-0.24744363900015873,116.34115237469568,0.0
1767,-1.244402919079893,-0.273366797724269,115.93059936908517,0.0
1768,-1.2664570294945883,-0.29580247108657465,115.51867831308104,0.0
1769,-1.2833397476687582,-0.3132590524148896,115.10650532832516,0.0
1770,-1.2940815988530634,-0.3246695205149953,114.69516571702002,0.0
1771,-1.2981620021510047,-0.32945344052228864,114.2857142857143,0.0
1772,-1.2955610431359033,-0.3275275784252264,113.87917586482901,0.0
1773,-1.2867762864220733,-0.31927333593674234,113.476546009384,0.0
1774,-1.2727713057561856,-0.3054721611362646,113.0787918670531,0.0
1775,-1.2548392658759233,-0.2872209596848837,112.68685320045994,0.0
1776,-1.2343995500494227,-0.26583797887029637,112.30164355150366,0.0
1777,-1.2127802346341094,-0.242765569784658,111.92405153645741,0.0
1778,-1.1910545214623731,-0.2194703276257099,111.55494226160212,0.0
1779,-1.169983181386644,-0.19733515347959027,111.19515885022692,0.0
1780,-1.1500697918153178,-0.1775344920076707,110.84552407293677,0.0
1781,-1.1316783231702243,-0.16088619063998888,110.50684207435249,0.0
1782,-1.1151204163620287,-0.1476827005488928,110.179900190455,0.0
1783,-1.1006175602259625,-0.13751983195439227,109.86547085201794,0.0
1784,-1.0880908827811195,-0.1291590663224863,109.56431357078286,0.0
1785,-1.0768147747182373,-0.12047311274710759,109.27717700626064,0.0
1786,-1.0650574015593735,-0.10852688439834221,109.00480111229388,0.0
1787,-1.0498838777416626,-0.08983215179814248,108.74791936378766,0.0
1788,-1.0272899230049497,-0.060782942412300756,108.50726106532146,0.0
