,PPG_Raw,PPG_Clean,PPG_Rate,PPG_Peaks
0,0.11370384281479895,0.13748141394822316,74.67511477635598,0.0
1,0.10850654334242457,0.1299481188796504,74.67511477635598,0.0
2,0.10066316256638438,0.12113327616047653,74.67511477635598,0.0
3,0.08836962459711695,0.10894683913806258,74.67511477635598,0.0
4,0.07063312878204929,0.09018451927437653,74.67511477635598,0.0
5,0.04629436600831919,0.060817724851018155,74.67511477635598,0.0
6,0.013275648313158306,0.017170377279702026,74.67511477635598,0.0
7,-0.031024722676106786,-0.04210585219423696,74.67511477635598,0.0
8,-0.08791571954527994,-0.11377792146433408,74.67511477635598,0.0
9,-0.15448871388328814,-0.1884308552470541,74.67511477635598,0.0
10,-0.22063069870285246,-0.2505932582699473,74.67511477635598,0.0
11,-0.26779816155090963,-0.281317556872258,74.67511477635598,0.0
12,-0.2715933003305612,-0.26308281519808213,74.67511477635598,0.0
13,-0.20934925056983006,-0.18576759923880554,74.67511477635598,0.0
14,-0.07160146758404384,-0.051570655547778385,74.67511477635598,0.0
15,0.12760941521135732,0.12331157742632246,74.67511477635598,0.0
16,0.3497608052897789,0.3114516301915218,74.67511477635598,0.0
17,0.5448296700811772,0.48085201743899547,74.67511477635598,0.0
18,0.6719130778256466,0.6032517712522187,74.67511477635598,0.0
19,0.7140451377381012,0.6610864587534064,74.67511477635598,0.0
20,0.6793279902197464,0.650746352261425,74.67511477635598,0.0
21,0.5912066737586243,0.5814429596573957,74.67511477635598,0.0
22,0.4758038359399524,0.4707867031547244,74.67511477635598,0.0
23,0.35298535341799914,0.33921718299300807,74.67511477635598,0.0
24,0.2339837553328197,0.20534828487163131,74.67511477635598,0.0
25,0.1243235135890913,0.08336107671041512,74.67511477635598,0.0
26,0.028236493148506986,-0.01756727886375925,74.67511477635598,0.0
27,-0.04902267297927285,-0.09258086205594576,74.67511477635598,0.0
28,-0.10205172610912083,-0.14013887172449777,74.67511477635598,0.0
29,-0.1278477754222829,-0.16127606504890465,74.67511477635598,0.0
30,-0.12767764842603485,-0.15923004388712675,74.67511477635598,0.0
31,-0.10698585375707265,-0.13919905097966812,74.67511477635598,0.0
32,-0.07378389999063348,-0.10792902473502147,74.67511477635598,0.0
33,-0.03682498521994723,-0.0729730688529225,74.67511477635598,0.0
34,-0.004263356799159512,-0.041677761416514386,74.67511477635598,0.0
35,0.01741638868650991,-0.020108477492184543,74.67511477635598,0.0
36,0.024346999268951466,-0.012176267159387272,74.67511477635598,0.0
37,0.015696323148664343,-0.019176723141701033,74.67511477635598,0.0
38,-0.006730244335134805,-0.039835162523008574,74.67511477635598,0.0
39,-0.039365866705404456,-0.07082186756159894,74.67511477635598,0.0
40,-0.07773222608697714,-0.10759765151986739,74.67511477635598,0.0
41,-0.11710705114549641,-0.1453936550629318,74.67511477635598,0.0
42,-0.15313992585463054,-0.1801185193904598,74.67511477635598,0.0
43,-0.1825829197143092,-0.20901156648628025,74.67511477635598,0.0
44,-0.20406021410053388,-0.23091849123844654,74.67511477635598,0.0
45,-0.21836165148721987,-0.2461563057979572,74.67511477635598,0.0
46,-0.2277592546153751,-0.2560453339718032,74.67511477635598,0.0
47,-0.23465124982768612,-0.26228448019923023,74.67511477635598,0.0
48,-0.24052111866344572,-0.2663885533205018,74.67511477635598,0.0
49,-0.24584793181200207,-0.2693695325728882,74.67511477635598,0.0
50,-0.25070770349435334,-0.27174311618439034,74.67511477635598,0.0
51,-0.25540164657827935,-0.2738222614860202,74.67511477635598,0.0
52,-0.26071130703053946,-0.2761629130388378,74.67511477635598,0.0
53,-0.2677858618349562,-0.2799714222421196,74.67511477635598,0.0
54,-0.27788169907563076,-0.28726629683485705,74.67511477635598,0.0
55,-0.2921874681900174,-0.3006094010075505,74.67511477635598,0.0
56,-0.3117845892040929,-0.3223011155368686,74.67511477635598,0.0
57,-0.3374849284386324,-0.35309356770615685,74.67511477635598,0.0
58,-0.36911169031685814,-0.3907106226235101,74.67511477635598,0.0
59,-0.4039711037565356,-0.42870578809885285,74.67511477635598,0.0
60,-0.43485516154570697,-0.4563106578096331,74.67511477635598,0.0
61,-0.44887280554720416,-0.4597897329096731,74.67511477635598,0.0
62,-0.4290208984141041,-0.42536940740750273,74.67511477635598,0.0
63,-0.3593399001189218,-0.34315916289921566,74.67511477635598,0.0
64,-0.23190370582631986,-0.21089972696192405,74.67511477635598,0.0
65,-0.05212917321951975,-0.036167497470749904,74.67511477635598,0.0
66,0.16041374792852314,0.1639834227137868,74.67511477635598,0.0
67,0.3763173344233368,0.36612821551399766,74.67511477635598,0.0
68,0.5643138231801703,0.5455253472942265,74.67511477635598,0.0
69,0.6999906995090801,0.6815908197411479,74.67511477635598,0.0
70,0.7717845839088302,0.7621182682623657,74.67511477635598,0.0
71,0.781934550874802,0.785054159973546,74.67511477635598,1.0
72,0.742757386028841,0.7575273657283363,74.8173515902967,0.0
73,0.670936911326689,0.6927456030995867,74.95927076226967,0.0
74,0.5826191168897468,0.6059584304629914,75.10079938049459,0.0
75,0.490417359878476,0.5107839282443165,75.24186350822086,0.0
76,0.40208321251912266,0.416858805754442,75.38238818731948,0.0
77,0.32050227423232475,0.3291962312427442,75.52229744344028,0.0
78,0.2448958040304308,0.249048808530707,75.66151429278482,0.0
79,0.17293504626590503,0.17565244180687764,75.79996075054592,0.0
80,0.10309270842877288,0.10806596956577028,75.93755784106409,0.0
81,0.03629518089779646,0.04643317850985993,76.07422560975071,0.0
82,-0.023905836277512207,-0.007687481289139417,76.20988313682707,0.0
83,-0.07275592942587451,-0.05188057516086299,76.34444855292776,0.0
84,-0.10654379136393684,-0.0839428660516,76.47783905661565,0.0
85,-0.1243576622743882,-0.10294333890374308,76.60997093385456,0.0
86,-0.12840715188718885,-0.1098304889303023,76.74075957948439,0.0
87,-0.12305609239080803,-0.10738212808574975,76.87011952074182,0.0
88,-0.1134213599042816,-0.09957312504935738,76.99796444286768,0.0
89,-0.10418676441955575,-0.09064073285147263,77.12420721684026,0.0
90,-0.09883216347659678,-0.0841926714497081,77.24875992927166,0.0
91,-0.09931157328404128,-0.08263430838662836,77.37153391450123,0.0
92,-0.1061185931981549,-0.08703869642712764,77.49243978891805,0.0
93,-0.11856731501956339,-0.09741203857576387,77.61138748754107,0.0
94,-0.13526495472307015,-0.11317403733338936,77.72828630288207,0.0
95,-0.15490607469669254,-0.13361602445090864,77.84304492611399,0.0
96,-0.177080413953576,-0.15813647832897315,77.95557149056206,0.0
97,-0.2023163136331933,-0.18617231208809165,78.06577361753274,0.0
98,-0.23114894677196107,-0.2169000977307278,78.17355846448997,0.0
99,-0.26299709153711537,-0.24890469585112163,78.2788327755845,0.0
100,-0.29567563221703386,-0.28004147618796593,78.38150293453712,0.0
101,-0.325673775516222,-0.30763413282343377,78.48147501987145,0.0
102,-0.34896476440767826,-0.32899175166285227,78.57865486248716,0.0
103,-0.36220599032131007,-0.34207295116461467,78.67294810555879,0.0
104,-0.36412356253691336,-0.3460487640528133,78.76426026673943,0.0
105,-0.3563946288308971,-0.34155971807296326,78.85249680264327,0.0
106,-0.34314295888963786,-0.330605133674877,78.93756317557447,0.0
107,-0.329076707631595,-0.3161634231812197,79.01936492246342,0.0
108,-0.31758617214962503,-0.3017213010428384,79.0978077259655,0.0
109,-0.31015119207187647,-0.29083414163458665,79.17279748767035,0.0
110,-0.3071251125832307,-0.2866903224111525,79.24424040336311,0.0
111,-0.3088647772078043,-0.29152921260381137,79.31204304027206,0.0
112,-0.31611414313321706,-0.30578677956548866,79.37611241623004,0.0
113,-0.3291384187021279,-0.327048733433143,79.43635608067042,0.0
114,-0.34582959325626017,-0.34918686877243366,79.4926821973699,0.0
115,-0.3596485619106216,-0.36225896017476894,79.54499962884496,0.0
116,-0.35872253964191336,-0.3536913494322145,79.59321802230009,0.0
117,-0.3274530163858231,-0.310873544739934,79.6372478970192,0.0
118,-0.25114037406263046,-0.22468785572985392,79.67700073308463,0.0
119,-0.12231150632150438,-0.09293722333238114,79.71238906130067,0.0
120,0.05425558200549763,0.077582050092311,79.74332655419147,0.0
121,0.26070559362100204,0.2713178744978128,79.76972811793657,0.0
122,0.47019870262576047,0.46671963073925904,79.79150998510038,0.0
123,0.6541915553311457,0.6408236727733837,79.80858980800507,0.0
124,0.790035647655756,0.774300319338654,79.8208867525905,0.0
125,0.8661602131598676,0.8554284053192293,79.82832159259848,0.0
126,0.8832002998806535,0.8818599475181206,79.83081680391274,1.0
127,0.8513072610045626,0.859816132445861,79.83015716575773,0.0
128,0.7855621087744752,0.8012000244519795,79.82819262867055,0.0
129,0.7015836115829567,0.7197181306783089,79.82494485152857,0.0
130,0.6121485405863494,0.6272970976431647,79.82043561136354,0.0
131,0.5247520645740666,0.5318486105171394,79.81468679644519,0.0
132,0.4405937224984956,0.4368866460370816,79.80772039945818,0.0
133,0.3560304487825461,0.3428240241530107,79.79955851077496,0.0
134,0.2665133540691591,0.24919210568401548,79.79022331182809,0.0
135,0.17108373911240055,0.1567461423369545,79.77973706858495,0.0
136,0.07467389964275459,0.06855465797215321,79.76812212512723,0.0
137,-0.013201840587749397,-0.010326438779450303,79.75540089733843,0.0
138,-0.08241811275761801,-0.07434722991802487,79.74159586670125,0.0
139,-0.12652463674803371,-0.11938138918959298,79.7267295742078,0.0
140,-0.1452353327942469,-0.14420067931877492,79.7108246143844,0.0
141,-0.14414664237591762,-0.15091617803748067,79.69390362943349,0.0
142,-0.13202422270366584,-0.14430683030560243,79.67598930349399,0.0
143,-0.11718734848164787,-0.13043351615653728,79.65710435702272,0.0
144,-0.10497062904994157,-0.11515945600203037,79.6372715412979,0.0
145,-0.09736444396313929,-0.1030985407570482,79.61651363304654,0.0
146,-0.09438222136052948,-0.09719803626108506,79.59485342919723,0.0
147,-0.09581976574314217,-0.09883179773746019,79.57231374175947,0.0
148,-0.10226914996254194,-0.10810821135864315,79.54891739283092,0.0
149,-0.11489975496283034,-0.12413880010980977,79.52468720973333,0.0
150,-0.13421086725255135,-0.1451933014281483,79.49964602027836,0.0
151,-0.15870851133872613,-0.16884173219660314,79.47381664816422,0.0
152,-0.18470618687367607,-0.19223639460897787,79.4472219085033,0.0
153,-0.20759729536901428,-0.21259449551025555,79.41988460348206,0.0
154,-0.22373264921240207,-0.22778094240275995,79.39182751815343,0.0
155,-0.23169605218231015,-0.2367761178913302,79.3630734163618,0.0
156,-0.23239963985161796,-0.23982173852420166,79.3336450368016,0.0
157,-0.22818984597741518,-0.23816477728971183,79.30356508920902,0.0
158,-0.22160889293305805,-0.23349369179305735,79.27285625068728,0.0
159,-0.21457933368065063,-0.22729595641889988,79.2415411621657,0.0
160,-0.20828458688245155,-0.22040538506882038,79.20964242499193,0.0
161,-0.20322148405004212,-0.21294247722958726,79.17718259765788,0.0
162,-0.19902626346336993,-0.20470432615403877,79.1441841926586,0.0
163,-0.1946169255439738,-0.19587206656999906,79.11066967348408,0.0
164,-0.18927286893337758,-0.18772808485921896,79.07666145174366,0.0
165,-0.18411919491361997,-0.18298401434838552,79.04218188442226,0.0
166,-0.1826515003694596,-0.18538158761678736,79.00725327126854,0.0
167,-0.18951894179860806,-0.19846136189280167,78.97189785231367,0.0
168,-0.20814289997173724,-0.22373953283195172,78.93613780552086,0.0
169,-0.2384507030276253,-0.25886531141910524,78.89999524456432,0.0
170,-0.27548013371032554,-0.2965110112900474,78.8634922167374,0.0
171,-0.308893174944471,-0.3246734008759946,78.82665070098878,0.0
172,-0.3236497709532007,-0.32871030607446894,78.78949260608614,0.0
173,-0.3026538093357888,-0.2948657563678031,78.75203976890641,0.0
174,-0.23172623826553462,-0.21441610856056786,78.71431395285138,0.0
175,-0.10568246846174814,-0.08714065046597841,78.67633684638827,0.0
176,0.06716363889588528,0.0771830333323939,78.63813006171372,0.0
177,0.26486177720991566,0.2600372804013627,78.5997151335407,0.0
178,0.4572009718646556,0.43804078818214187,78.56111351800685,0.0
179,0.6148387917933206,0.5883495908978675,78.52234659170357,0.0
180,0.7180002492411336,0.6938999442681122,78.48343565082443,0.0
181,0.7607869789823857,0.7468597615645369,78.44440191043218,0.0
182,0.7500120658051386,0.74932154109668,78.40526650384287,1.0
183,0.7004671539189062,0.7112576167346403,78.36454918623913,0.0
184,0.6294171227251402,0.646660466677883,78.32080663437654,0.0
185,0.552011920877391,0.5692836703135031,78.27411559570125,0.0
186,0.4780744132075967,0.4893601973031875,78.22455316406285,0.0
187,0.41064516859791345,0.4121822859200226,78.17219672482281,0.0
188,0.34691431571348,0.33869170043554886,78.11712390131154,0.0
189,0.2814972532900393,0.26751332976243786,78.05941250267844,0.0
190,0.21070213486488654,0.197411290919569,77.99914047317331,0.0
191,0.13567030565599428,0.12910562735665107,77.93638584289491,0.0
192,0.06273092983815312,0.06575833170661467,77.87122668003757,0.0
193,0.0008469744638491539,0.012054511441884297,77.80374104466317,0.0
194,-0.04232495226571528,-0.027599131326516035,77.73400694402196,0.0
195,-0.06368603269656625,-0.05091035036852065,77.66210228944213,0.0
196,-0.06585152514835224,-0.05878479283417945,77.58810485480426,0.0
197,-0.05596463329058618,-0.055254071803833765,77.51209223661317,0.0
198,-0.04301299306271,-0.04635366161179308,77.43414181567721,0.0
199,-0.03493706353132728,-0.03845632153967403,77.35433072040047,0.0
200,-0.036504748058124745,-0.036704811592370906,77.27273579169166,0.0
201,-0.04857419903560099,-0.044042886660797934,77.18943354948959,0.0
202,-0.06903454009380104,-0.06102239351149752,77.10450016090284,0.0
203,-0.0948570193011983,-0.08623806754107355,77.0180114099583,0.0
204,-0.12383444254383369,-0.11705982925253644,76.93004266895116,0.0
205,-0.15482409315955192,-0.15034942250287658,76.84066887138576,0.0
206,-0.18664213023637383,-0.18300275588038525,76.74996448649576,0.0
207,-0.21698081297032756,-0.2123233336568462,76.65800349532866,0.0
208,-0.24261470869273527,-0.23630133722745056,76.56485936837869,0.0
209,-0.26083592665748856,-0.25383357095565007,76.47060504475003,0.0
210,-0.27092273583149035,-0.2648429047459002,76.37531291283041,0.0
211,-0.2745275422969139,-0.27022901738231214,76.27905479245429,0.0
212,-0.27476540525096904,-0.2716352892316274,76.18190191853236,0.0
213,-0.27464652747057683,-0.27110457971612867,76.08392492612433,0.0
214,-0.27593189391873524,-0.2707435555410903,75.9851938369292,0.0
215,-0.2791808736255359,-0.27248040948233243,75.88577804716762,0.0
216,-0.2847236344952546,-0.27791191470168175,75.78574631682925,0.0
217,-0.2934579684626353,-0.2881653494011403,75.68516676025757,0.0
218,-0.306644091268905,-0.30370704468357096,75.58410683804382,0.0
219,-0.3249639113582916,-0.32411051536858393,75.48263335020151,0.0
220,-0.3477855591146164,-0.34789561173860695,75.38081243059194,0.0
221,-0.37312803101168346,-0.3725958114854221,75.2787095425717,0.0
222,-0.39805596748534894,-0.39516509622159723,75.17638947583197,0.0
223,-0.41918948373351017,-0.41270671548657345,75.07391634440003,0.0
224,-0.43338440755437824,-0.42333801181785213,74.97135358577289,0.0
225,-0.43859937293930473,-0.42686398299752915,74.86876396115345,0.0
226,-0.43465486529296543,-0.4248896017362252,74.76620955675928,0.0
227,-0.42352659930103104,-0.42011446821451387,74.66375178617443,0.0
228,-0.4088587373343626,-0.4148340230460881,74.5614513937154,0.0
229,-0.39433867225520447,-0.40905376804014837,74.45936845878192,0.0
230,-0.38090315350079174,-0.3989590939516485,74.35756240116464,0.0
231,-0.3637831743472051,-0.3765838628168546,74.25609198728131,0.0
232,-0.33141506925136877,-0.3312441159718898,74.15501533731421,0.0
233,-0.26804060857855627,-0.252661081043494,74.05438993322214,0.0
234,-0.16002063643841635,-0.13490919205818763,73.95427262760052,0.0
235,-0.0033706016845460596,0.020244316682825975,73.85471965336446,0.0
236,0.1914588353044463,0.2020540720532492,73.75578663422968,0.0
237,0.4006076176488198,0.392359703763806,73.65752859596788,0.0
238,0.5938228666214759,0.569701381354923,73.55999997841285,0.0
239,0.7445375155579232,0.7146402964721957,73.46325464819554,0.0
240,0.8382592935283727,0.814418673738425,73.36734591218661,0.0
241,0.875304400087408,0.8653590830303648,73.27232653162598,0.0
242,0.8673392406462892,0.8723232798776386,73.17824873692001,1.0
243,0.8307010473724956,0.8456965728166814,73.08307609600253,0.0
244,0.7802024920197829,0.7972356898910629,72.98484329283097,0.0
245,0.7252974364964884,0.7363900288193372,72.88370829307556,0.0
246,0.6686908435380018,0.6683405958847326,72.7798282348362,0.0
247,0.6071938445695023,0.5942101056701523,72.6733593166069,0.0
248,0.5348641212382502,0.513018293331017,72.56445669242672,0.0
249,0.44771168427538544,0.42431946692380146,72.45327437417323,0.0
250,0.3477225771037987,0.3302873713547882,72.33996514093559,0.0
251,0.24367805673844367,0.23634733558804014,72.22468045538899,0.0
252,0.14819480485410536,0.15013567385505758,72.10757038707683,0.0
253,0.07279919079725836,0.079286789898657,71.98878354249402,0.0
254,0.023731929280493974,0.02900062571571546,71.86846700185218,0.0
255,0.0004067698334437597,0.0003614623150165197,71.7467662623971,0.0
256,-0.003329678695295546,-0.009991384493945099,71.62382518813897,0.0
257,0.003457757291132041,-0.008793812210836999,71.49978596584798,0.0
258,0.01138931908684035,-0.00413446930955591,71.37478906716046,0.0
259,0.01282597625574125,-0.003193817394155307,71.24897321663532,0.0
260,0.0034168487512887535,-0.010456203882395293,71.12247536559481,0.0
261,-0.017041830067272196,-0.026884370533408197,70.99543067158125,0.0
262,-0.044874381439319544,-0.05020398544472604,70.86797248325739,0.0
263,-0.07415308542928437,-0.07609600436048872,70.74023233057724,0.0
264,-0.09913194615411255,-0.09983928882532735,70.61233992005273,0.0
265,-0.11622556475928388,-0.11785541691993648,70.48442313494196,0.0
266,-0.12466256230726587,-0.1286969010814667,70.3566080401856,0.0
267,-0.12609671329839073,-0.13324183692683705,70.22901889191941,0.0
268,-0.12389255764121888,-0.13412650678454935,70.1017781513933,0.0
269,-0.12224624219151889,-0.1346771915808998,69.9750065031303,0.0
270,-0.12493789391637156,-0.13773440103696913,69.84882287716219,0.0
271,-0.13391523027455626,-0.14476816287416192,69.72334447518293,0.0
272,-0.14841024686848972,-0.15556117179548815,69.59868680046553,0.0
273,-0.16522377722980827,-0.16852089091498532,69.47496369139311,0.0
274,-0.1802589459406771,-0.1814449558839165,69.35228735846047,0.0
275,-0.19062146043702896,-0.19240192041521412,69.23076842460847,0.0
276,-0.19599085394644056,-0.20037563213679307,69.11051596875998,0.0
277,-0.19831696765129728,-0.20546188842617127,68.9916375724325,0.0
278,-0.20025946698310235,-0.20862473638299237,68.8742393693098,0.0
279,-0.20366526155313494,-0.21120045570573034,68.75842609766228,0.0
280,-0.2089259277425303,-0.21439377557669892,68.64430115551252,0.0
281,-0.21524654682832153,-0.2189377940431589,68.53196665845148,0.0
282,-0.2214740476546813,-0.22495666667366376,68.42152350001739,0.0
283,-0.2269714202539014,-0.23197226799813303,68.31307141455851,0.0
284,-0.2319645345875687,-0.2389887728934865,68.20670904250885,0.0
285,-0.23701486062875576,-0.24465705619685002,68.10253399801442,0.0
286,-0.241958625615308,-0.2475892088603463,68.00064293885632,0.0
287,-0.24542624969726773,-0.24688047530759363,67.90113163862573,0.0
288,-0.24580287196924494,-0.24277496085518124,67.80409506111532,0.0
289,-0.24305504898846803,-0.2372401525791224,67.70962743689964,0.0
290,-0.2398678149062319,-0.23410466191930462,67.61782234208755,0.0
291,-0.24116552320763557,-0.23845707362221158,67.52877277923861,0.0
292,-0.2524220530648439,-0.2552193957509905,67.44257126044491,0.0
293,-0.2777159238235172,-0.28713207748994307,67.35930989258999,0.0
294,-0.3179601713981744,-0.3327060960845767,67.27908046480634,0.0
295,-0.36910908593619607,-0.3848883861550156,67.20197453816311,0.0
296,-0.4205787720457493,-0.4311452320874794,67.12808353762647,0.0
297,-0.4553397435643991,-0.4553413241176783,67.05749884634557,0.0
298,-0.45322427132320936,-0.44122633557615304,66.99031190232803,0.0
299,-0.39705023996682187,-0.3767096975099626,66.92661429758056,0.0
300,-0.27901513620744006,-0.2576668376440241,66.86649787980167,0.0
301,-0.10452106093216461,-0.09000403486005128,66.81005485672586,0.0
302,0.10806619183711436,0.11081857027801284,66.75737790323082,0.0
303,0.3316680696011932,0.3227939764974176,66.70856027133273,0.0
304,0.537474823839008,0.5220504913088796,66.66369590320774,0.0
305,0.7022990398873232,0.687814068853283,66.62287954739197,0.0
306,0.8134995239752022,0.806226980886877,66.58620687832772,0.0
307,0.8697097815462124,0.872071580282377,66.55377461943776,0.0
308,0.8777962837680284,0.8882030647461694,66.52568066992728,1.0
309,0.8483966779206857,0.8632169921668241,66.49989902600336,0.0
310,0.7925563127447982,0.8083086910868635,66.47434118624908,0.0
311,0.7201647933037134,0.7343319611197192,66.44901225404412,0.0
312,0.6391490296712787,0.6498086406957522,66.42391732071732,0.0
313,0.5546296707246725,0.5602313269803535,66.3990614659267,0.0
314,0.46853616348761346,0.4685761080963537,66.37444975804672,0.0
315,0.38055526272585166,0.37659172372144845,66.3500872545625,0.0
316,0.2904086089693529,0.28622364184250726,66.32597900247134,0.0
317,0.20026277133896497,0.20052729608594255,66.30213003869106,0.0
318,0.11566277685135093,0.12365247169435262,66.27854539047556,0.0
319,0.0441879558532772,0.0598875098992131,66.25523007583725,0.0
320,-0.007577902635951039,0.01218804161266368,66.23218910397664,0.0
321,-0.037232939007031285,-0.019114607794410488,66.20942747571884,0.0
322,-0.04824015118741548,-0.0367683781256859,66.18695018395707,0.0
323,-0.049025665033074234,-0.04591398692218629,66.16476221410312,0.0
324,-0.049682147138085636,-0.052467087083546415,66.14286854454494,0.0
325,-0.05788313707313153,-0.06121472307274478,66.121274147111,0.0
326,-0.07609286443935323,-0.07441519189017137,66.09998398754185,0.0
327,-0.1012892561513436,-0.09146874160132641,66.07900302596855,0.0
328,-0.12701765943436527,-0.10974503961517704,66.05833621739815,0.0
329,-0.1467136945682332,-0.12614159524508803,66.03798851220627,0.0
330,-0.1569407771630921,-0.13864479965994828,66.01796485663652,0.0
331,-0.1590574421864335,-0.14720683753615046,65.99827019330726,0.0
332,-0.15829667596497204,-0.15360608286761493,65.97890946172518,0.0
333,-0.16075448654208827,-0.16044590377649093,65.95988759880618,0.0
334,-0.170226066007718,-0.16982968686582728,65.94120953940327,0.0
335,-0.18669955394107696,-0.18235432829822198,65.92288021684179,0.0
336,-0.2068675454119844,-0.19686417523728514,65.90490456346164,0.0
337,-0.22583171157712967,-0.21102378247021358,65.88728751116689,0.0
338,-0.23911194293703464,-0.22239331037422705,65.87003399198272,0.0
339,-0.24445838378529486,-0.22949030000626192,65.85314893861961,0.0
340,-0.24289115962061741,-0.23236715288820464,65.8366372850449,0.0
341,-0.23819475273784543,-0.23248432439434213,65.82050396706194,0.0
342,-0.23482834377548337,-0.23198798256549602,65.8047539228966,0.0
343,-0.23556056355333482,-0.23275269074276841,65.78939209379143,0.0
344,-0.2404276537004719,-0.23561585027707815,65.77442342460745,0.0
345,-0.2474094535589334,-0.24010254349702453,65.75985286443347,0.0
346,-0.2538886717276725,-0.24470427883728396,65.74568536720352,0.0
347,-0.25772183609448385,-0.24755459256439166,65.73192589232187,0.0
348,-0.25757303054165376,-0.2472227149351195,65.71857940529597,0.0
349,-0.25302097507099386,-0.24334011628751603,65.70565087837763,0.0
350,-0.244856914003087,-0.23685364941797513,65.69314529121203,0.0
351,-0.23527178304937824,-0.22982435326817455,65.68106763149525,0.0
352,-0.2274356274789826,-0.22483253001413417,65.66942289563976,0.0
353,-0.22450101295807065,-0.22417879605516589,65.65821608944857,0.0
354,-0.22855758475956856,-0.22915207807083626,65.64745222879776,0.0
355,-0.24005470529781464,-0.23963447164770152,65.63713634032774,0.0
356,-0.2577634369908077,-0.25421345622101876,65.62727346214311,0.0
357,-0.27896717477578237,-0.2707890621782688,65.6178686445215,0.0
358,-0.2998440860506051,-0.2874453227121034,65.60892695063133,0.0
359,-0.31650697212553586,-0.30317939490780554,65.60045345725874,0.0
360,-0.32675126726650505,-0.3180427782394405,65.59245325554375,0.0
361,-0.33137011990782284,-0.3324229856637297,65.58493145172571,0.0
362,-0.3334496388355659,-0.3455777318994392,65.5778931678986,0.0
363,-0.3351749857881415,-0.35399717561887095,65.57134354277557,0.0
364,-0.333645054746858,-0.3504776963745576,65.56528773246374,0.0
365,-0.31855831157150516,-0.3247154529045381,65.55973091124882,0.0
366,-0.27411986074482675,-0.265700808847678,65.55467827238986,0.0
367,-0.18514234300970644,-0.16539250559431634,65.55013502892452,0.0
368,-0.04464186494055994,-0.022440218677773932,65.5461064144847,0.0
369,0.14093889903809687,0.15552151539265757,65.542597684123,0.0
370,0.3516585682065705,0.3520961442198727,65.53961411515006,0.0
371,0.5592460737738842,0.5450657859495327,65.53716100798304,0.0
372,0.7350078322334623,0.7112427319197254,65.53524368700528,0.0
373,0.857116630207017,0.8317220042157414,65.53386750143761,0.0
374,0.9151207822053337,0.8959017049124955,65.5330378262214,0.0
375,0.9111752299682077,0.9031107421459671,65.53276006291344,1.0
376,0.8580667112757809,0.8615379568849368,65.5345305578578,0.0
377,0.7743649719043508,0.7850563576033383,65.53977567760167,0.0
378,0.6782382324847696,0.6891551566724619,65.54839665571889,0.0
379,0.5825791754015784,0.5873284025069423,65.5602956849435,0.0
380,0.4934041733511674,0.4889139434294982,65.57537581716223,0.0
381,0.41139000480236976,0.3987148895516685,65.59354086694489,0.0
382,0.3348648305678298,0.31805991658160543,65.61469531847345,0.0
383,0.2626047333918335,0.2465334231512842,65.63874423574356,0.0
384,0.19547618023886457,0.1835557239745935,65.66559317592427,0.0
385,0.13640640233792337,0.12926573825276413,65.69514810577262,0.0
386,0.08880893315934241,0.08457656998414659,65.7273153210108,0.0
387,0.05461079046061962,0.050632587326110035,65.76200136858432,0.0
388,0.03335117337107263,0.028060054982166183,65.79911297172835,0.0
389,0.022799453078281462,0.016360348419357823,65.83855695778014,0.0
390,0.020183738518153777,0.013637674644590703,65.88024018868347,0.0
391,0.02284121336032094,0.016700842885899292,65.92406949414003,0.0
392,0.02797289381252213,0.021495399785166236,65.96995160737096,0.0
393,0.03213351774131143,0.02379222109508547,66.01779310345967,0.0
394,0.03126851417837109,0.02002512731485878,66.06750034025444,0.0
395,0.021636988968776,0.008102861867670341,66.11897940181689,0.0
396,0.0013593198647725568,-0.012048563296420595,66.17213604440919,0.0
397,-0.02823265835302108,-0.038455328870142275,66.22687564501975,0.0
398,-0.06252927661269306,-0.06769131113185803,66.28310315243314,0.0
399,-0.09530558447950546,-0.09597851505806304,66.34072304085669,0.0
400,-0.12132840620460991,-0.1204294667674645,66.39963926612157,0.0
401,-0.13853197547983997,-0.13995301571586857,66.45975522448195,0.0
402,-0.14874836460501695,-0.15544090536106386,66.5209737140411,0.0
403,-0.15668232996603443,-0.1691402744689078,66.58319689883828,0.0
404,-0.1675781985116563,-0.183473815006029,66.64632627563493,0.0
405,-0.18465222554814678,-0.19982648291144448,66.71026264344333,0.0
406,-0.20746103933494922,-0.2178458121171701,66.77490607584458,0.0
407,-0.23196124443487276,-0.2355772475966467,66.84015589614721,0.0
408,-0.2523456296441492,-0.25037347523212383,66.90591065544056,0.0
409,-0.26389405288052203,-0.260154514960781,66.97206811360097,0.0
410,-0.26541086920659535,-0.26442733878909547,67.03852522331084,0.0
411,-0.25990111910534375,-0.2645843150189866,67.10517811715387,0.0
412,-0.25304590667985855,-0.2633376234309526,67.17192209785152,0.0
413,-0.25033167983965987,-0.2635482187801158,67.23865163170747,0.0
414,-0.2545519964758821,-0.26698088284648325,67.3052603453282,0.0
415,-0.26498955708224076,-0.27353981014281237,67.37164102568906,0.0
416,-0.2781617090275902,-0.28131635895562646,67.43768562361504,0.0
417,-0.28920577860101215,-0.2874259497486382,67.5032852607461,0.0
418,-0.29356376007625523,-0.2892816196608925,67.56833024005623,0.0
419,-0.2890433829253853,-0.28577878571358795,67.63271005999442,0.0
420,-0.277422966149832,-0.27791203727727853,67.69631343231433,0.0
421,-0.26410337032948616,-0.26858509666604163,67.7590283036577,0.0
422,-0.2555397011967083,-0.26169985513262034,67.8207418809538,0.0
423,-0.2560713149343628,-0.2608676201692336,67.88134066069432,0.0
424,-0.2661388888597239,-0.268161325942208,67.94071046213932,0.0
425,-0.28267075885351045,-0.28321740419892505,67.99873646450617,0.0
426,-0.3008621540373908,-0.30280847978443715,68.0553032481877,0.0
427,-0.3156210878790801,-0.3208825837642093,68.11029484004158,0.0
428,-0.32145337098681526,-0.3290652598378034,68.16359476278572,0.0
429,-0.31134112422932103,-0.31768774232353925,68.21508608852896,0.0
430,-0.2764299332703164,-0.2774041736888435,68.26465149645813,0.0
431,-0.20774303256729715,-0.20130048949155635,68.31217333469537,0.0
432,-0.09954945162340642,-0.08711083989760529,68.35753368633071,0.0
433,0.047083377064076004,0.06110152017105036,68.40061443962591,0.0
434,0.22230703745988095,0.23249161817100966,68.44129736237572,0.0
435,0.40834547875077654,0.41064712433891626,68.47946418040253,0.0
436,0.5831125190329084,0.5764059151040191,68.51499666014928,0.0
437,0.725161657331747,0.7116461924354364,68.54777669532403,0.0
438,0.8183229472538481,0.8030145924246483,68.5776863975375,0.0
439,0.8551303522957784,0.8444896726616035,68.6046081908625,1.0
440,0.8384755385965565,0.837999232312948,68.63000840666392,0.0
441,0.7805117261789014,0.7919335346870915,68.6554228632652,0.0
442,0.6982692358569977,0.7181143060570847,68.68083847914316,0.0
443,0.6074589551743975,0.6283190371917284,68.70624213400721,0.0
444,0.5175703926497917,0.5315877956371748,68.73162066878409,0.0
445,0.4306642875578802,0.4331774654080444,68.75696088565317,0.0
446,0.3438478914006065,0.3353153133089591,68.78224954813231,0.0
447,0.2535155266171397,0.2391464665926277,68.8074733812151,0.0
448,0.15925794811248115,0.14679855830315114,68.83261907155945,0.0
449,0.06605372953463244,0.06250116791440133,68.85767326772816,0.0
450,-0.01619329941121922,-0.007818785108075738,68.88262258048199,0.0
451,-0.07609309597035463,-0.058312189034052,68.90745358312505,0.0
452,-0.10594034134520644,-0.08554733076399704,68.93215281190353,0.0
453,-0.10582317505496841,-0.09032895109417019,68.95670676645791,0.0
454,-0.08418272287947551,-0.07812924138167726,68.98110191032865,0.0
455,-0.05458700165472101,-0.05786571388905962,69.00532467151635,0.0
456,-0.030753160884861075,-0.039459629087476744,69.02936144309625,0.0
457,-0.02236642997630703,-0.03108862866383566,69.05319858388758,0.0
458,-0.03303965410375519,-0.03712189581159106,69.07682241917803,0.0
459,-0.060392356399964126,-0.05740713873956155,69.10021924150384,0.0
460,-0.09779063677277602,-0.08803715449435101,69.12337531148545,0.0
461,-0.13715965749913958,-0.12319023044420044,69.14627685871945,0.0
462,-0.17182962781924707,-0.1573047658011865,69.16891008272663,0.0
463,-0.1983405900028867,-0.1868073749477886,69.1912611539569,0.0
464,-0.21690485755864086,-0.21084664561181846,69.21331621485085,0.0
465,-0.23080490009506344,-0.23088574570824583,69.23506138095844,0.0
466,-0.24483727384620302,-0.24942850045442438,69.25648274211513,0.0
467,-0.2629222102514948,-0.26845212945870134,69.27756636367516,0.0
468,-0.2857496882864043,-0.2881947812221645,69.29829828780298,0.0
469,-0.3098855201260759,-0.30677126908424696,69.31866453482193,0.0
470,-0.32909967758251174,-0.3207346722907606,69.33865110462129,0.0
471,-0.3371806819452663,-0.3263136536160943,69.35824397812118,0.0
472,-0.3305989184023014,-0.3208030278098367,69.37742911879548,0.0
473,-0.30976558255711545,-0.3035710576740547,69.39619247425323,0.0
474,-0.2785623970894116,-0.27635611461961623,69.41451997787789,0.0
475,-0.24262104006988583,-0.24283819895694453,69.43239755052508,0.0
476,-0.20735904820356876,-0.20773357082014232,69.44981110227837,0.0
477,-0.17674381914836657,-0.1757677891352237,69.46674653426318,0.0
478,-0.15314912262613142,-0.15082369063016893,69.4831897405188,0.0
479,-0.13795082244231643,-0.13541079287701505,69.49912660992827,0.0
480,-0.13210355764733842,-0.13046324409670657,69.51454302820615,0.0
481,-0.13609008377778378,-0.13540894009715265,69.52942487994372,0.0
482,-0.1493112793269336,-0.14845705287746078,69.54375805071174,0.0
483,-0.16962477589798758,-0.1670683434240803,69.5575284292202,0.0
484,-0.19365321004201563,-0.18854760147613733,69.57072190953498,0.0
485,-0.21776031165946924,-0.2106240400076634,69.58332439335106,0.0
486,-0.23905509088651727,-0.23181247449529635,69.59532179232187,0.0
487,-0.25591183171738724,-0.2513464805186087,69.60670003044434,0.0
488,-0.26789664714186584,-0.2685898862396451,69.61744504649941,0.0
489,-0.27513911397548874,-0.2820525812372595,69.62754279654729,0.0
490,-0.2771304509236892,-0.2883849632140054,69.63697925647698,0.0
491,-0.27106857071378454,-0.28188366321274544,69.64574042460977,0.0
492,-0.2504769570433031,-0.25499261378001903,69.65381232435567,0.0
493,-0.20551491385043896,-0.19997659367006784,69.66118100692249,0.0
494,-0.12605051709648732,-0.11145027800388319,69.66783255407671,0.0
495,-0.006747733289960395,0.011035493632968435,69.67375308095538,0.0
496,0.14842594077351334,0.1613653999367503,69.67892873892835,0.0
497,0.32492444730453396,0.3269908903221627,69.68334571851004,0.0
498,0.5006016918834308,0.4910148192868524,69.68699025231967,0.0
499,0.6520029008993917,0.6356706898834434,69.68984861808933,0.0
500,0.7614199481372942,0.7460870512463393,69.69190714171852,0.0
501,0.8213682444674301,0.8131394321568629,69.69315220037467,0.0
502,0.8343042266122961,0.8345963935430025,69.69357022563811,1.0
503,0.8084857751291211,0.8144461371992753,69.69276843524915,0.0
504,0.7533868399968072,0.7609125912119519,69.690396931662,0.0
505,0.677535239630767,0.6839809335030624,69.68650666502164,0.0
506,0.5886631672944141,0.5932033552450526,69.68114876589716,0.0
507,0.4939849426472121,0.496277995999528,69.67437452342854,0.0
508,0.39932144124063695,0.3985650951070901,69.6662353641758,0.0
509,0.30795861751388565,0.3034311526565963,69.65678283168319,0.0
510,0.22079622661916282,0.2131162504806372,69.6460685667694,0.0
511,0.13807814586309136,0.12970260301122402,69.63414428855452,0.0
512,0.06146680727338963,0.05575281612093183,69.62106177623194,0.0
513,-0.005057434375893899,-0.005678574245369328,69.60687285159352,0.0
514,-0.05616241779920411,-0.05169064945369356,69.5916293623144,0.0
515,-0.08759061958204895,-0.08056710701981504,69.57538316600318,0.0
516,-0.09867134782934311,-0.0927234902308362,69.55818611502198,0.0
517,-0.09328752496507689,-0.09111284854009957,69.5400900420801,0.0
518,-0.07869220946716227,-0.0808531769073054,69.52114674660388,0.0
519,-0.06306580168317455,-0.06816268901711245,69.50140798188471,0.0
520,-0.05322375502264379,-0.05895915663497282,69.48092544300614,0.0
521,-0.05328811991631632,-0.05758350539118019,69.45975075555017,0.0
522,-0.06437098488005591,-0.06602405262980159,69.4379354650826,0.0
523,-0.08495029507733073,-0.0838089061103027,69.41553102741581,0.0
524,-0.11162112315870235,-0.10849962211830869,69.39258879964758,0.0
525,-0.14010725133609367,-0.1365468360266635,69.36916003197324,0.0
526,-0.1664967628846097,-0.1642072319040426,69.34529586026846,0.0
527,-0.18835191638289295,-0.18827547508061826,69.32104729943921,0.0
528,-0.2050015742937347,-0.2065179839954457,69.2964652375351,0.0
529,-0.2167227721789889,-0.2178394816677923,69.27160043062169,0.0
530,-0.22356978797019939,-0.22229323664491596,69.24650349840773,0.0
531,-0.2250605695427318,-0.22102166577630858,69.2212249206219,0.0
532,-0.2210893815197801,-0.21611442582516024,69.19581503413455,0.0
533,-0.21321165615924526,-0.21028561917500535,69.1703240308186,0.0
534,-0.20502456176773415,-0.20629061727137835,69.14480195614489,0.0
535,-0.20099787728156804,-0.20614559940803498,69.11929870850582,0.0
536,-0.204264017851872,-0.21040014953348402,69.09386403926217,0.0
537,-0.2146928600640124,-0.21781167288915942,69.06854755350736,0.0
538,-0.2284812632828984,-0.22568061765300457,69.04339871154363,0.0
539,-0.23963446817322978,-0.2308353433840169,69.01846683106473,0.0
540,-0.24269594193651917,-0.23092829917477192,68.99380109003967,0.0
541,-0.23542116298159943,-0.22549677281012734,68.96945053029258,0.0
542,-0.22007899141062232,-0.21628280524876248,68.94546406177338,0.0
543,-0.20270281411918767,-0.20660745195549007,68.92189046751484,0.0
544,-0.1905760442785391,-0.2000281727306768,68.89877840927139,0.0
545,-0.1890262370252424,-0.19886855437239334,68.8761764338355,0.0
546,-0.19894693157217072,-0.2033096815947119,68.85413298002811,0.0
547,-0.21630772899328332,-0.21149943129086682,68.8326963863595,0.0
548,-0.23411144047376553,-0.22065698410986836,68.81191489935772,0.0
549,-0.24599341764327648,-0.22864276922163052,68.79183668256215,0.0
550,-0.2496159382970343,-0.235179640738425,68.77250982618034,0.0
551,-0.24786746420968292,-0.2420090482025859,68.75398235740644,0.0
552,-0.2470008699569324,-0.2517275724284214,68.73630225140087,0.0
553,-0.25267623167986386,-0.2656772211819372,68.71951744293055,0.0
554,-0.2659978562565742,-0.2817736690960302,68.70367583867065,0.0
555,-0.28136696509573583,-0.29331463931217766,68.68882533016867,0.0
556,-0.28690199105444775,-0.2895325087610273,68.67501380747306,0.0
557,-0.2672233348602533,-0.2580363310732956,68.662289173429,0.0
558,-0.2079304787305062,-0.18855502536028765,68.6506993586448,0.0
559,-0.10074807274035755,-0.07681624227896647,68.64029233713353,0.0
560,0.05221856798531399,0.07280065650645362,68.63111614263498,0.0
561,0.23692468922905907,0.2469104586911488,68.62321888562435,0.0
562,0.4296143121559688,0.4254305989998829,68.6166487710149,0.0
563,0.6024674006960162,0.5860147169257032,68.61145411656265,0.0
564,0.7310438721852145,0.7093051739313501,68.60768337198289,0.0
565,0.8011405339777115,0.783365433416488,68.60538513878858,0.0
566,0.8123397311201087,0.8059079098680396,68.6046081908625,1.0
567,0.7764792484936531,0.7836972148852611,68.6050510079607,0.0
568,0.711838668987272,0.7294905682269872,68.60636834882794,0.0
569,0.636177704175057,0.6576914989229106,68.60854359607013,0.0
570,0.5618013323183078,0.5802358149296679,68.61156019327233,0.0
571,0.49380274657692314,0.504008270566683,68.61540164088764,0.0
572,0.43076956804413213,0.4304401854651485,68.62005149221615,0.0
573,0.3670094341199476,0.3571341683286163,68.62549334947255,0.0
574,0.29589546371021896,0.2806855547908672,68.63171085994088,0.0
575,0.21378449533317298,0.19952815718863298,68.63868771221539,0.0
576,0.12307665051976091,0.11571425092894994,68.64640763252595,0.0
577,0.03258019497459139,0.03500207776020567,68.65485438114722,0.0
578,-0.04548537181434917,-0.034704473827102206,68.66401174889015,0.0
579,-0.10033800913757951,-0.08589650715719671,68.67386355367516,0.0
580,-0.12663193168100073,-0.11398050425985676,68.68439363718578,0.0
581,-0.1257984273533243,-0.11884991562882491,68.69558586160203,0.0
582,-0.10486075848369533,-0.10499423931987534,68.70742410641282,0.0
583,-0.07399867562337006,-0.08019321901900718,68.71989226530644,0.0
584,-0.04387192675509578,-0.0533263793387084,68.73297424313873,0.0
585,-0.023055917752704602,-0.0320731292876105,68.74665395297797,0.0
586,-0.015982903489831154,-0.02123453412609075,68.76091531322639,0.0
587,-0.022226879998304416,-0.022122752586951802,68.77574224481748,0.0
588,-0.0376973489942444,-0.0330575324893146,68.79111866848875,0.0
589,-0.05715516972164292,-0.05063359211286744,68.80702850212971,0.0
590,-0.07661774802479009,-0.07121240108836023,68.82345565820448,0.0
591,-0.09450297316536925,-0.09210835232598402,68.8403840412491,0.0
592,-0.11129915084915468,-0.11214483047935692,68.85779754544293,0.0
593,-0.1283851033943799,-0.13153755738881726,68.87568005225442,0.0
594,-0.14696283459335932,-0.15129684336288718,68.89401542816064,0.0
595,-0.16768701128011565,-0.17245335668511647,68.91278752244092,0.0
596,-0.19075311045951723,-0.1954017431273702,68.9319801650443,0.0
597,-0.2158053180678685,-0.2195669853354001,68.95157716453095,0.0
598,-0.24151376455499485,-0.24347657766892433,68.97156230608746,0.0
599,-0.26540360290651616,-0.26519403168871536,68.99191934961632,0.0
600,-0.2845466987134745,-0.2829530338860213,69.01263202789943,0.0
601,-0.2969479680574977,-0.2957552367467472,69.03368404483606,0.0
602,-0.30267077853285324,-0.30369644133118223,69.05505907375542,0.0
603,-0.303820589261393,-0.3078844390742147,69.07674075580385,0.0
604,-0.3034208123847415,-0.30997751435762466,69.09871269840731,0.0
605,-0.3039631269271982,-0.31153274677204995,69.12095847380907,0.0
606,-0.3063941483730992,-0.3134316022908116,69.14346161768316,0.0
607,-0.309971929087824,-0.3156124030912715,69.16620562782394,0.0
608,-0.3130164865794658,-0.3172097818624337,69.18917396291212,0.0
609,-0.31400407435878674,-0.3170442071606835,69.21235004135767,0.0
610,-0.3122833838121837,-0.3142833991191149,69.23571724021994,0.0
611,-0.30817548310520626,-0.3090424622087612,69.25925889420577,0.0
612,-0.3027049257794093,-0.30269554672137555,69.28295829474574,0.0
613,-0.297309463465249,-0.2977213466742684,69.30679868914929,0.0
614,-0.2937322877720339,-0.29699426697414366,69.330763279839,0.0
615,-0.2939465434466265,-0.3025754705205326,69.35483522366494,0.0
616,-0.2994748829472629,-0.31425463731631464,69.37899763129928,0.0
617,-0.30956538926108823,-0.328297874938161,69.4032335667119,0.0
618,-0.31891761180942324,-0.3369686296948685,69.42752604672768,0.0
619,-0.31686277410143204,-0.32929617382570314,69.45185804066567,0.0
620,-0.2893585256432192,-0.2932297956558678,69.47621247006151,0.0
621,-0.2232524698981321,-0.2188200152399509,69.5005722084727,0.0
622,-0.11103059527231021,-0.10159885887972492,69.52492008136826,0.0
623,0.04562937365680289,0.05490605621992542,69.54923886610275,0.0
624,0.23468447409710586,0.23847064924541433,69.57351129197575,0.0
625,0.4354924719201645,0.42977017870798173,69.59772004037701,0.0
626,0.6229848189480803,0.6060811492489989,69.62184774501824,0.0
627,0.7728608894723423,0.746220822178968,69.64587699225191,0.0
628,0.8666492282139723,0.8353866032549977,69.66979032147786,0.0
629,0.896115244117157,0.868461940660449,69.69357022563811,1.0
630,0.8661310240632583,0.8507117856287068,69.71756194966113,0.0
631,0.7940598287068034,0.7955539538017414,69.74211852493332,0.0
632,0.7042205014445793,0.7200620297199052,69.7672340959522,0.0
633,0.6189271795069508,0.6396917256877017,69.79290281490367,0.0
634,0.5503998747529105,0.5640616293946215,69.81911884066349,0.0
635,0.497643418108547,0.495255306057855,69.8458763378092,0.0
636,0.4494178666530536,0.4291410597623171,69.87316947564229,0.0
637,0.3913188659542795,0.3590175779604857,69.90099242722033,0.0
638,0.3136089959781773,0.2799950096250319,69.92933936839924,0.0
639,0.21656408096907648,0.1922931983491419,69.95820447688519,0.0
640,0.11114237509815791,0.10216113855040973,69.98758193129626,0.0
641,0.014757332169825776,0.0201447433241278,70.01746591023378,0.0
642,-0.05570207036168742,-0.04249904968503368,70.04785059136287,0.0
643,-0.09019934363383963,-0.07776899228406414,70.0787301505026,0.0
644,-0.08861611417492316,-0.08375509380425808,70.11009876072525,0.0
645,-0.05993679738378249,-0.06537666062913447,70.14195059146475,0.0
646,-0.01861826615282927,-0.0329026112700444,70.17427980763429,0.0
647,0.02002273740227878,0.0010810356344292116,70.20708056875284,0.0
648,0.043771351862032445,0.025144801021861063,70.24034702808065,0.0
649,0.04601594619982258,0.03181161019666982,70.2740733317635,0.0
650,0.026540613046614273,0.018915793043166554,70.30825361798598,0.0
651,-0.009489376809485223,-0.010687225194170202,70.34288201613336,0.0
652,-0.05397310709782882,-0.05074389478000746,70.37795264596208,0.0
653,-0.0987155741124276,-0.09389085712908168,70.41345961677919,0.0
654,-0.137633543217158,-0.1338464802821109,70.44939702663015,0.0
655,-0.16788084450024468,-0.16688981116735108,70.48575896149529,0.0
656,-0.18988087108365134,-0.19231335861713236,70.52253949449499,0.0
657,-0.20639792013846758,-0.21187960838352152,70.55973268510319,0.0
658,-0.22103198632030766,-0.22859336419980614,70.59733257836965,0.0
659,-0.23684288930919423,-0.24525909990348255,70.63533320415057,0.0
660,-0.2555997821427886,-0.2633063395708427,70.67372857634798,0.0
661,-0.2774198756071344,-0.2822532734404054,70.7125126921574,0.0
662,-0.3003560406678026,-0.2999715687685931,70.75167953132419,0.0
663,-0.32027956136150715,-0.3136518152166448,70.79122305540861,0.0
664,-0.33205558966628124,-0.3211050873644011,70.83113720705914,0.0
665,-0.33226866410622247,-0.3218615088894179,70.87141590929475,0.0
666,-0.3219754632598485,-0.31754716489330653,70.91205306479567,0.0
667,-0.30710258151488207,-0.31128964423377303,70.95304255520274,0.0
668,-0.29560956441642416,-0.3063468683370908,70.99437824042575,0.0
669,-0.29318367099186193,-0.30457068188131675,71.03605395796038,0.0
670,-0.30029858480650995,-0.30547181301119875,71.07806352221401,0.0
671,-0.3120893385354576,-0.306424473257106,71.12040072384045,0.0
672,-0.32061563558634265,-0.30401361269333016,71.16305932908361,0.0
673,-0.31845198054443735,-0.2959315427064111,71.20603307913021,0.0
674,-0.30247742136494066,-0.28246953226176563,71.24931568947152,0.0
675,-0.27621265418393737,-0.26672988173910256,71.29290084927449,0.0
676,-0.248848445311472,-0.2532165154083492,71.33678222076186,0.0
677,-0.23050578188914472,-0.24523748342369803,71.38095343860181,0.0
678,-0.2258432657177637,-0.24221376714390724,71.42540810930707,0.0
679,-0.22976005704286645,-0.2381953437109396,71.47013981064342,0.0
680,-0.22792005849798283,-0.2224959379417713,71.51514209104803,0.0
681,-0.20183390972484838,-0.1825186827633243,71.56040846905746,0.0
682,-0.13585950265751187,-0.1079236899540181,71.60593243274548,0.0
683,-0.023224912434364392,0.005311341484310006,71.65170743917103,0.0
684,0.13083016495490019,0.15241716472609346,71.69772691383623,0.0
685,0.30964674882072957,0.31989073410134594,71.74398425015454,0.0
686,0.4892803384520129,0.48815672740090643,71.79047280892938,0.0
687,0.6447326727351363,0.6360304738932758,71.83718591784337,0.0
688,0.7560048967626009,0.745612808307417,71.88411687095791,0.0
689,0.8121924036733826,0.8061601076638083,71.93125892822391,0.0
690,0.8130435774941136,0.8158587334906827,71.97860531500329,1.0
691,0.7679100456002783,0.7811331507824505,72.02636142794371,0.0
692,0.6921727712772424,0.7138892373678738,72.07473567509433,0.0
693,0.6020955045476186,0.6276931908349916,72.12372578017785,0.0
694,0.5100855120497195,0.5341331898618614,72.17332947646273,0.0
695,0.4222558047226805,0.44044669448808177,72.22354450622713,0.0
696,0.33880928438898095,0.34900062460751463,72.2743686202243,0.0
697,0.25627624538794613,0.25856922835472784,72.32579957714991,0.0
698,0.1702863216943895,0.16677926301596005,72.37783514311072,0.0
699,0.07819338478483859,0.07275171446221917,72.43047309109474,0.0
700,-0.018704368165367607,-0.021053873936636575,72.48371120044287,0.0
701,-0.11394633125429479,-0.10849588908727606,72.53754725632169,0.0
702,-0.19665614554221234,-0.18108704444860904,72.59197904919746,0.0
703,-0.2546707509201771,-0.23058165639774955,72.64700437431131,0.0
704,-0.2791232417958283,-0.2518935509096697,72.70262103115529,0.0
705,-0.2684766733983926,-0.24524447755728948,72.75882682294954,0.0
706,-0.23010122339412903,-0.21667689061067708,72.81561955612018,0.0
707,-0.1785661905330447,-0.1766550472084895,72.87299703977799,0.0
708,-0.13107473023224417,-0.13720547455963655,72.93095708519776,0.0
709,-0.10160703321179226,-0.10861256366774796,72.98949750529849,0.0
710,-0.09623815241872138,-0.09683997232199423,73.04861611412375,0.0
711,-0.11193141878638202,-0.10252097845073507,73.10831072632274,0.0
712,-0.13935729349364281,-0.12170081044786044,73.16857915663189,0.0
713,-0.16798889010165238,-0.14782948201805057,73.22941921935637,0.0
714,-0.19059380101014048,-0.17410620176026678,73.29082872785224,0.0
715,-0.2049855761680356,-0.1953174909157205,73.35280549400868,0.0
716,-0.2127702828348845,-0.20870881209411843,73.41534732773016,0.0
717,-0.21652655122479064,-0.2139303272400628,73.47845203641906,0.0
718,-0.2175138521246307,-0.2124331036377001,73.54211742445783,0.0
719,-0.21537747886836187,-0.20673245522622488,73.60634129269143,0.0
720,-0.2097364835192317,-0.1997648254163283,73.67112143790953,0.0
721,-0.20201966700437754,-0.1943355989508534,73.73645565232844,0.0
722,-0.1957468672085383,-0.19256521360036644,73.802341723073,0.0
723,-0.19481122220765978,-0.1953350989957796,73.8687774316579,0.0
724,-0.2009488790752444,-0.20190841793823117,73.93576055346897,0.0
725,-0.21221283680097044,-0.2099867827371092,74.00328885724377,0.0
726,-0.22355367282941122,-0.21635996098401777,74.07136010455193,0.0
727,-0.2291945332906643,-0.21804406749593924,74.13997204927487,0.0
728,-0.22549402511638794,-0.21352995612817566,74.20912243708504,0.0
729,-0.2129154679217234,-0.20363949101333756,74.27880900492453,0.0
730,-0.19618692133846394,-0.19159307591831606,74.34902948048293,0.0
731,-0.18245405235029172,-0.18218187943728054,74.41978158167478,0.0
732,-0.17822693831091768,-0.18027307169742135,74.49106301611597,0.0
733,-0.18670523613345727,-0.18910446746523352,74.56287148059958,0.0
734,-0.20676569984211213,-0.20886583409826137,74.63520466057078,0.0
735,-0.23360337636248812,-0.23594249348660007,74.70806022960102,0.0
736,-0.25995653875203517,-0.26300685578832655,74.78143584886115,0.0
737,-0.276961950600767,-0.27997233708003855,74.8553291665938,0.0
738,-0.2746518678997731,-0.2756955940176862,74.92973781758474,0.0
739,-0.24290515021893283,-0.2401946043661924,75.00465942263311,0.0
740,-0.17358851899343863,-0.16701143810861252,75.08009158802093,0.0
741,-0.06358865396396078,-0.055215875393962235,75.15603190498135,0.0
742,0.08270859803851191,0.08949817630274093,75.23247794916578,0.0
743,0.25297086587966844,0.2550463507701146,75.3094272801102,0.0
744,0.42888611190483694,0.42463488502537583,75.38687744070005,0.0
745,0.5897832079642572,0.5796034769375654,75.46482595663419,0.0
746,0.716668217184438,0.7027855662783722,75.5432703358875,0.0
747,0.7956381159142778,0.7815604641408092,75.62220806817258,0.0
748,0.8201847433899131,0.8098394504272973,75.70163662440001,1.0
749,0.7922050903140114,0.7885331994219988,75.7830664441067,0.0
750,0.7212806028955034,0.7245026466019602,75.8679219267808,0.0
751,0.6217233859431213,0.628453968275843,75.95607117045415,0.0
752,0.5080339864993308,0.5125317982652547,76.04738177529445,0.0
753,0.3910408061494064,0.38836301902224707,76.14172072208336,0.0
754,0.27695301868632116,0.2659922947987185,76.23895425488341,0.0
755,0.16943422619983933,0.1536713262404478,76.33894776788362,0.0
756,0.07262344837038766,0.058061500277483774,76.44156569643152,0.0
757,-0.007354285109874181,-0.015701532147237768,76.5466714122759,0.0
758,-0.0634975962887856,-0.06440153847057584,76.65412712306117,0.0
759,-0.09095043126896141,-0.08748809142173516,76.76379377613026,0.0
760,-0.09003592661923587,-0.08770929903069324,76.87553096670801,0.0
761,-0.06740563143858143,-0.07108557989778763,76.98919685055256,0.0
762,-0.03454224957815499,-0.04593331176882186,77.10464806117615,0.0
763,-0.004238948166327597,-0.021097188262879082,77.22173963175118,0.0
764,0.013484821144933712,-0.0039533503502921785,77.34032492183026,0.0
765,0.014303862127851036,0.001111528144176685,77.46025554902243,0.0
766,-3.592348136542689e-05,-0.006770824692188537,77.58138132577969,0.0
767,-0.023976147271808163,-0.025509522154882586,77.70355020145927,0.0
768,-0.051484810885313134,-0.05136193253212326,77.82660820983942,0.0
769,-0.07849017286241759,-0.08040402972929267,77.95039942227459,0.0
770,-0.10358591451674937,-0.10961608586203397,78.07476590668772,0.0
771,-0.12736423399583954,-0.13729848964511723,78.19954769260436,0.0
772,-0.1509918067748302,-0.1628629039260393,78.3245827424419,0.0
773,-0.1747762730342212,-0.18628180774899572,78.44970692927419,0.0
774,-0.1976966581598554,-0.20753940966135062,78.57475402129684,0.0
775,-0.2182049439207788,-0.22632616110043352,78.6995556732247,0.0
776,-0.23526513612163183,-0.24204647187355147,78.82394142485481,0.0
777,-0.24840981854697305,-0.2540600852998558,78.9477387070324,0.0
778,-0.2570703750160363,-0.2620005591256964,79.07077285525678,0.0
779,-0.2605300631493425,-0.2660076132540695,79.19286713116502,0.0
780,-0.2589582870872378,-0.26675699573632383,79.31384275212856,0.0
781,-0.2543708576561361,-0.2652644168547237,79.43351892919492,0.0
782,-0.25014712753680945,-0.26256264992224,79.55171291360148,0.0
783,-0.2491117710620822,-0.2594478551315781,79.6682400520815,0.0
784,-0.25166606971145133,-0.25648139560703614,79.78291385117409,0.0
785,-0.25561691530013564,-0.25427577640580645,79.89554605073899,0.0
786,-0.25801907089783077,-0.253849944972701,80.00594670686502,0.0
787,-0.2576997303056928,-0.2566668274176568,80.11392428434647,0.0
788,-0.256544022253199,-0.26402258496533526,80.21928575888484,0.0
789,-0.25835239431775847,-0.2757828880048948,80.32183672915508,0.0
790,-0.2655151515907835,-0.2889215387365144,80.42138153885458,0.0
791,-0.2751863579816202,-0.296653543820916,80.51772340882992,0.0
792,-0.27738694306057593,-0.2889288012724366,80.61066457935131,0.0
793,-0.2568516189601987,-0.2545917236390438,80.70000646257718,0.0
794,-0.19845633431867843,-0.18477923249449762,80.78554980522165,0.0
795,-0.09390793854459431,-0.07646042796383637,80.86709486140573,0.0
796,0.05341758659216414,0.06524152881584266,80.94444157563899,0.0
797,0.22766677244948735,0.22699196129759613,81.0173897758425,0.0
798,0.40415953346807754,0.3897083352055384,81.08573937628567,0.0
799,0.5562893798945916,0.5328599410864243,81.14929059026915,0.0
800,0.663194396193812,0.6392260154261665,81.20784415234476,0.0
801,0.7151252446984713,0.698583087345467,81.26120154981932,0.0
802,0.714328941306592,0.7092315046274238,81.30916526324445,1.0
803,0.671664081769761,0.677092973547365,81.35428988332697,0.0
804,0.6013606502182781,0.6129583511627701,81.39924410724278,0.0
805,0.5166230468847692,0.5290074406289829,81.4440023874389,0.0
806,0.4272768952691367,0.4357998469976334,81.48853906866623,0.0
807,0.33902705019327845,0.34059377279532826,81.53282838913589,0.0
808,0.25362115399057633,0.24727198022022895,81.57684448184264,0.0
809,0.17003400308687563,0.15756124032910712,81.62056137605632,0.0
810,0.0869668600387421,0.07280932362934578,81.66395299898305,0.0
811,0.00579156164227837,-0.004546419025441645,81.70699317759828,0.0
812,-0.06793782608572246,-0.07048602618714775,81.7496556406526,0.0
813,-0.12570919361555194,-0.12010211873658294,81.7919140208522,0.0
814,-0.15959198128380395,-0.14916690927618775,81.83374185721541,0.0
815,-0.1661071427765982,-0.1558772841485467,81.87511259760666,0.0
816,-0.14815572878846087,-0.14202155909223205,81.91599960144917,0.0
817,-0.11401962823999268,-0.11307420745004375,81.95637614261766,0.0
818,-0.07433211843927073,-0.07716743385549228,81.9962154125124,0.0
819,-0.03895641156000798,-0.04329781624988709,82.03549052331539,0.0
820,-0.015207447080676131,-0.019342152712180802,82.07417451143013,0.0
821,-0.007408163986446406,-0.010442483179322351,82.11224034110562,0.0
822,-0.016862490154497048,-0.018145226855029783,82.14966090824547,0.0
823,-0.04173780505712946,-0.04044427411814462,82.1864090444029,0.0
824,-0.07723677958389791,-0.07265218419765937,82.22245752096245,0.0
825,-0.11662266482088696,-0.1088360743001899,82.25777905350847,0.0
826,-0.1530898837921636,-0.14342280210216923,82.29234630638139,0.0
827,-0.1817997815138321,-0.17253155134613857,82.32613189742143,0.0
828,-0.20117380958180434,-0.19466378138002755,82.35910840290056,0.0
829,-0.21291987965218204,-0.21057466835327548,82.39124836264213,0.0
830,-0.22086310398310635,-0.22241889963415795,82.4225242853284,0.0
831,-0.22901591513491307,-0.23251527583346704,82.45290865399576,0.0
832,-0.23959447194958106,-0.24220975051489788,82.48237393171696,0.0
833,-0.25193941496006855,-0.2512745194403142,82.51089256746998,0.0
834,-0.2630159462127244,-0.2580717040480728,82.53843700219284,0.0
835,-0.26919278097240057,-0.26041518796616925,82.56497967502322,0.0
836,-0.26817220045633017,-0.25679859556680384,82.59049302972231,0.0
837,-0.2600781168737819,-0.2475158940951237,82.61494952128099,0.0
838,-0.2474884052497705,-0.2352191457502808,82.63832162270764,0.0
839,-0.2347781601894855,-0.22461284779586033,82.66058183199536,0.0
840,-0.22718459684490366,-0.22122579232679151,82.68170267926726,0.0
841,-0.22962198481105142,-0.22947909323666216,82.7016567340976,0.0
842,-0.24496014858092102,-0.2505339574945459,82.72041661300663,0.0
843,-0.27187898459416954,-0.2805910217731169,82.7379549871271,0.0
844,-0.30322971678146854,-0.31034230389794243,82.75424459003897,0.0
845,-0.3260013059340361,-0.3260761116435918,82.76925822577076,0.0
846,-0.3233600510035627,-0.3124967232919229,82.78296877696346,0.0
847,-0.2786625841525318,-0.25673793961869484,82.79534921319443,0.0
848,-0.180879715554427,-0.15251271455386237,82.80637259945746,0.0
849,-0.02984864997908329,-0.0030784522965555394,82.81601210479583,0.0
850,0.16111445560536886,0.1781207385862471,82.82424101108383,0.0
851,0.36705977255488004,0.3696336169734431,82.8310327219531,0.0
852,0.5574927946268093,0.5465891664782264,82.83636077185957,0.0
853,0.7045221657232217,0.6864239189455942,82.8401988352859,0.0
854,0.7901860346529119,0.7740290727174882,82.8425207360752,0.0
855,0.8106468996337499,0.8047458659604756,82.84330045689057,1.0
856,0.7759018569991457,0.7843511040669436,82.8409067990645,0.0
857,0.7049881287071373,0.7261908651542739,82.83382739413695,0.0
858,0.6186940279962141,0.6465573034591265,82.8222157100065,0.0
859,0.5331262392881652,0.5599171910427777,82.80622656586856,0.0
860,0.4564946589790918,0.4755256257483539,82.78601596676938,0.0
861,0.38910117912830616,0.39636158441807695,82.76174094304768,0.0
862,0.32533266178505954,0.32045165962552746,82.73355939490308,0.0
863,0.2570214910016842,0.2438174988651031,82.70162994230661,0.0
864,0.17787994527304776,0.16376263793747062,82.66611178044538,0.0
865,0.08775570723279265,0.08116999545988397,82.62716454087023,0.0
866,-0.005559373715885579,0.0009300362696699482,82.58494815849369,0.0
867,-0.0886568092866222,-0.06959213128016584,82.5396227445634,0.0
868,-0.14830351351662854,-0.12331923074003004,82.49134846571586,0.0
869,-0.17761926506166692,-0.1562164689118156,82.44028542919564,0.0
870,-0.1792145379495011,-0.16884733890154902,82.38659357430606,0.0
871,-0.1637561517844182,-0.16611990708384147,82.33043257013927,0.0
872,-0.14497077419655446,-0.15544622003883615,82.27196171961717,0.0
873,-0.1338211268449207,-0.14421865001300316,82.21133986985822,0.0
874,-0.13476909014871277,-0.13771798920002912,82.14872532887013,0.0
875,-0.14563338774386042,-0.13823959708240122,82.08427578855525,0.0
876,-0.1605344038018504,-0.1455593607472839,82.01814825400173,0.0
877,-0.1740715238990299,-0.15821736033560874,81.95049897902268,0.0
878,-0.18457385433253434,-0.1747931975501548,81.88148340789388,0.0
879,-0.19480956671124974,-0.1945054339653398,81.81125612323198,0.0
880,-0.20982059364349026,-0.2169633418033192,81.73997079994577,0.0
881,-0.23313312977981537,-0.2414359943022441,81.66778016518587,0.0
882,-0.2636360652355399,-0.2662772016756868,81.59483596421168,0.0
883,-0.2952168513683665,-0.2890088757685402,81.52128893208854,0.0
884,-0.3196701392624727,-0.3071141268172028,81.44728877112394,0.0
885,-0.33126147164067027,-0.3191058495402044,81.37298413394771,0.0
886,-0.330105047451804,-0.3252199309992555,81.29852261213836,0.0
887,-0.3221603624416466,-0.32727573550763567,81.22405073029597,0.0
888,-0.315781880583954,-0.3277389084933756,81.14971394546124,0.0
889,-0.3169428574961495,-0.32851262427736383,81.07565665177988,0.0
890,-0.3260559199203984,-0.33016654480371077,81.00202219031227,0.0
891,-0.33824745729300176,-0.33206369416827775,80.92895286389012,0.0
892,-0.34677136888450344,-0.33330032598914944,80.85658995692339,0.0
893,-0.3473797178408625,-0.333849703544708,80.78507376006431,0.0
894,-0.3410378537611847,-0.33510970332811724,80.71454359963846,0.0
895,-0.3334670762941535,-0.3393243167927267,80.64513787175756,0.0
896,-0.3317137434696966,-0.3479533695600749,80.57699408103288,0.0
897,-0.339381662510384,-0.35969111521799607,80.51024888381488,0.0
898,-0.352892478813142,-0.3691514023298614,80.44503813588943,0.0
899,-0.36085580857585464,-0.3670646912000032,80.38149694456872,0.0
900,-0.3472276580707478,-0.34223188881018907,80.31975972512213,0.0
901,-0.2970024872391194,-0.28472341756099556,80.25996026149956,0.0
902,-0.2019709242855257,-0.189245510939899,80.20223177130914,0.0
903,-0.0642341481416748,-0.05747202793405784,80.14670697501941,0.0
904,0.10384679640195804,0.10149785743814782,80.09351816936577,0.0
905,0.2832166517537187,0.2727224924905128,80.04279730495135,0.0
906,0.45352432439087564,0.4385183549678976,79.99467606804306,0.0
907,0.5977787208092159,0.5821190266061964,79.94928596657377,0.0
908,0.7046461135721753,0.6908711096782292,79.906758420375,0.0
909,0.7688213859940534,0.7582058540694163,79.8672248556752,0.0
910,0.7907855060966991,0.7840493011548545,79.83081680391274,1.0
911,0.7762516840398077,0.7737625250888107,79.79655997747756,0.0
912,0.7346599670253433,0.7360405689901571,79.76336352382883,0.0
913,0.67665572181423,0.6804045426938863,79.73118443338659,0.0
914,0.6114836287254963,0.6149776278146935,79.69997990903278,0.0
915,0.5452110186056247,0.5451283608120614,79.6697073554394,0.0
916,0.47996259418250686,0.47329804821371363,79.64032436889049,0.0
917,0.4142029515251219,0.3999498257573028,79.61178872759027,0.0
918,0.3445494474044314,0.32518416227767816,79.58405838245089,0.0
919,0.2690922227174576,0.25030025626788444,79.55709144835309,0.0
920,0.1905573704832395,0.17858072199799496,79.53084619587405,0.0
921,0.1168879202872867,0.11489158569986684,79.50528104347636,0.0
922,0.0582807930945447,0.0642241452312869,79.48035455015336,0.0
923,0.022254251911763306,0.029821706109409873,79.4560254085255,0.0
924,0.009690419003090978,0.011765237740705786,79.43225243838329,0.0
925,0.014093537167100212,0.00669826473233065,79.40899458067254,0.0
926,0.024419172931176125,0.008837942502969404,79.38621089191783,0.0
927,0.029973476557005968,0.011819602356705927,79.3638605390803,0.0
928,0.02477987347185681,0.010566178129750053,79.3419027948466,0.0
929,0.00909219614050083,0.0024336142691538942,79.3202970333451,0.0
930,-0.012518239438314704,-0.012701635855582927,79.29900272628679,0.0
931,-0.03499209816267507,-0.03322556396817633,79.27797943952763,0.0
932,-0.05596691718781008,-0.05690936469337725,79.25718683004952,0.0
933,-0.07637749067995271,-0.08182860444489953,79.23658464335749,0.0
934,-0.09854610231182048,-0.10679633034391911,79.2161327112904,0.0
935,-0.12368688404056091,-0.13135591730840904,79.19579095024268,0.0
936,-0.1508312469783799,-0.1555682843580226,79.175519359795,0.0
937,-0.177741506631407,-0.1798022913944576,79.15527802175141,0.0
938,-0.20281783636395384,-0.20457993301352514,79.13502709958092,0.0
939,-0.22636533066727016,-0.23039663551148487,79.11472683826098,0.0
940,-0.25025683552178074,-0.25743961716491415,79.09433756452138,0.0
941,-0.27634970385731267,-0.28525144924067025,79.0738196874856,0.0
942,-0.30477022721683805,-0.31252110107201764,79.053133699708,0.0
943,-0.33312372867012385,-0.337210322575779,79.03224017860458,0.0
944,-0.35726183086990454,-0.3570954665917967,79.01109978827469,0.0
945,-0.37340258827753897,-0.3705863429847007,78.98967328171196,0.0
946,-0.3803563844580757,-0.3775017749788721,78.96792150340137,0.0
947,-0.38036927395074044,-0.37944586671409514,78.94580539230057,0.0
948,-0.3781035067420321,-0.3795628939956687,78.92328598520244,0.0
949,-0.37857527784982314,-0.3816799703307086,78.9003244204763,0.0
950,-0.3852583013815591,-0.3890610160584374,78.87688194218491,0.0
951,-0.3989822968148905,-0.40310985902628543,78.85291990457408,0.0
952,-0.4176125785687908,-0.4223611744355319,78.8283997769318,0.0
953,-0.4363098882254325,-0.4420266466196723,78.80328314881346,0.0
954,-0.4481394315091376,-0.4542690907442918,78.77753173562945,0.0
955,-0.44474508097386845,-0.4492763306292046,78.75110738459148,0.0
956,-0.4170401850104086,-0.41707874085243785,78.7239720810133,0.0
957,-0.3563908822274512,-0.349871908785328,78.69608795496201,0.0
958,-0.2568591912844155,-0.2443816059933055,78.66741728825458,0.0
959,-0.11820956190524849,-0.1036233959656519,78.63792252179591,0.0
960,0.05173777458174866,0.06260980801103094,78.60756626325202,0.0
961,0.23698495788111024,0.23895443429615099,78.57631129505411,0.0
962,0.41607586182796696,0.407304173649801,78.54412058272705,0.0
963,0.5670726199174779,0.5505945303849236,78.51095728353664,0.0
964,0.673408189534895,0.6564385616504518,78.47678475544934,0.0
965,0.7286298673672942,0.7194469124993569,78.4415665663974,0.0
966,0.7377550585477268,0.7414715028163804,78.40526650384287,1.0
967,0.7140305780127696,0.7297629764422834,78.36609275061733,0.0
968,0.6724777469532691,0.6938213241878637,78.32240810906355,0.0
969,0.6237302207973522,0.6421935826677162,78.2744090144259,0.0
970,0.5712943119024714,0.5804127403391732,78.22229246104332,0.0
971,0.5128510720157906,0.5107124892739859,78.166255795764,0.0
972,0.44391892422283064,0.43336184621525375,78.10649652097919,0.0
973,0.36175102668493164,0.3487996667001384,78.04321210746768,0.0
974,0.2681238402933487,0.2594838619369352,77.97659981720243,0.0
975,0.17026308962012582,0.17058178258254594,77.9068565362337,0.0
976,0.07936320478667665,0.08919226333647107,77.83417861772611,0.0
977,0.0068608405457600274,0.02244812299632193,77.75876173519413,0.0
978,-0.03999929730601373,-0.024681921518263122,77.6808007459478,0.0
979,-0.06092320319637995,-0.05098121346014364,77.60048956473214,0.0
980,-0.06211391099843286,-0.059353960263147876,77.51802104751506,0.0
981,-0.0531822537956749,-0.05589625702205922,77.43358688535504,0.0
982,-0.04350714920905627,-0.048093721657578165,77.34737750825582,0.0
983,-0.039775400062005445,-0.042833534268357606,77.25958199889548,0.0
984,-0.0451522129694181,-0.04487330444931459,77.1703880160988,0.0
985,-0.05973589053354572,-0.05613656608234022,77.07998172790577,0.0
986,-0.08163845615895324,-0.07586459108067031,76.98854775407489,0.0
987,-0.10798095014556428,-0.10139100924339267,76.89626911784794,0.0
988,-0.13553833955872704,-0.12918918720468675,76.80332720679382,0.0
989,-0.16128600402348728,-0.15586321378763265,76.7099017425396,0.0
990,-0.1829890432827148,-0.178858067092686,76.61617075919257,0.0
991,-0.19960225672361057,-0.19679555515053312,76.52231059025176,0.0
992,-0.2112728608718063,-0.20945959433570047,76.42849586380531,0.0
993,-0.21896966925185707,-0.21753471976435382,76.3348995058093,0.0
994,-0.22392558311933247,-0.22223478715309752,76.24169275124477,0.0
995,-0.22723736020605922,-0.2249448882890093,76.14904516295121,0.0
996,-0.22983545027744623,-0.22695181832335107,76.05712465793954,0.0
997,-0.2325566470577688,-0.2292806424829414,75.96609754099221,0.0
998,-0.23596768138478472,-0.23261075596691136,75.8761285453649,0.0
999,-0.24011025784606177,-0.2372275876440168,75.78738088041148,0.0
1000,-0.24458697338114824,-0.24297715521097915,75.70001628596391,0.0
1001,-0.2489606534161502,-0.24922522337291855,75.61419509330743,0.0
1002,-0.2530108769016745,-0.25487085045566094,75.53007629260391,0.0
1003,-0.25657727363648863,-0.2585035817634821,75.44781760662735,0.0
1004,-0.2591894389751499,-0.258788908424787,75.36757557068931,0.0
1005,-0.25989862370275263,-0.25508635151500547,75.28950561864596,0.0
1006,-0.25765533790939465,-0.24815209464815313,75.21376217489359,0.0
1007,-0.25234296174447945,-0.24061271969196107,75.14049875227508,0.0
1008,-0.24606929719789716,-0.23682130269448914,75.06986805583705,0.0
1009,-0.2437093424567713,-0.24181868165037007,75.00202209239511,0.0
1010,-0.25165340133745784,-0.2594440698588479,74.93711228588266,0.0
1011,-0.27460084312566235,-0.2900748348630817,74.8752895984792,0.0
1012,-0.311614257930767,-0.3288288514269483,74.81670465753334,0.0
1013,-0.35357078898050465,-0.3651246707546326,74.76150788831815,0.0
1014,-0.3837893731610352,-0.3841589503610383,74.70984965267783,0.0
1015,-0.3820843340849067,-0.37020341782662025,74.66188039364869,0.0
1016,-0.33091564134532103,-0.3108908510659236,74.61775078616148,0.0
1017,-0.22155828227286695,-0.20116335644987995,74.57761189395757,0.0
1018,-0.058124751849571096,-0.04553323699353097,74.54161533287841,0.0
1019,0.14234344396962234,0.14219475921072466,74.50991344071556,0.0
1020,0.35419136826326536,0.3417436332500341,74.48265945383798,0.0
1021,0.5503078897680312,0.5308625901350263,74.46000769084442,0.0
1022,0.7091036126599529,0.6900944080539769,74.44211374352082,0.0
1023,0.8185822495419314,0.8063852526363409,74.42913467541767,0.0
1024,0.8767238907997087,0.8746006928732984,74.4212292283981,0.0
1025,0.8893130518994811,0.8967872833860842,74.41855803754578,1.0
1026,0.8665416340263946,0.8797713218856592,74.41855803754578,0.0
1027,0.8190397773455647,0.832151252582827,74.41855803754578,0.0
1028,0.7543437099519301,0.7617844247534133,74.41855803754578,0.0
1029,0.6755305738102688,0.6745170484308466,74.41855803754578,0.0
1030,0.5828039623723672,0.5743217943844425,74.41855803754578,0.0
1031,0.47664209456355794,0.46443293042216843,74.41855803754578,0.0
1032,0.3602064333655647,0.34872808908022124,74.41855803754578,0.0
1033,0.2398873820742166,0.23260763516207977,74.41855803754578,0.0
1034,0.12437516410226061,0.12292267107120369,74.41855803754578,0.0
1035,0.022987726301519212,0.026944722557524003,74.41855803754578,0.0
1036,-0.056354407464578066,-0.049229458324910075,74.41855803754578,0.0
1037,-0.10916746226255677,-0.10222485026020223,74.41855803754578,0.0
1038,-0.13582174827459761,-0.13229539328019663,74.41855803754578,0.0
1039,-0.14157591116639945,-0.1432399493284274,74.41855803754578,0.0
1040,-0.13492016222354614,-0.1413385449160258,74.41855803754578,0.0
1041,-0.12482523464493922,-0.13366869555044764,74.41855803754578,0.0
1042,-0.11813752482327154,-0.1263634075281908,74.41855803754578,0.0
1043,-0.11817567740688742,-0.1233569180734291,74.41855803754578,0.0
1044,-0.12480521280287407,-0.12595164494761119,74.41855803754578,0.0
1045,-0.13556426565976062,-0.13322825420754236,74.41855803754578,0.0
1046,-0.14718190996798322,-0.14303684059716149,74.41855803754578,0.0
1047,-0.15698725412802267,-0.15315059933236028,74.41855803754578,0.0
1048,-0.16391464739659656,-0.16217288765631058,74.41855803754578,0.0
1049,-0.1688445513180739,-0.169938650176778,74.41855803754578,0.0
1050,-0.17406485334004557,-0.17737007019784773,74.41855803754578,0.0
1051,-0.18203253121026575,-0.18594496494745472,74.41855803754578,0.0
1052,-0.19413838097584188,-0.19704146675909293,74.41855803754578,0.0
1053,-0.21019106653060798,-0.21140586131352113,74.41855803754578,0.0
1054,-0.22878831303127362,-0.22888185977373146,74.41855803754578,0.0
1055,-0.24818965336554208,-0.2484096478690962,74.41855803754578,0.0
1056,-0.2670595909622848,-0.26822130517336884,74.41855803754578,0.0
1057,-0.2845023648590607,-0.2861518955665727,74.41855803754578,0.0
1058,-0.2993320498032991,-0.3000221897116909,74.41855803754578,0.0
1059,-0.30944065055480646,-0.3080699657955992,74.41855803754578,0.0
1060,-0.3123528835188428,-0.3093756403293412,74.41855803754578,0.0
1061,-0.3068452200479594,-0.304167515721239,74.41855803754578,0.0
1062,-0.2942323168182792,-0.29386958720255196,74.41855803754578,0.0
1063,-0.27820588445501293,-0.2808228650917312,74.41855803754578,0.0
1064,-0.2633920807555043,-0.2677531248844263,74.41855803754578,0.0
1065,-0.25364824088370186,-0.25719064043211315,74.41855803754578,0.0
1066,-0.2510151550795109,-0.2510774766066484,74.41855803754578,0.0
1067,-0.2555209175246247,-0.25068758105897015,74.41855803754578,0.0
1068,-0.26557779246995944,-0.25678041740505997,74.41855803754578,0.0
1069,-0.278875537248376,-0.2697200417160706,74.41855803754578,0.0
1070,-0.293628060832951,-0.28924023172219576,74.41855803754578,0.0
1071,-0.3093282293203342,-0.31369523998815757,74.41855803754578,0.0
1072,-0.3258630217888451,-0.33897575096257915,74.41855803754578,0.0
1073,-0.34088945969074924,-0.35764172063489275,74.41855803754578,0.0
1074,-0.34700071702238844,-0.3590066793972734,74.41855803754578,0.0
1075,-0.3309662697747659,-0.33072181470445605,74.41855803754578,0.0
1076,-0.2766334776131331,-0.2618403129059096,74.41855803754578,0.0
1077,-0.17119022104207982,-0.14660220589744216,74.41855803754578,0.0
1078,-0.012218662453105517,0.012375726282792321,74.41855803754578,0.0
1079,0.18823647245231,0.20286698979704387,74.41855803754578,0.0
1080,0.405244075803437,0.4045556586725312,74.41855803754578,0.0
1081,0.607814264441504,0.5931274379320501,74.41855803754578,0.0
1082,0.7677413966560768,0.7457713559097016,74.41855803754578,0.0
1083,0.8667000837362814,0.8463767591130843,74.41855803754578,0.0
1084,0.8996588207351751,0.8888030901574724,74.41855803754578,1.0
1085,0.8746027443154614,0.8772840524946695,74.41438339461423,0.0
1086,0.8089441865015993,0.8240185213096278,74.40201118633692,0.0
1087,0.7232494263226015,0.7449206205486447,74.3816728323752,0.0
1088,0.6344372578028974,0.6550251293739066,74.35360447325007,0.0
1089,0.5515936715245484,0.5650102687804994,74.31804647937156,0.0
1090,0.4759664337795299,0.4797649318980608,74.27524296869672,0.0
1091,0.40391269469604735,0.3991353120743608,74.2254413344496,0.0
1092,0.3304303763366785,0.32025041575515373,74.16889178422302,0.0
1093,0.2519045433188225,0.24039037015318845,74.10584689166731,0.0
1094,0.1679539521937291,0.15931753234065565,74.03656116185618,0.0
1095,0.08248014373387969,0.08028839037364646,73.9612906113043,0.0
1096,0.0035102895975294146,0.009472679541381285,73.88029236349763,0.0
1097,-0.05882152872866295,-0.045936505428034374,73.79382426068577,0.0
1098,-0.0959605742989687,-0.08019644130322268,73.70214449257574,0.0
1099,-0.10466595496047734,-0.09116253699501498,73.6055112424614,0.0
1100,-0.08877020395230709,-0.08134098415365829,73.50418235121951,0.0
1101,-0.05803758155209798,-0.057493485564903773,73.3984149995065,0.0
1102,-0.02478368320344021,-0.02896735991213012,73.28846540839606,0.0
1103,6.796459231878105e-06,-0.005347815318147764,73.17458855860983,0.0
1104,0.009330723965973814,0.005806049625946955,73.05703792841047,0.0
1105,0.0008924251753431589,0.0005018379734099687,72.93606525014918,0.0
1106,-0.023660817315577565,-0.021197593918871008,72.81192028538771,0.0
1107,-0.06014255395839077,-0.055719533100177604,72.68485061844927,0.0
1108,-0.10313861573441202,-0.09728404299089216,72.55510146819219,0.0
1109,-0.14687394672091617,-0.13956197171723173,72.42291551774616,0.0
1110,-0.18588839261262305,-0.17727117048224159,72.28853276190156,0.0
1111,-0.21608883551461922,-0.20734414431229273,72.15219037179995,0.0
1112,-0.23613591512963586,-0.2293967333616773,72.01412257653512,0.0
1113,-0.2481376523447974,-0.24537978575627417,71.874560561243,0.0
1114,-0.2566838190069232,-0.25850806643544727,71.73373238123042,0.0
1115,-0.26656952936209,-0.2717917323936312,71.59186289167077,0.0
1116,-0.28056423422279,-0.2866601308551212,71.44917369237723,0.0
1117,-0.2982474361471515,-0.30218063678448936,71.30588308715099,0.0
1118,-0.31605546525098493,-0.3152047760098047,71.16220605719259,0.0
1119,-0.3283188211022989,-0.32146206376379804,71.01835424806023,0.0
1120,-0.32914179391089293,-0.31726959954606737,70.8745359696574,0.0
1121,-0.3148381029878139,-0.3012579570476184,70.73095620873411,0.0
1122,-0.2861271828380493,-0.27544229727795133,70.5878166533926,0.0
1123,-0.2489651825169542,-0.24514714432675577,70.4453157290956,0.0
1124,-0.21323509122856052,-0.21768839230547832,70.30364864568755,0.0
1125,-0.18946337180885867,-0.20019389998262127,70.16300745495246,0.0
1126,-0.18486608579582234,-0.1973146824021107,70.02358111824869,0.0
1127,-0.2006478123812313,-0.2096763286674156,69.88555558377828,0.0
1128,-0.2318169906039426,-0.23368470637980004,69.74911387307016,0.0
1129,-0.26928007110476004,-0.2628114203985945,69.61443617627666,0.0
1130,-0.30307665932525085,-0.2899287447522006,69.48169995590793,0.0
1131,-0.3256760666042926,-0.3098509890062834,69.35108005865277,0.0
1132,-0.3344036701454418,-0.3211224089507637,69.22274883496075,0.0
1133,-0.3321420499598715,-0.32631867634982525,69.09687626608857,0.0
1134,-0.32599353738871806,-0.33063386850549287,68.97363009834118,0.0
1135,-0.32431922092272397,-0.3391502968674751,68.85317598426842,0.0
1136,-0.33286937245369697,-0.35372733263606676,68.73567763060815,0.0
1137,-0.3509618483492215,-0.3706982930655987,68.62129695279788,0.0
1138,-0.36928615863609,-0.38040396028074847,68.51019423590947,0.0
1139,-0.3710309961836998,-0.36902182236216885,68.4025283018943,0.0
1140,-0.33671821150890996,-0.322337212908563,68.2984566830599,0.0
1141,-0.2511374740987262,-0.23033829774846054,68.19813580173397,0.0
1142,-0.10963092916104933,-0.09111262730776346,68.10172115610703,0.0
1143,0.07878772076798196,0.08733045251160682,68.00936751228136,0.0
1144,0.2928116951571019,0.288018757811632,67.92122910259121,0.0
1145,0.5044349731174455,0.48852413451291266,67.8374598302981,0.0
1146,0.6867552282600133,0.6659375960880747,67.75821348080397,0.0
1147,0.8207770139144016,0.8018027470972292,67.6836439395666,0.0
1148,0.8984529989403768,0.8856160940424402,67.61390541694331,0.0
1149,0.9215832393477984,0.9160671723588927,67.54915268023386,1.0
1150,0.8987224464562575,0.8999374233491885,67.48681552017953,0.0
1151,0.842451468823536,0.8492293130694379,67.42424675491684,0.0
1152,0.7672025342189305,0.7774913781283099,67.36148604206102,0.0
1153,0.6863261104595231,0.6964041926625667,67.29857275591597,0.0
1154,0.6084031232353725,0.6135263823334358,67.23554598613313,0.0
1155,0.5349891617374352,0.5317136785155605,67.17244453683692,0.0
1156,0.46182146845006256,0.4501926445816843,67.10930692620815,0.0
1157,0.38298815099907435,0.36673744665278774,67.04617138651679,0.0
1158,0.2954756779566964,0.28005460580453523,66.9830758645954,0.0
1159,0.20166132826675637,0.19147308828575316,66.92005802274494,0.0
1160,0.10886235668981531,0.1053692636350555,66.85715524006422,0.0
1161,0.026623386791738368,0.028274803104152008,66.79440461419496,0.0
1162,-0.036632857810537434,-0.03290810803393118,66.73184296347391,0.0
1163,-0.07599932498547102,-0.07290818842436442,66.66950682948394,0.0
1164,-0.09084073817760657,-0.08965361904209462,66.60743247999628,0.0
1165,-0.08428696844705943,-0.08498770466695318,66.54565591229577,0.0
1166,-0.06224103925389177,-0.06440796971141943,66.48421285688174,0.0
1167,-0.03235220431781505,-0.03595515640503788,66.4231387815368,0.0
1168,-0.002971495226603338,-0.008537774143132976,66.36246889575646,0.0
1169,0.01801300419841967,0.009939993751963638,66.30223815553224,0.0
1170,0.02445775545254747,0.014244888595402239,66.24248126848182,0.0
1171,0.013256867555968943,0.002882264011261959,66.18323269931939,0.0
1172,-0.014537337336226253,-0.02174778420245989,66.12452667565985,0.0
1173,-0.053268307597739234,-0.05422911417494755,66.06639719415105,0.0
1174,-0.0937892704022675,-0.08787111520758498,66.008878026928,0.0
1175,-0.1265993742772551,-0.11681889737889853,65.95200272838385,0.0
1176,-0.14595500917501633,-0.13783305648057806,65.89580464225239,0.0
1177,-0.15256647394685352,-0.15109177274053207,65.84031690899697,0.0
1178,-0.15294951391364592,-0.15971043266853616,65.78557247350186,0.0
1179,-0.15572810311452792,-0.1681827605823189,65.73160409306132,0.0
1180,-0.16723855840487126,-0.18038818925038336,65.67844434566285,0.0
1181,-0.18889133919563827,-0.1979685875176529,65.62612563856115,0.0
1182,-0.2171260638790535,-0.21968346171727882,65.57468021713937,0.0
1183,-0.24525140892349445,-0.2419140368908599,65.52414017405552,0.0
1184,-0.26612649337517813,-0.26001830416187877,65.47453745867094,0.0
1185,-0.27483643118472373,-0.26994690307324043,65.42590388675949,0.0
1186,-0.2704344305560876,-0.26951664647613627,65.37827115049566,0.0
1187,-0.25587012661651676,-0.2589714632703214,65.33167082872042,0.0
1188,-0.2360878872937536,-0.24079838047377813,65.2861343974842,0.0
1189,-0.2156485943256015,-0.21903502616076617,65.24169324086671,0.0
1190,-0.19763692761064788,-0.19839081899039576,65.19837866207371,0.0
1191,-0.1842272567374619,-0.18341239805526138,65.15622189481144,0.0
1192,-0.17763990469031343,-0.17776619882526265,65.11525411493965,0.0
1193,-0.18027073793827258,-0.18361996564291694,65.075506452405,0.0
1194,-0.19397450230642,-0.201141854697421,65.03701000345654,0.0
1195,-0.2190831687050646,-0.22825562271054078,64.9997958431463,0.0
1196,-0.2535539680033132,-0.26087864234818336,64.96389503811737,0.0
1197,-0.2926053434648058,-0.29381635913858783,64.92933865968367,0.0
1198,-0.3294185463272155,-0.32225566127544614,64.89615779720515,0.0
1199,-0.35724781074770906,-0.34346186680230745,64.8643835717631,0.0
1200,-0.37246328901407144,-0.3580049290432705,64.83404715014085,0.0
1201,-0.3771222146550687,-0.3698101322013553,64.80517975911556,0.0
1202,-0.37914420246093183,-0.38465628899351456,64.7778127000676,0.0
1203,-0.3889117034261711,-0.40736775052971697,64.75197736391422,0.0
1204,-0.41329621914224063,-0.43861875816461093,64.7277052463755,0.0
1205,-0.45010117312716835,-0.4726573950673777,64.70502796358042,0.0
1206,-0.4860662004123403,-0.4971151080565322,64.68397726802226,0.0
1207,-0.49983032706528707,-0.4953837882235943,64.66458506487285,0.0
1208,-0.4687234636246174,-0.45106698870499107,64.6468834286658,0.0
1209,-0.3765773436741521,-0.35314929250423777,64.63090462035994,0.0
1210,-0.2197594683905571,-0.20014674803905141,64.61668110479475,0.0
1211,-0.009571610990553897,-0.0017704715294952211,64.60424556855011,0.0
1212,0.22983124317491366,0.22254134891289057,64.5936309382242,0.0
1213,0.46752495646142445,0.4478042656674672,64.58487039914309,0.0
1214,0.6738374901703467,0.6490603651715128,64.57799741451788,0.0
1215,0.8274823645228041,0.8066144390204341,64.57304574506479,0.0
1216,0.9195783093517458,0.9094264946117467,64.57004946910536,0.0
1217,0.9535326606493382,0.955891609961958,64.56904300316472,1.0
1218,0.9410883797597833,0.9521818089963808,64.56970695304668,0.0
1219,0.8963723766125591,0.9090965025365548,64.57168485441908,0.0
1220,0.8308714073168539,0.8386848939344284,64.57495590134657,0.0
1221,0.7516243842613777,0.7516978318369679,64.57949943647738,0.0
1222,0.6625698685385849,0.6563654253628712,64.58529494279529,0.0
1223,0.5669774229791174,0.5583834289249531,64.59232203554465,0.0
1224,0.46893151915320214,0.4615984996817566,64.60056045432306,0.0
1225,0.37322980635322833,0.36881982335948044,64.60999005533766,0.0
1226,0.28430320128237097,0.28237774894674195,64.62059080382045,0.0
1227,0.20521096829434946,0.2043244562708337,64.6323427665985,0.0
1228,0.13739753653032272,0.1363717193318499,64.64522610481534,0.0
1229,0.0811887039099117,0.0797252287800215,64.65922106679976,0.0
1230,0.03648579282228115,0.03493640791852734,64.6743079810784,0.0
1231,0.0030511670972822036,0.0018240932551323308,64.69046724952909,0.0
1232,-0.019737506326356014,-0.02052572089296742,64.70767934067163,0.0
1233,-0.033193831239559185,-0.033683043909691984,64.72592478309318,0.0
1234,-0.03923539402696535,-0.03971527582241943,64.74518415900549,0.0
1235,-0.0400177798408374,-0.04094482578860209,64.76543809793145,0.0
1236,-0.037731034589122775,-0.039641652746717604,64.78666727051846,0.0
1237,-0.034640414830468785,-0.037704347209312594,64.80885238247652,0.0
1238,-0.032940897551435644,-0.036419208083958376,64.83197416863877,0.0
1239,-0.03413494915905721,-0.03640052982732164,64.85601338714284,0.0
1240,-0.03835355203424115,-0.03777970433125924,64.88095081373088,0.0
1241,-0.044403969344001426,-0.040614714725540374,64.906767236167,0.0
1242,-0.05082704630396334,-0.045364782379382226,64.93344344877045,0.0
1243,-0.057418387975374144,-0.053188107057976775,64.96096024706311,0.0
1244,-0.06623685745743779,-0.06584796950019177,64.9892984225305,0.0
1245,-0.08123058524456161,-0.08517507512216044,65.01843875749462,0.0
1246,-0.10628801756629735,-0.1122669847144441,65.04836202009834,0.0
1247,-0.14266200826384132,-0.14678047610468786,65.07904895940004,0.0
1248,-0.18746553413060896,-0.1866724309019675,65.11048030057812,0.0
1249,-0.23441957915643058,-0.2285454079734584,65.1426367402446,0.0
1250,-0.2764848267866801,-0.2684556255926168,65.17549894186766,0.0
1251,-0.30872906391878224,-0.30281598490826755,65.20904753130245,0.0
1252,-0.32984035368998377,-0.32901228818683553,65.2432630924303,0.0
1253,-0.3416724048333854,-0.3455574927118732,65.27812616290598,0.0
1254,-0.3471483254774922,-0.3519073447068948,65.31361723001316,0.0
1255,-0.3477518754167905,-0.34825766296203964,65.34971672662822,0.0
1256,-0.3424275202513129,-0.3356019611807647,65.38640502729253,0.0
1257,-0.3288795518486658,-0.31606141461632375,65.42366244439356,0.0
1258,-0.3064189432613389,-0.2931774629193591,65.46146922445539,0.0
1259,-0.27844564366426017,-0.2717118996843979,65.4998055445389,0.0
1260,-0.2528238490236454,-0.2566754029212769,65.53865150875252,0.0
1261,-0.23925268428034815,-0.25175292846458464,65.57798714487404,0.0
1262,-0.24433894426116987,-0.2577697937763254,65.61779240108446,0.0
1263,-0.26712258693895086,-0.27203533767707266,65.65804714281457,0.0
1264,-0.29839124658193406,-0.28912422419963846,65.69873114970558,0.0
1265,-0.32487205527272744,-0.30298499732143724,65.7398241126844,0.0
1266,-0.33595733887619184,-0.30953179649359763,65.78130563115516,0.0
1267,-0.3289913400940183,-0.3084881841564522,65.82315521030782,0.0
1268,-0.3102540880359618,-0.3034629960894828,65.86535225854541,0.0
1269,-0.2913345202189801,-0.2999886167404499,65.9078760850313,0.0
1270,-0.2829021844357722,-0.30220173818133556,65.95070589735762,0.0
1271,-0.28881462097328997,-0.30955122266885854,65.99382079933659,0.0
1272,-0.3028684956098495,-0.315045956212818,66.03719978891647,0.0
1273,-0.3092649789287979,-0.3060331556527641,66.08082175622333,0.0
1274,-0.2868815865343794,-0.26752633721939084,66.1246654817307,0.0
1275,-0.21646436551222342,-0.18707001154233216,66.16870963455865,0.0
1276,-0.08844428896268694,-0.05945563739465198,66.2129327709043,0.0
1277,0.09194297017980796,0.11042288056225374,66.25731333260522,0.0
1278,0.30477166906410846,0.30763816595704774,66.30182964583813,0.0
1279,0.5208507218284258,0.5102234360269506,66.34645991995438,0.0
1280,0.7101731658813639,0.6940552443107717,66.3911822464545,0.0
1281,0.8500179420158842,0.8380056479919835,66.43597459810356,0.0
1282,0.9295526970344314,0.9278295522130485,66.48081482818961,0.0
1283,0.9493894716954766,0.9579077388707125,66.52568066992728,1.0
1284,0.9172709149014439,0.9308405574761627,66.5731454530479,0.0
1285,0.8432763250466704,0.8555695392993456,66.62568275213395,0.0
1286,0.737525406285074,0.7449376553418379,66.68312142563332,0.0
1287,0.6104846738678971,0.6133982916177985,66.74529125031013,0.0
1288,0.47375325859237116,0.4751808713108836,66.8120226633236,0.0
1289,0.33969328607730753,0.34289310784211774,66.88314651357643,0.0
1290,0.2199119300119424,0.22643798050287262,66.95849382198232,0.0
1291,0.12331059171171156,0.13222021544499396,67.0378955503559,0.0
1292,0.054315580149766035,0.0627671757001525,67.12118237868056,0.0
1293,0.011964670504469893,0.016940971122515303,67.20818449055889,0.0
1294,-0.009399001300329224,-0.0091957366289242,67.2987313666985,0.0
1295,-0.01778769494794802,-0.021030543291914255,67.39265158633152,0.0
1296,-0.02064271957841282,-0.023958575203223142,67.4897726365106,0.0
1297,-0.022618909136071147,-0.022304402941096813,67.58992072926652,0.0
1298,-0.02483621578475076,-0.01892190525530263,67.69292062665389,0.0
1299,-0.025874852024079464,-0.015482500476296623,67.79859547375104,0.0
1300,-0.024171354100084586,-0.013150432151014024,67.90676663971878,0.0
1301,-0.0204536256961321,-0.013189441267379615,68.01725356705957,0.0
1302,-0.01845630906950299,-0.017137348512686293,68.12987362925418,0.0
1303,-0.023263781746032372,-0.02647581191919457,68.24444199698782,0.0
1304,-0.038414096925874636,-0.04204387282437426,68.36077151320994,0.0
1305,-0.06379123365534595,-0.06360414355638878,68.47867257730375,0.0
1306,-0.09568729075136653,-0.08987351472813657,68.59795303867136,0.0
1307,-0.12886205223084873,-0.11903791404967495,68.71841810006843,0.0
1308,-0.1592210344825866,-0.1494643621769492,68.83987023104926,0.0
1309,-0.18562544305815526,-0.18019168997476398,68.96210909190681,0.0
1310,-0.21000909706015916,-0.21090603389249013,69.08493146851585,0.0
1311,-0.23576400378546902,-0.2414183585771475,69.20813121850678,0.0
1312,-0.26507925242589797,-0.2709772800621966,69.33149922921577,0.0
1313,-0.29662367564723996,-0.29788077840169597,69.45482338787242,0.0
1314,-0.3252409399552517,-0.31970505022068557,69.57788856449815,0.0
1315,-0.34437459429453815,-0.33411820500769474,69.70047660799817,0.0
1316,-0.3499189273317886,-0.3398911159574965,69.82236635593567,0.0
1317,-0.34281311997480296,-0.33757206095119113,69.94333365848014,0.0
1318,-0.32848180633457724,-0.3294484513247119,70.06315141701953,0.0
1319,-0.3136297700188192,-0.31878565614752435,70.1815896379217,0.0
1320,-0.30284220772801274,-0.3086937789372232,70.29841550192074,0.0
1321,-0.2972583730625002,-0.3011322503251117,70.41339344958988,0.0
1322,-0.29553581121931405,-0.2964616965244522,70.52628528334391,0.0
1323,-0.295554381062951,-0.2936838935166558,70.63685028639073,0.0
1324,-0.2954658173822997,-0.2912257028067412,70.74484535902263,0.0
1325,-0.2940087799923201,-0.287933429733766,70.85002517260365,0.0
1326,-0.2907488361265276,-0.28388341126871336,70.95214234156964,0.0
1327,-0.2865018677772042,-0.2806666110741379,71.0509476137128,0.0
1328,-0.28347603348158634,-0.2809467400065082,71.1461900789702,0.0
1329,-0.28459682398277897,-0.28730519886292616,71.23761739688,0.0
1330,-0.292067760306198,-0.3006406423344258,71.3249760428046,0.0
1331,-0.3057036923254851,-0.3186230738924205,71.4080115729527,0.0
1332,-0.3214721825722569,-0.33482278245686137,71.48646890815621,0.0
1333,-0.3305632093929518,-0.3390578693599027,71.56009263627786,0.0
1334,-0.31981626487792975,-0.319193394275267,71.62862733303994,0.0
1335,-0.2745416176999087,-0.26413354815743684,71.69181790097241,0.0
1336,-0.18352482677195456,-0.16723443087149178,71.74940992608312,0.0
1337,-0.044198503470378375,-0.029050716762981876,71.80115005175128,0.0
1338,0.13454760031915652,0.14160170288994556,71.84678636924137,0.0
1339,0.3333928566789866,0.328798226215985,71.88606882412462,0.0
1340,0.5273661611239835,0.5126597513771648,71.91874963778491,0.0
1341,0.6927470236531121,0.6735900315240226,71.9445837430713,0.0
1342,0.8132107574036747,0.7963076903512255,71.96332923304395,0.0
1343,0.8825422042275317,0.8724982836495572,71.97474782164417,0.0
1344,0.9033576476123778,0.9014402292457874,71.97860531500329,1.0
1345,0.8837073194130756,0.8886614355920816,71.97860531500329,0.0
1346,0.8339348139404376,0.8432841610661187,71.97860531500329,0.0
1347,0.7645198681372882,0.7750301863688128,71.97860531500329,0.0
1348,0.6841773209655647,0.6918418602422136,71.97860531500329,0.0
1349,0.5979978949667515,0.5987817659919998,71.97860531500329,0.0
1350,0.5067236691341973,0.4984026856128803,71.97860531500329,0.0
1351,0.40829721068396296,0.3922538691746821,71.97860531500329,0.0
1352,0.301352280512471,0.28276568947440134,71.97860531500329,0.0
1353,0.1887949009262936,0.17459820634738205,71.97860531500329,0.0
1354,0.07929698597601739,0.0747499005859179,71.97860531500329,0.0
1355,-0.014564689556142402,-0.008746597776993187,71.97860531500329,0.0
1356,-0.0809701442602449,-0.06907576577445348,71.97860531500329,0.0
1357,-0.11388771102749917,-0.10291475497470681,71.97860531500329,0.0
1358,-0.11569357204297015,-0.11175967485394461,71.97860531500329,0.0
1359,-0.09616682740706936,-0.10171449124542503,71.97860531500329,0.0
1360,-0.06868044812081495,-0.08179385178767051,71.97860531500329,0.0
1361,-0.04555185949460974,-0.0613865056409747,71.97860531500329,0.0
1362,-0.03455513914562752,-0.04781835557348213,71.97860531500329,0.0
1363,-0.03771717129851887,-0.044843983652456926,71.97860531500329,0.0
1364,-0.05222824032472821,-0.05246936960085857,71.97860531500329,0.0
1365,-0.07260395121292691,-0.06797493291510102,71.97860531500329,0.0
1366,-0.09333614697921318,-0.08759069854020403,71.97860531500329,0.0
1367,-0.11122459921211689,-0.10812139255172529,71.97860531500329,0.0
1368,-0.12635265556487105,-0.12795369322184655,71.97860531500329,0.0
1369,-0.14125225574702663,-0.14720906886897975,71.97860531500329,0.0
1370,-0.15902404707271797,-0.16717312218124394,71.97860531500329,0.0
1371,-0.181699058520244,-0.18938062731740934,71.97860531500329,0.0
1372,-0.20949652418778067,-0.2147825076709246,71.97860531500329,0.0
1373,-0.24086025704860697,-0.24328601322636073,71.97860531500329,0.0
1374,-0.2730769204921146,-0.27373767752141226,71.97860531500329,0.0
1375,-0.3033588931521398,-0.3042259208849093,71.97860531500329,0.0
1376,-0.3298838216056634,-0.33249784446449865,71.97860531500329,0.0
1377,-0.35199416557303487,-0.3563272258037505,71.97860531500329,0.0
1378,-0.3693225583800865,-0.373783493914419,71.97860531500329,0.0
1379,-0.3806742970408044,-0.38344478570297624,71.97860531500329,0.0
1380,-0.38395591940052864,-0.38460586314569545,71.97860531500329,0.0
1381,-0.37752119732101314,-0.37745941782128867,71.97860531500329,0.0
1382,-0.36174940567694003,-0.3631515237315333,71.97860531500329,0.0
1383,-0.33937215745266247,-0.34361188407470294,71.97860531500329,0.0
1384,-0.3144133222196547,-0.3211588892922,71.97860531500329,0.0
1385,-0.2907446446591822,-0.298018016078347,71.97860531500329,0.0
1386,-0.2709968287246481,-0.2759706452380193,71.97860531500329,0.0
1387,-0.25590977398531356,-0.25629978332109893,71.97860531500329,0.0
1388,-0.2443292421128248,-0.24002567902940833,71.97860531500329,0.0
1389,-0.23431559337739744,-0.22821272624612762,71.97860531500329,0.0
1390,-0.22505864560746972,-0.22200747425716139,71.97860531500329,0.0
1391,-0.2180773845692122,-0.2221424820115229,71.97860531500329,0.0
1392,-0.21617762230008128,-0.22792324370370007,71.97860531500329,0.0
1393,-0.220310057875807,-0.2360847033568344,71.97860531500329,0.0
1394,-0.22636952366493646,-0.24015216849650173,71.97860531500329,0.0
1395,-0.22430245253358325,-0.23089170192506886,71.97860531500329,0.0
1396,-0.20048019035380837,-0.19805886687921237,71.97860531500329,0.0
1397,-0.14237201928499507,-0.13310522452402077,71.97860531500329,0.0
1398,-0.04337032489996899,-0.032035678906286,71.97860531500329,0.0
1399,0.09421965695762752,0.10255200916806695,71.97860531500329,0.0
1400,0.25897994550540626,0.26099658553103144,71.97860531500329,0.0
1401,0.43285271414375937,0.42792211552168946,71.97860531500329,0.0
1402,0.5952921753136977,0.5850797101773495,71.97860531500329,0.0
1403,0.7275889552137583,0.7149149534923621,71.97860531500329,0.0
1404,0.8161190052718036,0.8039223828397648,71.97860531500329,0.0
1405,0.8541557892879333,0.8449646633828573,71.97860531500329,1.0
1406,0.8424872661116495,0.8380642559530881,71.97769433079164,0.0
1407,0.7887958014188485,0.7896027643337917,71.97500112103008,0.0
1408,0.7054187820883988,0.7102695108524639,71.97058548529304,0.0
1409,0.6058412772040518,0.6123864497793756,71.96450744704165,0.0
1410,0.5014614014509435,0.5073339351954352,71.95682722547464,0.0
1411,0.40008859183093937,0.40369628064465835,71.94760520831571,0.0
1412,0.3060866550651127,0.30648609621585143,71.93690192555485,0.0
1413,0.22099537722161533,0.2174830272333553,71.92477802415968,0.0
1414,0.14406555769727092,0.13642486564251147,71.91129424377061,0.0
1415,0.07317414830758084,0.06257579777684295,71.89651139339242,0.0
1416,0.006580275121078782,-0.0038958577787289173,71.88049032909252,0.0
1417,-0.055001707467587035,-0.06123687455829199,71.86329193271554,0.0
1418,-0.1074302346180373,-0.10639831682100451,71.84497709162099,0.0
1419,-0.14437075203229727,-0.13619959761675826,71.82560667945094,0.0
1420,-0.16042311943975723,-0.14889145322368463,71.8052415379314,0.0
1421,-0.1545280369708264,-0.14542227693702536,71.78394245971171,0.0
1422,-0.13167579063256735,-0.12978856135085604,71.76177017224326,0.0
1423,-0.10171430187255638,-0.10822469783295388,71.73878532269876,0.0
1424,-0.07569530160466947,-0.08750336093076629,71.71504846393188,0.0
1425,-0.06165166086505951,-0.07302831340048252,71.69062004147598,0.0
1426,-0.061957381110848544,-0.06749968520966507,71.66556038157968,0.0
1427,-0.07342138440663755,-0.07066485180171266,71.63992968027631,0.0
1428,-0.08971791380580803,-0.08016757104697875,71.61378799348321,0.0
1429,-0.10471289797245759,-0.09301969243770862,71.58719522812665,0.0
1430,-0.11522700952842543,-0.1069763367280262,71.56021113428649,0.0
1431,-0.12223890756319575,-0.12120389856863986,71.53289529835547,0.0
1432,-0.12993869043982803,-0.1360253634534888,71.50530713720623,0.0
1433,-0.14282053790706237,-0.15200668225216396,71.4775058933596,0.0
1434,-0.16237349154828695,-0.16896904384064548,71.44955063114689,0.0
1435,-0.1856073378401578,-0.18551371770542402,71.42150023385878,0.0
1436,-0.20644236007446318,-0.1993360144133871,71.39341340187318,0.0
1437,-0.21891581279119735,-0.20815836330699092,71.36534865175436,0.0
1438,-0.22017959651356475,-0.21077566078576504,71.33736431631515,0.0
1439,-0.21178246120056748,-0.20765604073007923,71.30951854563483,0.0
1440,-0.19880057097096923,-0.20078987609838053,71.28186930902419,0.0
1441,-0.18733488849848462,-0.1928802200501627,71.25447439793076,0.0
1442,-0.18158815237559858,-0.18629853057188825,71.22739142977605,0.0
1443,-0.18202460789274952,-0.18231987967968466,71.20067785271783,0.0
1444,-0.1857332461952547,-0.1809700821654483,71.17439095133028,0.0
1445,-0.18889676609988124,-0.18148156633713158,71.14858785319547,0.0
1446,-0.18971485036323105,-0.18306071232178897,71.12332553639982,0.0
1447,-0.18964042928972202,-0.18557036049938164,71.09866083793001,0.0
1448,-0.1922032701966514,-0.1898472596763615,71.07465046296291,0.0
1449,-0.20068146635228204,-0.1975913073973198,71.05135099504503,0.0
1450,-0.2164782620642043,-0.21092617954292525,71.02881890715763,0.0
1451,-0.23910242414891134,-0.23175853685906075,71.0071105736643,0.0
1452,-0.2672278297929763,-0.2609992473653696,70.9862822831383,0.0
1453,-0.29945294921547705,-0.2976736914524523,70.96639025206834,0.0
1454,-0.33376861113908357,-0.33802799107191206,70.94749063944208,0.0
1455,-0.36609216582408666,-0.37491492493255474,70.92963956220727,0.0
1456,-0.3890549930646511,-0.3978940118601409,70.91289311161219,0.0
1457,-0.39174615178015837,-0.3944531538192289,70.89730737042726,0.0
1458,-0.3607025193486892,-0.35247078114619634,70.88293843105153,0.0
1459,-0.2829322751951431,-0.26353788520156707,70.8698424145086,0.0
1460,-0.15126778348713818,-0.1262397422659025,70.85807549033758,0.0
1461,0.030082027847025128,0.051776270178517964,70.84769389738658,0.0
1462,0.24347546009066962,0.25393754620040687,70.8387539655168,0.0
1463,0.4611931242240802,0.4574242672741592,70.83131213822764,0.0
1464,0.6527640334140191,0.6378278580041522,70.82542499621383,0.0
1465,0.793105764380391,0.7744668321851762,70.82114928186782,0.0
1466,0.8686374501788883,0.8547463467582599,70.81854192474201,0.0
1467,0.8794926582901619,0.8762579520730064,70.8176600679871,1.0
1468,0.8373110692828839,0.8460953503933575,70.81958674569468,0.0
1469,0.7599224123358028,0.7777926185218056,70.82530241203709,0.0
1470,0.665462161425991,0.6870199999563833,70.83471138229417,0.0
1471,0.5680400806015697,0.5874586173617842,70.84771904487069,0.0
1472,0.4755887794699114,0.488069460559025,70.86423176309637,0.0
1473,0.38954371328998416,0.39239795180407977,70.88415678027002,0.0
1474,0.30621219252559145,0.2998338240182637,70.90740212780703,0.0
1475,0.21991771760014955,0.20811184561542856,70.93387653636096,0.0
1476,0.12714371085751122,0.11598434951846705,70.96348934980067,0.0
1477,0.029747374385187125,0.025029230894312776,70.99615044193482,0.0
1478,-0.06457370562343179,-0.06003873984790897,71.03177013588486,0.0
1479,-0.14487296791821036,-0.1325642467114923,71.07025912601723,0.0
1480,-0.2012880855572845,-0.18607774554963177,71.11152840235458,0.0
1481,-0.22900003363323299,-0.2164585868023524,71.1554891773937,0.0
1482,-0.22985704428005427,-0.22331491296732325,71.20205281526671,0.0
1483,-0.21091995447938888,-0.2101546267880707,71.25113076318932,0.0
1484,-0.1811395910485666,-0.18342648450423488,71.30263448514806,0.0
1485,-0.14849480582296934,-0.1508906452032789,71.35647539778483,0.0
1486,-0.11894218626326605,-0.11990045445249278,71.41256480844505,0.0
1487,-0.09660883436213677,-0.09606185336561139,71.4708138553617,0.0
1488,-0.08401054130305875,-0.08250795496355243,71.53113344995404,0.0
1489,-0.08191457450313916,-0.07981294309874186,71.59343422122676,0.0
1490,-0.08923257359914787,-0.08643403872082214,71.65762646226035,0.0
1491,-0.10330563122754532,-0.09950587847604009,71.72362007879008,0.0
1492,-0.12064689966164949,-0.11578401746946257,71.79132453987604,0.0
1493,-0.1379581946560749,-0.13252289973911657,71.86064883067289,0.0
1494,-0.15302737550611156,-0.14808458256065124,71.93150140731186,0.0
1495,-0.16518573268414155,-0.16212726631147467,72.00379015391435,0.0
1496,-0.17533371543131893,-0.17532820966504326,72.07742234175961,0.0
1497,-0.18556420747988486,-0.1887400969126085,72.15230459063464,0.0
1498,-0.1981674898745862,-0.20302058570402293,72.22834283239881,0.0
1499,-0.21408401343521807,-0.21784948185242986,72.3054422767995,0.0
1500,-0.23167214875140676,-0.2318016209883769,72.38350737957964,0.0
1501,-0.2469160142993468,-0.2427662870300207,72.46244181292124,0.0
1502,-0.25530452399353165,-0.2487583049614812,72.54214843827351,0.0
1503,-0.2542908814407553,-0.2487707869430375,72.62252928161665,0.0
1504,-0.2447767941117493,-0.2432868173643094,72.70348551121602,0.0
1505,-0.23084021313972097,-0.23422825680946724,72.78491741792436,0.0
1506,-0.21805068525508708,-0.22439511097743955,72.86672439809242,0.0
1507,-0.21124493636339514,-0.21668853381320363,72.94880493915005,0.0
1508,-0.2126564240228625,-0.21347843641095138,73.03105660792323,0.0
1509,-0.22128552651033195,-0.21633032771648314,73.11337604175311,0.0
1510,-0.23405314302238822,-0.2260280414975158,73.19565894248518,0.0
1511,-0.2481622430797784,-0.24259186043376063,73.27780007339815,0.0
1512,-0.2628970977352004,-0.26496450097276536,73.35969325914226,0.0
1513,-0.27911201307206196,-0.2902776908273921,73.44123138875791,0.0
1514,-0.2963069186673578,-0.3130065708461851,73.52230642184526,0.0
1515,-0.3092731317690584,-0.32462919481316077,73.60280939795534,0.0
1516,-0.30697735500550183,-0.31440664507090943,73.68263044927254,0.0
1517,-0.27501009006078597,-0.2715168546899311,73.76165881665712,0.0
1518,-0.20070185509275207,-0.188159650827953,73.8397828691151,0.0
1519,-0.07857756220647373,-0.06269349168003409,73.91689012676083,0.0
1520,0.08614341518623206,0.09835338472272717,73.99286728733503,0.0
1521,0.27734107682666315,0.28030560036128405,74.06760025633825,0.0
1522,0.47118925220343966,0.4626696286215165,74.14097418083638,0.0
1523,0.6416077234047141,0.6232606782773948,74.21287348699069,0.0
1524,0.7661651374805893,0.7429852463362848,74.28318192136078,0.0
1525,0.8309850246560608,0.8098807860241274,74.35178259602353,0.0
1526,0.8337322234685508,0.8212280211419889,74.41855803754578,1.0
1527,0.7836502392298939,0.7831691118391715,74.48471952761236,0.0
1528,0.6979709710605556,0.7080805600881321,74.55154103861703,0.0
1529,0.5957897171503003,0.6106777698483525,74.61899860971211,0.0
1530,0.4921571410291391,0.5041985824190407,74.68706812203706,0.0
1531,0.39487315435811177,0.3978829031327097,74.75572529409692,0.0
1532,0.304751503675604,0.29639098005422343,74.82494567727629,0.0
1533,0.21852179498494767,0.2010225025681916,74.89470465149142,0.0
1534,0.13281103153038804,0.11192897797816072,74.96497742098279,0.0
1535,0.04760599905261939,0.030211163773922134,75.03573901025084,0.0
1536,-0.03218433397694895,-0.04104083664792532,75.10696426013766,0.0
1537,-0.09793287562975656,-0.09716956101589294,75.17862782405747,0.0
1538,-0.1408897355466007,-0.13357115350901114,75.25070416437897,0.0
1539,-0.15622297943874014,-0.14773883514259795,75.32316754896253,0.0
1540,-0.14526238618379644,-0.14079807683601203,75.39599204785573,0.0
1541,-0.11518118754114962,-0.11784561885296574,75.46915153015034,0.0
1542,-0.07685193722060588,-0.08691286467984269,75.5426196610044,0.0
1543,-0.04187469902350005,-0.05692217444550396,75.6163698988327,0.0
1544,-0.019526262822337923,-0.03537723943491912,75.69037549266966,0.0
1545,-0.014394391475499119,-0.026600177494500152,75.76460947970824,0.0
1546,-0.02551415964218043,-0.031091745022024414,75.83904468301846,0.0
1547,-0.047462405458241666,-0.046150085329288645,75.9136537094499,0.0
1548,-0.0730160846883834,-0.06741129949660536,75.98840894772204,0.0
1549,-0.09618881191341033,-0.09065479725021808,76.06328256670625,0.0
1550,-0.11439483607071954,-0.11317054272978203,76.1382465139041,0.0
1551,-0.12897536790560202,-0.13422468025711778,76.21327251412585,0.0
1552,-0.14386322436905644,-0.15457554732391313,76.28833206837362,0.0
1553,-0.16291571659883972,-0.1753988935026677,76.3633964529333,0.0
1554,-0.18734323613474613,-0.197199338725624,76.43843671868011,0.0
1555,-0.2147749929932299,-0.21922418591285667,76.51342369060177,0.0
1556,-0.24041902245978158,-0.23960071979189596,76.5883279675439,0.0
1557,-0.2593993174712027,-0.25604759221373624,76.66311992218236,0.0
1558,-0.2688598200507423,-0.26675270016831515,76.73776970122677,0.0
1559,-0.26894666423721325,-0.27098266724129955,76.8122472258599,0.0
1560,-0.2624846596795468,-0.2691854137095021,76.88652219241757,0.0
1561,-0.2535569917638528,-0.262646731995238,76.96056407331334,0.0
1562,-0.2455751296296694,-0.25299703597428236,77.03434211821273,0.0
1563,-0.23984448400428227,-0.24190648140828458,77.10782535546161,0.0
1564,-0.2355376734402128,-0.23113066634530577,77.18098259377281,0.0
1565,-0.2311857898971222,-0.22277285988815992,77.25378242417604,0.0
1566,-0.22675743189644748,-0.21938874094134803,77.32619322223475,0.0
1567,-0.2247577583423632,-0.22353889542582095,77.39818315053512,0.0
1568,-0.229216605499177,-0.23664587723776181,77.46972016145082,0.0
1569,-0.2428756120597268,-0.2574361782562367,77.54077200018806,0.0
1570,-0.2640604870369119,-0.28063011014275724,77.61130620811495,0.0
1571,-0.28480330582271807,-0.2966652680884535,77.68129012637938,0.0
1572,-0.29125749971955917,-0.29299037169218,77.75069089981896,0.0
1573,-0.26681144853041106,-0.2569048620140622,77.81947548116725,0.0
1574,-0.19737812444140698,-0.17926017800461844,77.88761063555965,0.0
1575,-0.07714203602010997,-0.057865351337235305,77.9550629453427,0.0
1576,0.08769687875822701,0.1006176854393808,78.02179881518981,0.0
1577,0.279121553680387,0.28108084022324686,78.0877844775271,0.0
1578,0.47158754019126337,0.46271233258843325,78.1529859982719,0.0
1579,0.6385877062736138,0.6233126787494662,78.21736928288725,0.0
1580,0.7589492120378739,0.7439045774430706,78.28090008275429,0.0
1581,0.8210417241444669,0.81231169156582,78.34354400186591,0.0
1582,0.8240791631357275,0.8248014577906212,78.40526650384287,1.0
1583,0.7763508113446385,0.7855833032681708,78.46716334030963,0.0
1584,0.691111559822998,0.7046441601274342,78.53029887751619,0.0
1585,0.5820502703007218,0.5948331103126141,78.59459107228062,0.0
1586,0.4605009950523188,0.46915091312166846,78.65995742323817,0.0
1587,0.33510796033150503,0.33890540212013553,78.72631494585372,0.0
1588,0.21279569441310459,0.21294020742245334,78.79358014907447,0.0
1589,0.09950373873302819,0.09774001521835296,78.86166901364575,0.0
1590,0.00016485459643275635,-0.0020066777901226185,78.93049697211504,0.0
1591,-0.08160224052771636,-0.0828274261788042,78.99997889055199,0.0
1592,-0.1434428988608622,-0.14218620008644464,79.07002905201284,0.0
1593,-0.1837817759384296,-0.17862897276785838,79.14056114178058,0.0
1594,-0.20158360528921754,-0.19226894211702597,79.2114882344125,0.0
1595,-0.19710320232350428,-0.18534384113986632,79.28272278262955,0.0
1596,-0.17336819960925187,-0.16248182549585805,79.35417660808153,0.0
1597,-0.1370699157179922,-0.13036195831696687,79.42576089402512,0.0
1598,-0.09771268833519167,-0.09666695423944537,79.49738617995051,0.0
1599,-0.06512654246127611,-0.06853433114137535,79.56896235819508,0.0
1600,-0.046520355634321206,-0.05098196538770922,79.64039867258198,0.0
1601,-0.04443415371466096,-0.04587544299359708,79.71160371912214,0.0
1602,-0.05640746506163162,-0.05185158203452192,79.78248544881825,0.0
1603,-0.07640181395165471,-0.06526303785031716,79.85295117260972,0.0
1604,-0.09738412415330698,-0.08180547215697595,79.92290756849668,0.0
1605,-0.11409579944587475,-0.09820421637826751,79.9922606908813,0.0
1606,-0.12498456936500954,-0.1132995027753137,80.06091598216334,0.0
1607,-0.1326129984910354,-0.12810610601142755,80.12877828662658,0.0
1608,-0.14229967212909458,-0.1448476135074891,80.19575186665146,0.0
1609,-0.1592617881897829,-0.16540510246015655,80.2617404212873,0.0
1610,-0.18540081193670152,-0.18988351777234133,80.32664710721686,0.0
1611,-0.21753177951576258,-0.2159602823361453,80.39037456214318,0.0
1612,-0.24827321691290774,-0.23934525962671951,80.45282493062713,0.0
1613,-0.26922893515967117,-0.2551965249642909,80.51389989240118,0.0
1614,-0.2747421938465503,-0.25992577830382435,80.57350069318267,0.0
1615,-0.2642847098490103,-0.25267627177837587,80.63152817800666,0.0
1616,-0.24252483227857569,-0.23591716733782186,80.68788282709527,0.0
1617,-0.21745127116108845,-0.21497082256397065,80.74246479427667,0.0
1618,-0.19764044677774023,-0.1966852687778221,80.79517394796387,0.0
1619,-0.18978058719887247,-0.1877115202161315,80.84590991469817,0.0
1620,-0.19723486063992435,-0.1928715210891426,80.89457212525895,0.0
1621,-0.21981022257849364,-0.21395286196217034,80.94105986333635,0.0
1622,-0.25427119974533574,-0.24906096160898636,80.98527231675827,0.0
1623,-0.2949899899548224,-0.29251761784161867,81.02710863125847,0.0
1624,-0.33442085441861813,-0.3352702116683189,81.06646796676687,0.0
1625,-0.3633791397168854,-0.365833116227837,81.1032495561974,0.0
1626,-0.37133628135194574,-0.37182512277666435,81.13735276670309,0.0
1627,-0.3472536949456837,-0.34209680528830383,81.16867716336166,0.0
1628,-0.28155674442989875,-0.2692279440622723,81.1971225752487,0.0
1629,-0.1693147427920905,-0.15188762303487577,81.22258916384882,0.0
1630,-0.013679766694306317,0.003657800487197632,81.24497749374879,0.0
1631,0.17224782817338558,0.18356920373176205,81.2641886055486,0.0
1632,0.36679534229085553,0.36832506355105654,81.28012409092092,0.0
1633,0.5443888005255292,0.5362351928243408,81.29268616974093,0.0
1634,0.681711352816109,0.6677480635455905,81.30177776920137,0.0
1635,0.7630863840993414,0.7493743197003099,81.30730260482072,0.0
1636,0.7836197388682018,0.7761039410638464,81.30916526324445,1.0
1637,0.7494287838341078,0.7516510289850187,81.30769010911499,0.0
1638,0.6749075310190937,0.6865566761174302,81.30333735893868,0.0
1639,0.5778680852437739,0.5948616747899607,81.29621650449242,0.0
1640,0.4742912851918685,0.49047704070999776,81.28643754183142,0.0
1641,0.3746558580332771,0.38438283686620955,81.27411089813549,0.0
1642,0.2830310051782148,0.283386486644427,81.25934736133097,0.0
1643,0.1987384091919322,0.19053892414664905,81.24225801255187,0.0
1644,0.11939799568996734,0.10669475144314716,81.22295416149595,0.0
1645,0.04397667845264025,0.03234524882544129,81.20154728472436,0.0
1646,-0.025350322585489582,-0.031128367388626427,81.17814896694586,0.0
1647,-0.08334754328910443,-0.08127407718465188,81.15287084532014,0.0
1648,-0.12379884117223275,-0.11542100659472465,81.12582455680803,0.0
1649,-0.14235838621742586,-0.13205158470244335,81.09712168859029,0.0
1650,-0.138826737067173,-0.1319651571090782,81.06687373157068,0.0
1651,-0.1180609343096573,-0.11862802327442769,81.0351920369737,0.0
1652,-0.08902193200142627,-0.09750341066438031,81.002187776042,0.0
1653,-0.06183223497980178,-0.07464181095335479,80.96797190283381,0.0
1654,-0.043935105638165176,-0.055156786367229343,80.93265512011617,0.0
1655,-0.03754021981180148,-0.042243627013942325,80.89634784834581,0.0
1656,-0.03998776406932055,-0.037099270402224535,80.85916019772577,0.0
1657,-0.046736030838881004,-0.039627843473820604,80.8212019433222,0.0
1658,-0.054978456246198945,-0.0494233539926211,80.78258250322345,0.0
1659,-0.06562090037125715,-0.06642327118242458,80.74341091972025,0.0
1660,-0.08254432307371525,-0.09087023085560234,80.70379584348386,0.0
1661,-0.10977805141854094,-0.12265572770320188,80.66384552071708,0.0
1662,-0.1483147785240754,-0.16049587228202053,80.62366778325146,0.0
1663,-0.19442593873842745,-0.20149466934071103,80.58337004156282,0.0
1664,-0.24056856287239287,-0.24143597851264942,80.54305928067613,0.0
1665,-0.2784851769588189,-0.2757453407696173,80.50284205893057,0.0
1666,-0.3026671986230834,-0.30070926775837187,80.46282450957499,0.0
1667,-0.312158883225253,-0.3144241027891264,80.42311234516433,0.0
1668,-0.30991571974140775,-0.31711238631612126,80.38381086472776,0.0
1669,-0.30055764192034307,-0.31077373801253944,80.34502496368029,0.0
1670,-0.28819404779822466,-0.29843521923826766,80.3068591464501,0.0
1671,-0.27553908578511577,-0.2833829725114031,80.26941754179565,0.0
1672,-0.26427394887653266,-0.2686634572133534,80.23280392078796,0.0
1673,-0.25570738495177003,-0.25692256407136743,80.19712171743525,0.0
1674,-0.25098220537197297,-0.2504324103418435,80.16247405192935,0.0
1675,-0.25095193403904714,-0.25104052258884413,80.12896375649589,0.0
1676,-0.2562039135253719,-0.2598083187297593,80.09669340383257,0.0
1677,-0.267054644175338,-0.2762743519040998,80.06576533812317,0.0
1678,-0.28279805245887085,-0.2975260966343348,80.03628170861784,0.0
1679,-0.3000992415239333,-0.3174949876494258,80.00834450577412,0.0
1680,-0.31154838314337435,-0.32698488968385364,79.98205559995628,0.0
1681,-0.3057442441480239,-0.31481483432718194,79.9575167826955,0.0
1682,-0.26955746301304506,-0.2701016664718864,79.93482981051652,0.0
1683,-0.19206535801980953,-0.18523974854755576,79.91409645134229,0.0
1684,-0.06880133241007101,-0.05874289942927993,79.89541853349179,0.0
1685,0.09527030668766967,0.10301807664009249,79.87889799729233,0.0
1686,0.2853347333293306,0.28592964056075687,79.86463694933217,0.0
1687,0.4793132035392369,0.4703261976152331,79.85273771938586,0.0
1688,0.6526678932800419,0.6348268636598554,79.84330292005001,0.0
1689,0.7837950583007185,0.7608287618191603,79.83643550913428,0.0
1690,0.8586491129712956,0.8364031439235972,79.83223885485826,0.0
1691,0.8738126112958456,0.8584741306738467,79.83081680391274,1.0
1692,0.8370534930021664,0.832665311862068,79.83081680391274,0.0
1693,0.7644642571270914,0.7709259052532091,79.83081680391274,0.0
1694,0.6748176753761168,0.687755284063976,79.83081680391274,0.0
1695,0.5836194513933781,0.596277226834025,79.83081680391274,0.0
1696,0.4994109619698877,0.50540495969476,79.83081680391274,0.0
1697,0.423197269726709,0.41888507473860054,79.83081680391274,0.0
1698,0.3504131367699473,0.33628925037949386,79.83081680391274,0.0
1699,0.2746093438507861,0.2553168154549749,79.83081680391274,0.0
1700,0.19186968846588634,0.17434746419035715,79.83081680391274,0.0
1701,0.10405615434684068,0.09419645582973847,79.83081680391274,0.0
1702,0.018793820854647703,0.01845202363080528,79.83081680391274,0.0
1703,-0.05396559559936223,-0.047581677994205096,79.83081680391274,0.0
1704,-0.10647501467854331,-0.09874469465999097,79.83081680391274,0.0
1705,-0.13611652378760292,-0.13184461621483584,79.83081680391274,0.0
1706,-0.14566982907144943,-0.14674660307982504,79.83081680391274,0.0
1707,-0.14145509030273107,-0.14644284965520366,79.83081680391274,0.0
1708,-0.13059458124269258,-0.13625371620518167,79.83081680391274,0.0
1709,-0.1188765764053153,-0.12257610563401021,79.83081680391274,0.0
1710,-0.11026491064033535,-0.11160922960621925,79.83081680391274,0.0
1711,-0.10776589493745362,-0.1083289180426378,79.83081680391274,0.0
1712,-0.11421891051661714,-0.11579832243375454,79.83081680391274,0.0
1713,-0.1318645815510014,-0.1348099189353099,79.83081680391274,0.0
1714,-0.16091717131556177,-0.16386213959129406,79.83081680391274,0.0
1715,-0.19846411684006607,-0.19950658324498502,79.83081680391274,0.0
1716,-0.2388889767399331,-0.23707323863065755,79.83081680391274,0.0
1717,-0.275771429503195,-0.27167340306247123,79.83081680391274,0.0
1718,-0.30405120111522,-0.2992539187444086,79.83081680391274,0.0
1719,-0.32127235141612226,-0.31741893768387364,79.83081680391274,0.0
1720,-0.3276812959094651,-0.3257930802386589,79.83081680391274,0.0
1721,-0.3256412334447317,-0.3258507585197687,79.83081680391274,0.0
1722,-0.31871691604252783,-0.3203122192123467,79.83081680391274,0.0
1723,-0.31055736298224423,-0.312335205251431,79.83081680391274,0.0
1724,-0.3039322811939208,-0.3047682804415903,79.83081680391274,0.0
1725,-0.3004289440873579,-0.29967456015660043,79.83081680391274,0.0
1726,-0.3008210180362121,-0.2982147135196813,79.83081680391274,0.0
1727,-0.30548807235510156,-0.30084404154869754,79.83081680391274,0.0
1728,-0.31438948300848124,-0.30767151897910283,79.83081680391274,0.0
1729,-0.3268576054135738,-0.31877049899671706,79.83081680391274,0.0
1730,-0.3417844876491506,-0.33423073589933294,79.83081680391274,0.0
1731,-0.35817905910612247,-0.3538110841659199,79.83081680391274,0.0
1732,-0.3753782177446109,-0.3762014305247065,79.83081680391274,0.0
1733,-0.3922711012873993,-0.3981113782540445,79.83081680391274,0.0
1734,-0.4056517119854489,-0.4135990461185667,79.83081680391274,0.0
1735,-0.4086730994464489,-0.4141251861998031,79.83081680391274,0.0
1736,-0.39082658274143156,-0.3896761895330686,79.83081680391274,0.0
1737,-0.3403022355140697,-0.3309449420201661,79.83081680391274,0.0
1738,-0.24806099466675868,-0.2321078370722703,79.83081680391274,0.0
1739,-0.11181766501141217,-0.0933797452385296,79.83081680391274,0.0
1740,0.06169652790243749,0.07756177506044609,79.83081680391274,0.0
1741,0.256974791384389,0.26594749285827934,79.83081680391274,0.0
1742,0.45244308951818957,0.45223324817119637,79.83081680391274,0.0
1743,0.6248524893002787,0.6158973659391803,79.83081680391274,0.0
1744,0.7541112701493708,0.7397417649742193,79.83081680391274,0.0
1745,0.8275179535179024,0.8134863621120069,79.83081680391274,0.0
1746,0.8426776174689605,0.8355870256553085,79.83081680391274,1.0
1747,0.8080710126739029,0.8127101328672607,79.83081680391274,0.0
1748,0.7402400348250677,0.7570310153485396,79.83081680391274,0.0
1749,0.6580354190255793,0.6822552523513222,79.83081680391274,0.0
1750,0.5762524622085148,0.5997168686968417,79.83081680391274,0.0
1751,0.5014142165498341,0.5158813950530989,79.83081680391274,0.0
1752,0.4313040650359678,0.4320470712049056,79.83081680391274,0.0
1753,0.35818861496178633,0.3461823642886318,79.83081680391274,0.0
1754,0.27432851019800636,0.25600119818823147,79.83081680391274,0.0
1755,0.17749311816793023,0.1619059030226064,79.83081680391274,0.0
1756,0.07389119821278409,0.06852299618734667,79.83081680391274,0.0
1757,-0.023171777305430796,-0.015822170055133006,79.83081680391274,0.0
1758,-0.0983326633625762,-0.08147063583013936,79.83081680391274,0.0
1759,-0.1402284783981788,-0.12066468548769693,79.83081680391274,0.0
1760,-0.14568367929559797,-0.13037003111604845,79.83081680391274,0.0
1761,-0.12052216791384324,-0.11362662421728163,79.83081680391274,0.0
1762,-0.07719449770556312,-0.07898632209947064,79.83081680391274,0.0
1763,-0.03067977763449796,-0.038314448034549864,79.83081680391274,0.0
1764,0.005549170213840396,-0.0037624420541597786,79.83081680391274,0.0
1765,0.02237036524206533,0.015105901561303939,79.83081680391274,0.0
1766,0.016328095885560154,0.013230985907653342,79.83081680391274,0.0
1767,-0.010620635046343488,-0.009383212143044328,79.83081680391274,0.0
1768,-0.052716919837320575,-0.04841711288682657,79.83081680391274,0.0
1769,-0.10260101398512447,-0.09689668187979714,79.83081680391274,0.0
1770,-0.15312374515557947,-0.14721224486101558,79.83081680391274,0.0
1771,-0.19842645537076595,-0.19295628359532113,79.83081680391274,0.0
1772,-0.23464688014200824,-0.23017699445821344,79.83081680391274,0.0
1773,-0.26045138857204125,-0.25783011915116194,79.83081680391274,0.0
1774,-0.2771040038813485,-0.2774042063991168,79.83081680391274,0.0
1775,-0.2878731979014106,-0.2918776083949638,79.83081680391274,0.0
1776,-0.29690944855112283,-0.3043269978522866,79.83081680391274,0.0
1777,-0.3077040134288302,-0.3166173062646922,79.83081680391274,0.0
1778,-0.3213660300096512,-0.32861369128656515,79.83081680391274,0.0
1779,-0.335585746983555,-0.33822584169764036,79.83081680391274,0.0
1780,-0.34534940016749194,-0.342327393392407,79.83081680391274,0.0
1781,-0.345479996279514,-0.338263737039293,79.83081680391274,0.0
1782,-0.3336677538561282,-0.32540033936913637,79.83081680391274,0.0
1783,-0.3122086999677891,-0.3060935387220336,79.83081680391274,0.0
1784,-0.2875731115119652,-0.2856306800763747,79.83081680391274,0.0
1785,-0.2682319696593687,-0.27102479394079027,79.83081680391274,0.0
1786,-0.2618413211288375,-0.2689298627494173,79.83081680391274,0.0
1787,-0.27278213187455397,-0.28323578423235685,79.83081680391274,0.0
1788,-0.3005585216592771,-0.3130310611673341,79.83081680391274,0.0
1789,-0.33908840220114456,-0.35157223482708555,79.83081680391274,0.0
1790,-0.37689242573091325,-0.3866963703540785,79.83081680391274,0.0
1791,-0.3984849345532186,-0.40279355765913505,79.83081680391274,0.0
1792,-0.38714386119921307,-0.3840670245954976,79.83081680391274,0.0
1793,-0.32863841105636904,-0.3184189933709599,79.83081680391274,0.0
