,PPG_Raw,PPG_Clean,PPG_Rate,PPG_Peaks
0,-0.013635730024005168,7.610859736655722e-05,103.97412199630313,0.0
1,-0.013647068695499797,7.83133659796991e-05,103.97412199630313,0.0
2,-0.013648019842569916,9.259426949906598e-05,103.97412199630313,0.0
3,-0.013630733221293111,0.0001280316483367531,103.97412199630313,0.0
4,-0.013587518838045268,0.00018850238781134655,103.97412199630313,0.0
5,-0.013513472511390373,0.0002710974626546974,103.97412199630313,0.0
6,-0.013409977258639724,0.000365785077576322,103.97412199630313,0.0
7,-0.01328755891040879,0.0004565577162424015,103.97412199630313,0.0
8,-0.013166531481327291,0.0005240699857635587,103.97412199630313,0.0
9,-0.013074487165428637,0.0005494656916471394,103.97412199630313,0.0
10,-0.013040638859311213,0.0005187644108616851,103.97412199630313,0.0
11,-0.013087992214773633,0.000426919631449451,103.97412199630313,0.0
12,-0.013225158057442706,0.00028056802945734875,103.97412199630313,0.0
13,-0.013440196768649586,9.863082416825008e-05,103.97412199630313,0.0
14,-0.01369894223724095,-8.968616674869984e-05,103.97412199630313,0.0
15,-0.01394944052104395,-0.0002493802924675138,103.97412199630313,0.0
16,-0.014132396762966579,-0.0003458963149254654,103.97412199630313,0.0
17,-0.014195351214493925,-0.00035189321239248526,103.97412199630313,0.0
18,-0.014106620230820512,-0.00025306599425584553,103.97412199630313,0.0
19,-0.01386467593964722,-5.16799691538013e-05,103.97412199630313,0.0
20,-0.013499866609739656,0.00023305123546899095,103.97412199630313,0.0
21,-0.013067774775986073,0.00056790333259098,103.97412199630313,0.0
22,-0.01263618852994322,0.0009112957298537014,103.97412199630313,0.0
23,-0.01226964115804664,0.001220458442834953,103.97412199630313,0.0
24,-0.012016022656942639,0.001458611305097587,103.97412199630313,0.0
25,-0.011898703638512417,0.0016007307317350765,103.97412199630313,0.0
26,-0.011915447817220882,0.0016368817329128226,103.97412199630313,0.0
27,-0.012043106737109609,0.0015726916824923846,103.97412199630313,0.0
28,-0.012245621689055679,0.0014271682020864749,103.97412199630313,0.0
29,-0.012482604961050244,0.001228562077823826,103.97412199630313,0.0
30,-0.012716500698054538,0.0010092493401037256,103.97412199630313,0.0
31,-0.012917429568645881,0.0008006300164082629,103.97412199630313,0.0
32,-0.013065718217391172,0.0006288561055702195,103.97412199630313,0.0
33,-0.013152523433213907,0.0005118912128846785,103.97412199630313,0.0
34,-0.013178967901009659,0.0004580645310296217,103.97412199630313,0.0
35,-0.013154114869320811,0.0004659952691387328,103.97412199630313,0.0
36,-0.013092183301094561,0.0005255843299361515,103.97412199630313,0.0
37,-0.013009647504516513,0.0006197164856969127,103.97412199630313,0.0
38,-0.012923024791189813,0.0007263718074791857,103.97412199630313,0.0
39,-0.01284794173888277,0.0008209644575537542,103.97412199630313,0.0
40,-0.012799429304957788,0.0008788491062459158,103.97412199630313,0.0
41,-0.01279262607754387,0.0008780010135190142,103.97412199630313,0.0
42,-0.01284265590856581,0.0008018473714581127,103.97412199630313,0.0
43,-0.012962725812721157,0.0006421032896183969,103.97412199630313,0.0
44,-0.013160382400770877,0.0004012846121892824,103.97412199630313,0.0
45,-0.01343291649626264,9.440051519038104e-05,103.97412199630313,0.0
46,-0.013763586544824995,-0.0002507513831096752,103.97412199630313,0.0
47,-0.014120339105653669,-0.0005951968010371655,103.97412199630313,0.0
48,-0.01445806488324447,-0.0008925767251913067,103.97412199630313,0.0
49,-0.014724415009231247,-0.0010950154230029623,103.97412199630313,0.0
50,-0.014868201418310613,-0.0011605103772586213,103.97412199630313,0.0
51,-0.014848774537217816,-0.0010608601821057721,103.97412199630313,0.0
52,-0.014644679468265781,-0.0007888334540469491,103.97412199630313,0.0
53,-0.014260224553476752,-0.00036316657619310516,103.97412199630313,0.0
54,-0.013729050677814209,0.0001698876788408321,103.97412199630313,0.0
55,-0.013114107056750228,0.000739340721554728,103.97412199630313,0.0
56,-0.012503571735221495,0.0012568248842517108,103.97412199630313,0.0
57,-0.012002347925525405,0.0016279792854102934,103.97412199630313,0.0
58,-0.011719046913435824,0.001766482914277838,103.97412199630313,0.0
59,-0.011749053173579537,0.0016086349630149766,103.97412199630313,0.0
60,-0.01215547110607207,0.0011259550290476624,103.97412199630313,0.0
61,-0.012951309689301098,0.00033329239577067454,103.97412199630313,0.0
62,-0.014087581020594861,-0.0007095204488662007,103.97412199630313,0.0
63,-0.015452169180663868,-0.0019033872191307707,103.97412199630313,0.0
64,-0.01688260911078875,-0.0031225724610054397,103.97412199630313,0.0
65,-0.018192276355216672,-0.004232328138016314,103.97412199630313,0.0
66,-0.019204964340668592,-0.0051084803201866145,103.97412199630313,0.0
67,-0.019789254253304966,-0.005655405733082519,103.97412199630313,0.0
68,-0.01988324667188292,-0.005819087027677383,103.97412199630313,0.0
69,-0.01950283378000112,-0.005592954097044326,103.97412199630313,0.0
70,-0.018731865057224933,-0.005015756140651747,103.97412199630313,0.0
71,-0.0176982075198445,-0.004162376900296495,103.97412199630313,0.0
72,-0.016543585645211373,-0.0031298825652806726,103.97412199630313,0.0
73,-0.015395892095545633,-0.002021851219001576,103.97412199630313,0.0
74,-0.014350489476471343,-0.0009340335436375459,103.97412199630313,0.0
75,-0.013463146892204089,5.6289926550804996e-05,103.97412199630313,0.0
76,-0.012753381394944061,0.0008960130021558512,103.97412199630313,0.0
77,-0.012214447811137664,0.0015569590567226879,103.97412199630313,0.0
78,-0.011825530911338896,0.002032704015433584,103.97412199630313,0.0
79,-0.011562486629334833,0.00233309315490083,103.97412199630313,0.0
80,-0.0114049715709504,0.0024781945501281574,103.97412199630313,0.0
81,-0.011339288857112636,0.0024931155314010735,103.97412199630313,1.0
82,-0.011357412522862497,0.002404513154826886,103.97120830349932,0.0
83,-0.011453387566016073,0.002238950497589847,103.96252729928192,0.0
84,-0.01161869878762993,0.002022670033342281,103.94817048974534,0.0
85,-0.011838280897022699,0.0017820031707359112,103.92823116081102,0.0
86,-0.01208858032651475,0.0015435669628770599,103.90280427851138,0.0
87,-0.012338479470623512,0.001333594881199133,103.87198638962157,0.0
88,-0.012553065749700292,0.0011761271606870415,103.83587552279839,0.0
89,-0.01269940372879933,0.001090231221296658,103.79457109037969,0.0
90,-0.012752925304024528,0.0010868130129909448,103.74817379099224,0.0
91,-0.012702956573968466,0.0011658178594974977,103.69678551310902,0.0
92,-0.01255619385487503,0.0013146490186480427,103.64050923969111,0.0
93,-0.012337400828193778,0.0015084488349888716,103.57944895404293,0.0
94,-0.012087021297044101,0.0017125337114870375,103.51370954700208,0.0
95,-0.01185575744213139,0.001886828920275679,103.44339672557986,0.0
96,-0.011696575022339485,0.001991710470321122,103.36861692315978,0.0
97,-0.011655179117712218,0.001994326386369547,103.28947721135641,0.0
98,-0.011760687332961076,0.0018743155924313048,103.20608521362892,0.0
99,-0.01201870266724202,0.0016279068994125684,103.11854902073733,0.0
100,-0.012408844814248487,0.0012696504484818905,103.02697710812225,0.0
101,-0.01288781133293727,0.0008314458697710528,102.93147825528301,0.0
102,-0.013397416753752047,0.0003589866261131295,102.83216146722144,0.0
103,-0.013875433500135714,-9.386679851735886e-05,102.72913589801237,0.0
104,-0.014266188888788426,-0.0004720192611504841,102.62251077655627,0.0
105,-0.014528203630362177,-0.0007265259744423889,102.51239533456109,0.0
106,-0.014637555747249967,-0.000821622391776638,102.39889873679697,0.0
107,-0.014587474555179867,-0.0007406956213228113,102.28213001365867,0.0
108,-0.014386104354322499,-0.0004905823180944581,102.16219799606691,0.0
109,-0.014054831204265658,-0.00010361305265893994,102.03921125273281,0.0
110,-0.013628839585120595,0.00036316833110612427,101.91327802980464,0.0
111,-0.013159868217165206,0.0008321133787752305,101.78450619291087,0.0
112,-0.012719065846451966,0.0012126702350465134,101.65300317160808,0.0
113,-0.01239633546057016,0.001412457361060145,101.51887590623795,0.0
114,-0.012292566956404892,0.0013507734064029148,101.38223079719232,0.0
115,-0.012503177217869943,0.0009727928427555248,101.24317365658122,0.0
116,-0.013094950087233938,0.0002620216418652245,101.10180966229468,0.0
117,-0.014081917083762488,-0.0007516770377471304,100.95824331444479,0.0
118,-0.015408203625045146,-0.001990820007887364,100.81257839417103,0.0
119,-0.016945126219035555,-0.003337103448411008,100.66491792478807,0.0
120,-0.01850624316480584,-0.004646006838169076,100.51536413525264,0.0
121,-0.019878681345177954,-0.005767206242766518,100.36401842592171,0.0
122,-0.020863827618682176,-0.006567331208487167,100.21098133657286,0.0
123,-0.02131728354403816,-0.006950815871743063,100.05635251665406,0.0
124,-0.021177903811091348,-0.006874758800755953,99.90023069772795,0.0
125,-0.020478667503017633,-0.00635483071741858,99.74271366807368,0.0
126,-0.019337008269379084,-0.005461106704795091,99.58389824940724,0.0
127,-0.017927567846304355,-0.0043048063721151785,99.4238802756792,0.0
128,-0.01644469046344273,-0.0030187864378283537,99.26275457390773,0.0
129,-0.015064210243990484,-0.0017358011142787596,99.10061494700275,0.0
130,-0.013913603638962924,-0.0005687724006288371,98.93755415853634,0.0
131,-0.013056581573873375,0.00040340858771872466,98.773663919413,0.0
132,-0.012493738657150628,0.001142462720326043,98.6090348763931,0.0
133,-0.012176502749672738,0.001649355127961048,98.44375660242163,0.0
134,-0.012028691891629598,0.0019562882663092286,98.27791758871385,0.0
135,-0.011969132205247953,0.002114531729785931,98.11160523854957,0.0
136,-0.011929874222876627,0.002181054799244289,97.94490586272681,0.0
137,-0.011866875884296904,0.0022067273339315225,97.77790467662592,0.0
138,-0.01176268322748181,0.00222811218987072,97.61068579883545,0.0
139,-0.011622774271707211,0.002263834413192059,97.44333225129034,0.0
140,-0.011468278530968287,0.002315445919253037,97.27592596087445,0.0
141,-0.011327665653664118,0.002371829851563256,97.10854776243877,0.0
142,-0.011229118616315342,0.0024156417327047585,96.9412774031879,0.0
143,-0.011194327396202504,0.002430107796130759,96.7741935483871,1.0
144,-0.01123389479374854,0.002404661847480872,96.59667091227858,0.0
145,-0.011344567446083535,0.0023383198818918653,96.3985662130366,0.0
146,-0.011508795483854953,0.0022402631419001107,96.1806923167444,0.0
147,-0.01169720557452667,0.0021277165602441445,95.94387563061277,0.0
148,-0.011874128237129099,0.002021766114258962,95.68895310290908,0.0
149,-0.012005413081469728,0.0019421630679232224,95.41676932770027,0.0
150,-0.012066790980664004,0.0019023454519363206,95.12817376678954,0.0
151,-0.012050489718272637,0.0019058335988280922,94.82401809941734,0.0
152,-0.011968009935823762,0.0019448413634374612,94.50515370851394,0.0
153,-0.011847956935630522,0.0020014534323262584,94.17242931055576,0.0
154,-0.01172932228304153,0.0020511582240506764,93.8266887344069,0.0
155,-0.011652087201458819,0.0020680181783035876,93.46876885294188,0.0
156,-0.011647869786238425,0.002030412795527998,93.0994976697499,0.0
157,-0.011733170795789477,0.0019261701755998867,92.71969256183499,0.0
158,-0.01190668238439037,0.0017560191264311834,92.33015867794948,0.0
159,-0.012150667770918637,0.0015346035307484437,91.93168749103869,0.0
160,-0.012435266749028678,0.0012887294041805048,91.5250555022371,0.0
161,-0.012724125355548654,0.00105298330411706,91.11102309293692,0.0
162,-0.012979989152882699,0.0008633035994023667,90.69033352065055,0.0
163,-0.013169583754040565,0.0007494601040394466,90.26371205370663,0.0
164,-0.013267879520768824,0.0007276729344546019,89.8318652392476,0.0
165,-0.013262325183788608,0.0007947470007971497,89.3954802985352,0.0
166,-0.013157525182218157,0.0009250703650766721,88.95522464320605,0.0
167,-0.012980019291450559,0.001071568970278069,88.51174550585304,0.0
168,-0.012781532186447423,0.001171185009454259,88.0656696781263,0.0
169,-0.012637901747397094,0.0011546573207222312,87.6176033494455,0.0
170,-0.012640706930319684,0.0009594189310318272,87.1681320393861,0.0
171,-0.012880102901263861,0.0005434768491948273,86.71782061683524,0.0
172,-0.013420592884745411,-0.00010253516926632985,86.26721339910382,0.0
173,-0.014275471873049674,-0.0009480692544318904,85.81683432432094,0.0
174,-0.015388637016556357,-0.0019224840792054654,85.36718719061848,0.0
175,-0.01663243460678793,-0.002922999803724475,84.9187559558312,0.0
176,-0.017826281151291107,-0.0038300123348893687,84.47200509168368,0.0
177,-0.01877387630221028,-0.004527142403313112,84.02737998670608,0.0
178,-0.019309571278818004,-0.004922020426587252,83.58530739240902,0.0
179,-0.019340082853430772,-0.004963352213623831,83.1461959075485,0.0
180,-0.018868397520399236,-0.0046504775555799745,82.71043649562415,0.0
181,-0.017992340764146183,-0.004033299155699664,82.27840303106845,0.0
182,-0.01687865237471908,-0.0032026910269365373,81.85045286990336,0.0
183,-0.015721186535747184,-0.002273683209359622,81.42692744095736,0.0
184,-0.014696184749323417,-0.0013652681283150164,81.00815285404764,0.0
185,-0.01392723027138567,-0.0005811895452551919,80.59444052184159,0.0
186,-0.013468175213164983,4.5191783972914346e-06,80.18608779240897,0.0
187,-0.013306018994104286,0.0003549389714112523,79.78337858976865,0.0
188,-0.013379677896273324,0.00047015356124196963,79.38658406001348,0.0
189,-0.01360657254828589,0.0003808740826499667,78.9959632208664,0.0
190,-0.013907876250937647,0.00013818710218144984,78.6117636127798,0.0
191,-0.014225146025452889,-0.0001978334811933327,78.23422194993547,0.0
192,-0.014525109933123467,-0.0005682921342693826,77.86356476973782,0.0
193,-0.014794110088190492,-0.0009229195129593962,77.50000907961405,0.0
194,-0.015027299467643945,-0.0012243023174019598,77.14376300014673,0.0
195,-0.015218789958671276,-0.0014492074586084478,76.79502640376236,0.0
196,-0.01535729395865112,-0.0015877589170981963,76.45399154838739,0.0
197,-0.015428402314694301,-0.0016412914499843174,76.12084370566112,0.0
198,-0.015421231084749645,-0.0016195155625862742,75.7957617834614,0.0
199,-0.015335298711033925,-0.001537369124274826,75.47891894265783,0.0
200,-0.015183791952789199,-0.0014117622356794252,75.17048320815603,0.0
201,-0.014991369682548722,-0.0012584137920932568,74.87061807443897,0.0
202,-0.014787176131319222,-0.0010890958839376553,74.57948310594536,0.0
203,-0.01459563709343772,-0.0009097363025577295,74.29723453275486,0.0
204,-0.014428302236099408,-0.0007198542217569938,74.02402584217208,0.0
205,-0.014279552799307626,-0.0005136376066899577,73.76000836692207,0.0
206,-0.01412784692777501,-0.00028261384329904125,73.50533187078494,0.0
207,-0.013942677413078426,-1.9406669837472405e-05,73.26014513261157,0.0
208,-0.013695715587527638,0.00027833760283656585,73.0245965297747,0.0
209,-0.013372933531431028,0.000604974846614781,72.79883462222185,0.0
210,-0.012983442064643948,0.0009458469631751195,72.58300873840977,0.0
211,-0.012561171090510866,0.0012787932601461827,72.3772695645152,0.0
212,-0.012157711429396756,0.0015780910522434004,72.1817697384352,0.0
213,-0.011827983181537221,0.0018200225484360276,71.99666445021283,0.0
214,-0.011613405171602047,0.001988740818833653,71.8221120506533,0.0
215,-0.01152843860877283,0.0020809355378302538,71.6582746700304,0.0
216,-0.01155519134342941,0.0021080419801484686,71.50531884892881,0.0
217,-0.011647793057041106,0.0020953239566464167,71.36341618342192,0.0
218,-0.011744815054983182,0.00207791445377113,71.2327439869521,0.0
219,-0.01178545232717869,0.002094594373020129,71.11348597146157,0.0
220,-0.011724334925483273,0.002180541908240988,71.00583295051858,0.0
221,-0.011540814317325065,0.002360400290185269,70.90998356739978,0.0
222,-0.011240866378248232,0.002642815152295044,70.82614505132605,0.0
223,-0.010852444184928695,0.003017204413926062,70.75453400530932,0.0
224,-0.010417214008886403,0.0034531005155563795,70.69537722935523,0.0
225,-0.009982416288307748,0.003902074730687226,70.64891258308477,0.0
226,-0.00959589267626729,0.004302064629830054,70.61538989219014,0.0
227,-0.009305382910752367,0.004583835559248116,70.59507190353165,0.0
228,-0.0091607018200604,0.004679210865645192,70.58823529411765,1.0
229,-0.009215334595784932,0.0045304990180553145,70.59715742308389,0.0
230,-0.009523375317709932,0.004100190981929283,70.62359815437935,0.0
231,-0.010129238029069152,0.0033795697321433995,70.66708745666712,0.0
232,-0.011050987870256284,0.0023945411105819286,70.7271780405916,0.0
233,-0.012262222818318676,0.001206981431144741,70.80344314889552,0.0
234,-0.013680243713841115,-8.96286836111948e-05,70.89547447237429,0.0
235,-0.015167994874716722,-0.001380529663879737,71.00288017734246,0.0
236,-0.01655331923969343,-0.002544889794659157,71.1252830317152,0.0
237,-0.017662633808021563,-0.003473497995147022,71.26231861807909,0.0
238,-0.01835990542290513,-0.004085647096477289,71.41363362326608,0.0
239,-0.018578763091625674,-0.004341765255118598,71.57888419496875,0.0
240,-0.018337333353236396,-0.0042490859354732645,71.75773435686146,0.0
241,-0.017731265334458242,-0.0038591139515122097,71.94985447453534,0.0
242,-0.016907856447927555,-0.003257464273706608,72.15491976532708,0.0
243,-0.016030096268095095,-0.0025483252322820015,72.37260884583552,0.0
244,-0.015241655539944853,-0.0018368798083431073,72.60260231158387,0.0
245,-0.0146419808329782,-0.0012132476001780524,72.84458134391045,0.0
246,-0.014276042521582806,-0.0007408826848107849,73.09822633976444,0.0
247,-0.014138142240477417,-0.00045111237709491247,73.36321556065143,0.0
248,-0.014185503238424213,-0.0003440056038910253,73.63922379752708,0.0
249,-0.014356051207601979,-0.0003944128106763006,73.92592104897761,0.0
250,-0.014585503390134426,-0.0005611253864331882,74.22297121056214,0.0
251,-0.01482054569146368,-0.0007968069839204077,74.53003077372821,0.0
252,-0.015026486706991863,-0.0010566283155384072,74.84674753325254,0.0
253,-0.015188952624152659,-0.0013042325893733871,75.17275930270868,0.0
254,-0.01531014242584274,-0.001514537214589148,75.50769263802624,0.0
255,-0.01540121347527007,-0.001673696576764449,75.8511615697848,0.0
256,-0.015473430801129015,-0.0017771183154565678,76.20276634548384,0.0
257,-0.015531242057841357,-0.0018266404572862048,76.56209218364906,0.0
258,-0.015569838302856284,-0.0018278456770658212,76.92870804227798,0.0
259,-0.015577947907415023,-0.0017881148244752833,77.30216540479478,0.0
260,-0.015544281715478309,-0.0017155653026282463,77.68199708737534,0.0
261,-0.015464371623606012,-0.0016186439412031856,78.0677160722203,0.0
262,-0.015344450670567101,-0.0015059600199876489,78.45881437209245,0.0
263,-0.015200565686509054,-0.0013859786731891684,78.8547619321952,0.0
264,-0.015053424412598689,-0.0012663903103054884,79.25500557624768,0.0
265,-0.014921346720013877,-0.0011532183663451856,79.65896800440213,0.0
266,-0.014814304210928443,-0.001049913739626202,80.06604685144947,0.0
267,-0.014731328948317593,-0.0009567402531485852,80.47561381455807,0.0
268,-0.014662044060601813,-0.0008706765306515039,80.88701386058179,0.0
269,-0.014591386205875634,-0.0007858981971468011,81.29956452374743,0.0
270,-0.014505363971730908,-0.0006947393743643502,81.71255530527425,0.0
271,-0.01439539300214065,-0.0005889313602612772,82.12524718717768,0.0
272,-0.014259544410676263,-0.00046090567023952274,82.53687227315059,0.0
273,-0.014100624392004076,-0.0003050065111445863,82.94663356997974,0.0
274,-0.01392258257452374,-0.00011853043134134192,83.35370492342571,0.0
275,-0.013727470691759712,9.745635895302854e-05,83.75723112285112,0.0
276,-0.013514676139396982,0.00033760463997225144,84.15632818910166,0.0
277,-0.013282793903932024,0.0005922316658510307,84.55008386020643,0.0
278,-0.013033069819955485,0.0008479577337855925,84.93755828934492,0.0
279,-0.012772549051071311,0.0010892402497432402,85.31778496920204,0.0
280,-0.012515156402600409,0.0013008777412289948,85.6897718962797,0.0
281,-0.01227974800857071,0.0014712968909878063,86.05250298792748,0.0
282,-0.01208531458893714,0.0015961119771425618,86.40493976377753,0.0
283,-0.011944569550673873,0.001681155928588811,86.7460233018973,0.0
284,-0.011857801368411443,0.0017440351160176873,87.07467647829628,0.0
285,-0.011808957607845803,0.0018133428301474834,87.38980649642282,0.0
286,-0.011765496015914263,0.0019250136396468916,87.69030771095879,0.0
287,-0.011682751737208038,0.0021158779560598783,87.97506474756364,0.0
288,-0.011512612662206566,0.002415179963470142,88.24295591723508,0.0
289,-0.011215312807142441,0.0028354980377328894,88.4928569206594,0.0
290,-0.01077227781299309,0.003364980060561242,88.72364483433809,0.0
291,-0.01019733476114731,0.003962920881255272,88.9342023664294,0.0
292,-0.009543381034235384,0.004560369338732757,89.12342236617629,0.0
293,-0.008901921938193912,0.005066654180974038,89.2902125665514,0.0
294,-0.008393826893812266,0.005381568548582116,89.43350053540034,0.0
295,-0.008151239662749412,0.005411662670407953,89.55223880597015,1.0
296,-0.008292675162086014,0.005087947254215435,89.65810124395509,0.0
297,-0.008895575577507548,0.004381602909423028,89.76342357452044,0.0
298,-0.009972375462101158,0.0033142608944888526,89.86817280428147,0.0
299,-0.011456710336124276,0.0019601713373587175,89.97231568406494,0.0
300,-0.013205180753701464,0.00043902668451140624,90.07581871237143,0.0
301,-0.015016868943912914,-0.0010999111602315779,90.17864813910877,0.0
302,-0.016668131545870872,-0.0024998376950012375,90.28076996960068,0.0
303,-0.01795538220125871,-0.0036205999276217246,90.3821499688747,0.0
304,-0.018735403684245863,-0.0043604598143744955,90.48275366623368,0.0
305,-0.018952667685163398,-0.004671240544907331,90.58254636011432,0.0
306,-0.01864656942944464,-0.004564031350918751,90.68149312323699,0.0
307,-0.01793733548308321,-0.004104615728628243,90.77955880804981,0.0
308,-0.01699551251954734,-0.0033999159635816796,90.876708052471,0.0
309,-0.016004157810833072,-0.0025784994305414503,90.97290528593246,0.0
310,-0.015123772868361848,-0.0017691735515062397,91.06811473572768,0.0
311,-0.014467712034719263,-0.0010817319014994205,91.16230043366699,0.0
312,-0.01409158350319394,-0.0005930804608900909,91.25542622304283,0.0
313,-0.013995883598922749,-0.0003405528522700818,91.3474557659074,0.0
314,-0.0141382037923216,-0.0003226061793883844,91.43835255066504,0.0
315,-0.014450290397235018,-0.0005056574987218497,91.52807989998152,0.0
316,-0.014855598210580544,-0.0008348570851273506,91.61660097901162,0.0
317,-0.01528401809239871,-0.00124622896443298,91.70387880394694,0.0
318,-0.015681666851714758,-0.0016778167057362216,91.7898762508849,0.0
319,-0.016014885573767505,-0.0020781066853851815,91.87455606501997,0.0
320,-0.0162689139249854,-0.002410849322853012,91.95788087015794,0.0
321,-0.016442922163205448,-0.0026562426695096674,92.03981317855317,0.0
322,-0.016543787361228652,-0.0028091090547944495,92.1203154010696,0.0
323,-0.016580839228538646,-0.0028750883294587017,92.1993498576643,0.0
324,-0.016562806344839753,-0.002865979073083792,92.27687878819368,0.0
325,-0.016496868721369566,-0.002795238179688778,92.35286436354116,0.0
326,-0.016388759682930566,-0.0026743907502664926,92.42726869706452,0.0
327,-0.016242714272838316,-0.0025107965600635546,92.5000538563621,0.0
328,-0.01606069900164802,-0.002306930071909823,92.5711818753548,0.0
329,-0.015841312209010396,-0.002061086779700134,92.640614766682,0.0
330,-0.015579395507929899,-0.0017692328484183676,92.70831453440847,0.0
331,-0.015267322931871772,-0.0014275635614143059,92.77424318703828,0.0
332,-0.014898168484553083,-0.0010352333931549322,92.8383627508331,0.0
333,-0.014469961130101744,-0.000596684000635349,92.90063528342961,0.0
334,-0.013989587700377002,-0.00012304839239391332,92.96102288775229,0.0
335,-0.013474888589782718,0.0003677381149695283,93.01948772621576,0.0
336,-0.012954015134209346,0.0008522490950737217,93.07599203521185,0.0
337,-0.012461903378506998,0.0013041418827522524,93.13049813987502,0.0
338,-0.012034526018025838,0.0016975658573135394,93.18296846911974,0.0
339,-0.011702243292472131,0.00201078488030054,93.23336557094306,0.0
340,-0.011483917366613422,0.002229339357710938,93.28165212798487,0.0
341,-0.011383336186402875,0.0023481693946854317,93.32779097333801,0.0
342,-0.01138889364276712,0.0023723443855916543,93.37174510659996,0.0
343,-0.011476551168642775,0.002316337141735715,93.41347771015714,0.0
344,-0.011615131583832079,0.0022020649508923138,93.45295216569262,0.0
345,-0.01177227638183751,0.002056123986692992,93.49013207090739,0.0
346,-0.011919233465599456,0.0019067234963262372,93.524981256445,0.0
347,-0.0120332169478256,0.001780779326026182,93.55746380300849,0.0
348,-0.012097262853832351,0.0017014884831955206,93.58754405865888,0.0
349,-0.012098761080850522,0.0016865355651043312,93.61518665628279,0.0
350,-0.012028463528290784,0.0017469337586876806,93.6403565312179,0.0
351,-0.011881318141540132,0.0018864102655036313,93.66301893902244,0.0
352,-0.011659149908565996,0.0021012101291908603,93.6831394733767,0.0
353,-0.0113737602385324,0.0023801936090865504,93.70068408410208,0.0
354,-0.011048331334318621,0.0027051190353157015,93.71561909528423,0.0
355,-0.010715590376377215,0.0030510309627608833,93.72791122348534,0.0
356,-0.010412801139112469,0.003386728756105589,93.73752759603107,0.0
357,-0.010175478613219997,0.003675395562956099,93.74443576935673,0.0
358,-0.010032725946148893,0.0038756225674032863,93.7486037473964,0.0
359,-0.010006577333181325,0.003943224707684163,93.75,1.0
360,-0.010115753010299273,0.003834322536171917,93.74800273215372,0.0
361,-0.010381632537898155,0.0035100553972480355,93.74209294823582,0.0
362,-0.010832290624212537,0.002942925093374311,93.73239436619718,0.0
363,-0.011500250541307986,0.002124169145936435,93.71903154132085,0.0
364,-0.012411692143949753,0.0010708694933508462,93.70212976768502,0.0
365,-0.013568729430040177,-0.00016904573465143717,93.68181498252117,0.0
366,-0.014930572871204561,-0.00151588976037219,93.65821367357273,0.0
367,-0.01640189818713443,-0.002862923628132693,93.63145278955048,0.0
368,-0.017835915520546936,-0.004087154017339354,93.60165965376996,0.0
369,-0.019055187568332594,-0.005065237386671734,93.56896188104763,0.0
370,-0.019886680243558334,-0.005692031149927413,93.53348729792147,0.0
371,-0.020201597055627296,-0.005898291701139083,93.49536386625456,0.0
372,-0.019947937887091812,-0.005663777461071471,93.45471961026945,0.0
373,-0.019165660434686906,-0.005022720537616461,93.41168254705416,0.0
374,-0.017979942106946176,-0.00406014996519082,93.36638062057193,0.0
375,-0.016574926021918814,-0.0028995023185589726,93.31894163919895,0.0
376,-0.015155835263032361,-0.0016838317378485555,93.26949321680738,0.0
377,-0.013909765060575714,-0.0005542494176415125,93.21816271740398,0.0
378,-0.01297453969456635,0.0003703291818272366,93.16507720332801,0.0
379,-0.012421625756269242,0.0010085349476945068,93.11036338700593,0.0
380,-0.012254664990214848,0.0013246304439957807,93.05414758625511,0.0
381,-0.012421157310098638,0.0013285894547336377,92.99655568312285,0.0
382,-0.012832197668897205,0.0010690311760865,92.93771308624308,0.0
383,-0.013384361714989364,0.0006210948807487611,92.87774469668776,0.0
384,-0.0139787015482633,7.197817946415588e-05,92.81677487728646,0.0
385,-0.01453380792612962,-0.0004931294866828994,92.7549274253842,0.0
386,-0.014992237690159671,-0.0010024969882623516,92.69232554900412,0.0
387,-0.015321486482902592,-0.0014052909685588243,92.62909184637856,0.0
388,-0.01551154740453266,-0.0016745278577029164,92.56534828881048,0.0
389,-0.015570864873618596,-0.0018058805031447825,92.50121620682467,0.0
390,-0.015521614274195523,-0.0018132812619332385,92.43681627956626,0.0
391,-0.015394422304308958,-0.0017225969611714153,92.37226852740382,0.0
392,-0.015222451562276447,-0.0015647277875033441,92.3076923076923,0.0
393,-0.015035272434184066,-0.0013693441323480028,92.24320631365136,0.0
394,-0.014853666424169569,-0.001160179230059921,92.1789285763143,0.0
395,-0.01468677711594022,-0.0009524030648022379,92.11497646950264,0.0
396,-0.014532478388848911,-0.0007521796977265202,92.05146671778218,0.0
397,-0.014380687567771508,-0.0005581219061197966,91.98851540735748,0.0
398,-0.01421827496051054,-0.00036406331824116343,91.92623799986187,0.0
399,-0.014033829857050902,-0.0001624105809846698,91.86474934900272,0.0
400,-0.013820988160010523,5.266986350757933e-05,91.80416372002246,0.0
401,-0.013579933638750855,0.00028285073310110485,91.7445948119385,0.0
402,-0.013317459099673341,0.0005244306532886749,91.68615578252698,0.0
403,-0.01304620683885591,0.0007684493459464514,91.6289592760181,0.0
404,-0.012783402567071483,0.0010020151791789742,91.57311745347383,0.0
405,-0.012548917625267254,0.0012105155765392208,91.51874202582127,0.0
406,-0.012362308524368934,0.0013802392024021785,91.46594428951872,0.0
407,-0.012238847553902869,0.001500888883616674,91.41483516483517,0.0
408,-0.012185323980021003,0.0015675156804981424,91.3655252367274,0.0
409,-0.012197065882770768,0.0015815514811946894,91.31812479830324,0.0
410,-0.012257668505107181,0.0015508314635233607,91.27274389686386,0.0
411,-0.012342097126305265,0.0014887262474611326,91.22949238252228,0.0
412,-0.012422448136567161,0.0014126799718848868,91.18847995940074,0.0
413,-0.012474376634482557,0.0013425156874741604,91.1498162394138,0.0
414,-0.012481737278296205,0.0012987973589007138,91.11361079865016,0.0
415,-0.012437675862061882,0.0013013535454504744,91.07997323637152,0.0
416,-0.012342013326719675,0.001367846827000287,91.04901323665219,0.0
417,-0.012196552195319182,0.0015121173553739396,91.02084063269069,0.0
418,-0.0120010321353096,0.0017420281945714428,90.99556547382919,0.0
419,-0.011752285094259799,0.002056731940990376,90.97329809532488,0.0
420,-0.011447719281396198,0.002443625031435752,90.9541491909239,0.0
421,-0.011092237332882664,0.0028756505541591313,90.93822988829571,0.0
422,-0.010705994038359111,0.0033099070343320302,90.92565182739382,0.0
423,-0.010329760695236471,0.003688585152868875,90.91652724181665,0.0
424,-0.01002529725091644,0.003943009664865783,90.91096904325124,0.0
425,-0.009869683789906656,0.004001018710227374,90.9090909090909,1.0
426,-0.009944330400673728,0.0037971638080188455,90.95972364407103,0.0
427,-0.010320681435473433,0.0032844227592072053,91.1087590016887,0.0
428,-0.011045123136725923,0.0024454733514583356,91.35233792563425,0.0
429,-0.012125471350852915,0.0013012526194648541,91.68711346328821,0.0
430,-0.013521169823901913,-8.535257235717459e-05,92.1101741501364,0.0
431,-0.015139346711389811,-0.0016122297723642335,92.61897578256142,0.0
432,-0.016838987321828917,-0.0031476867028051494,93.21127964302245,0.0
433,-0.018444998754157425,-0.0045462143128107355,93.88509554771913,0.0
434,-0.019772210563225447,-0.0056682308178443224,94.63862832493068,0.0
435,-0.02065641668214825,-0.0064006179949712225,95.47022651869351,0.0
436,-0.020986393781844657,-0.00667437317763604,96.3783322602002,0.0
437,-0.02072891446486247,-0.006475965373953634,97.36143136868324,0.0
438,-0.019939306657519116,-0.005850022091640371,98.41800284334904,0.0
439,-0.018753353121687327,-0.004892604709926124,99.54646699584362,0.0
440,-0.017361414399857018,-0.0037362002470493223,100.74513155585572,0.0
441,-0.015970898042807567,-0.002529223237694001,102.01213516765085,0.0
442,-0.014766688707072761,-0.0014138744323794555,103.34538778946346,0.0
443,-0.013879571735927848,-0.0005063889804553696,104.74250761786448,0.0
444,-0.013369865956251482,0.0001169976400077332,106.20075429290439,0.0
445,-0.01322851853413385,0.0004264201801011127,107.71695830478822,0.0
446,-0.01339265924810632,0.0004368268224016834,109.28744672706041,0.0
447,-0.013768905027335628,0.000199785701987218,110.90796565271148,0.0
448,-0.014256691701304412,-0.00020897683578556688,112.57360001566924,0.0
449,-0.014765660112319294,-0.0007035184463213709,114.27869184696915,0.0
450,-0.015224638959803569,-0.0012005406525841843,116.0167584464073,0.0
451,-0.0155833814736775,-0.0016293001612424044,117.78041244698498,0.0
452,-0.015810345474778647,-0.0019376219464521923,119.56128630602437,0.0
453,-0.01588975436145724,-0.0020939576648821142,121.349964361356,0.0
454,-0.015819475340264295,-0.0020861308715870493,123.13592622200356,0.0
455,-0.015609293189605413,-0.001917833445819183,124.9075058874172,0.0
456,-0.015278273747240327,-0.00160408288819052,126.65187156135266,0.0
457,-0.014850527071431006,-0.0011667591384081119,128.3550315854729,0.0
458,-0.014350133605235935,-0.0006310696654903043,130.00187218916142,0.0
459,-0.013797112938010257,-2.3404493868896064e-05,131.57623274972323,0.0
460,-0.013206267247848912,0.0006293929381319921,133.06102388834793,0.0
461,-0.012589537570845195,0.0012997177156680157,134.43839290092512,0.0
462,-0.011960878385250026,0.001958524038230764,135.68993966169248,0.0
463,-0.011341431381760855,0.00257503686674127,136.7969841931667,0.0
464,-0.010762477000263346,0.003117487878732625,137.74088456511063,0.0
465,-0.010264318147066792,0.0035551775582913225,138.50340072851603,0.0
466,-0.009890630299632542,0.003861716314605813,139.06709644430623,0.0
467,-0.009679448797832625,0.004018858298321831,139.4157678502228,0.0
468,-0.009653333178819752,0.004020045331288677,139.53488372093022,1.0
469,-0.009811847731967948,0.0038727221549099897,139.47883541062242,0.0
470,-0.010129009608591748,0.003598695659336513,139.3127705748561,0.0
471,-0.01055683594014627,0.0032322363493012354,139.040178653751,0.0
472,-0.011034088385534685,0.00281614059114842,138.66500012671233,0.0
473,-0.011497604789823094,0.002396439579438452,138.1915722411982,0.0
474,-0.011892974439910674,0.0020167267962486815,137.62457266634738,0.0
475,-0.012181973980436219,0.0017131096721301874,136.96896221853564,0.0
476,-0.012345679345255944,0.0015105792019621043,136.22992773669526,0.0
477,-0.012383686145531743,0.001421207782219843,135.41282609022574,0.0
478,-0.012310755237028232,0.0014441449946913697,134.52313018773086,0.0
479,-0.012152309313058357,0.0015670020259466433,133.56637772696922,0.0
480,-0.011939847751026775,0.0017679893819773536,132.54812329141149,0.0
481,-0.011706942182539346,0.002018145329936545,131.47389426228028,0.0
482,-0.011486246530112843,0.0022831591002253687,130.3491508818126,0.0
483,-0.011307845450033854,0.0025246028458337727,129.1792506777942,0.0
484,-0.011199091005708683,0.002700755385913407,127.96941734432356,0.0
485,-0.011185746795717355,0.002767526434113973,126.72471407150964,0.0
486,-0.011293853235098121,0.0026801707991223026,125.45002122877045,0.0
487,-0.01155138936878121,0.0023964389997380873,124.15001823318435,0.0
488,-0.011988586836228636,0.001881509714116885,122.82916937588811,0.0
489,-0.012635642636986012,0.0011145195951142838,121.49171333522273,0.0
490,-0.013516715121511005,9.584825533505447e-05,120.14165607418865,0.0
491,-0.01463982893078129,-0.001146304240185493,118.78276680049365,0.0
492,-0.01598394916659284,-0.0025518935082429577,117.41857665858794,0.0
493,-0.017486746272847173,-0.004029369955404432,116.05237982302928,0.0
494,-0.019038423094892957,-0.005461630050353245,114.68723666975433,0.0
495,-0.020487009129670806,-0.006717779321163662,113.32597871485723,0.0
496,-0.021657860217486058,-0.007669562991596784,111.97121502790483,0.0
497,-0.022385183929708518,-0.008210011163939318,110.62533984739692,0.0
498,-0.02254814318808208,-0.008270948542437682,109.29054114861083,0.0
499,-0.022101012894952365,-0.00783584134504483,107.96880993781267,0.0
500,-0.021087765529467763,-0.006945122465681433,106.66195007088729,0.0
501,-0.01963624968149715,-0.005692536655504098,105.37158841821113,0.0
502,-0.01793375294838006,-0.004212849627061218,104.0991852205654,0.0
503,-0.016191322043091396,-0.0026630186011119793,102.84604450270028,0.0
504,-0.01460661023204705,-0.0012001959752638508,101.61332443154939,0.0
505,-0.013333846398037206,3.955313658300392e-05,100.40204752489191,0.0
506,-0.012465994075550114,0.0009582643824486922,99.21311063337536,0.0
507,-0.012030145895678626,0.0015062805801945814,98.04729463421779,0.0
508,-0.01199411787318855,0.001684530585114413,96.90527378862052,0.0
509,-0.012280610155088805,0.0015392365340222722,95.78762472700339,0.0
510,-0.012784996588379916,0.0011506396707471915,94.6948350367042,0.0
511,-0.013393332033617217,0.0006181290957485257,93.62731143586674,0.0
512,-0.013998114830252413,4.4438462360105115e-05,92.58538752499312,0.0
513,-0.014510405906253977,-0.0004786190475423594,91.5693311141741,0.0
514,-0.014867812307350362,-0.0008809629548136699,90.57935112945974,0.0
515,-0.015038376823228668,-0.001120458475149102,89.61560410631022,0.0
516,-0.015020556413291093,-0.001184215658992792,88.67820028168919,0.0
517,-0.014839456346552982,-0.0010854294141691794,87.76720929923779,0.0
518,-0.014539656734271917,-0.0008568266557628143,86.88266554419991,0.0
519,-0.014175495007200018,-0.0005421766136685315,86.02457312644876,0.0
520,-0.01380038426308919,-0.00018745489687083334,85.19291053118123,0.0
521,-0.013457241193390371,0.0001668706499171115,84.38763495767154,0.0
522,-0.013172001727593682,0.000491311506198662,83.60868636698278,0.0
523,-0.012951453300016156,0.0007699716305048546,82.85599125978386,0.0
524,-0.012785481314272294,0.0010002546955663332,82.12946620546273,0.0
525,-0.012652735781536558,0.0011901435281724685,81.42902114361576,0.0
526,-0.012528011594694567,0.0013539168489288915,80.75456247876669,0.0
527,-0.01238944118291537,0.0015073519870758517,80.10599598886512,0.0
528,-0.012223879971478536,0.0016634232638724042,79.48322956776641,0.0
529,-0.012029480726176794,0.0018292734569272176,78.8861758215272,0.0
530,-0.011815222937981323,0.0020048786211872443,78.31475453799557,0.0
531,-0.011597908768760656,0.0021834336335991842,77.76889504884366,0.0
532,-0.011397703746626188,0.0023531443031148684,77.24853850291551,0.0
533,-0.0112335638416306,0.002499886476336771,76.75364006955056,0.0
534,-0.011119751768102705,0.002610112492742084,76.28417109042128,0.0
535,-0.011064086179391409,0.002673441861976645,75.8401211983993,0.0
536,-0.011067771266008839,0.0026845277174320737,75.42150042206265,0.0
537,-0.011126030902613071,0.0026439908903327634,75.02834129468732,0.0
538,-0.011228731977367599,0.0025584094139003742,74.66070098695255,0.0
539,-0.011360786387741269,0.0024395070607162797,74.31866348314676,0.0
540,-0.011502933246595097,0.0023027810470965223,74.00234182141315,0.0
541,-0.011633836180905174,0.0021658395626269608,73.71188041954332,0.0
542,-0.011733854815243019,0.002046684568968682,73.44745750904396,0.0
543,-0.011789589652657789,0.0019620817557311067,73.20928770169314,0.0
544,-0.011797199570844281,0.0019260290833167059,72.99762471461116,0.0
545,-0.01176248514308032,0.0019482110613069429,72.81276428203545,0.0
546,-0.011697150420163161,0.002032270215000148,72.65504728456386,0.0
547,-0.011612881485979356,0.0021738020828221947,72.52486312967373,0.0
548,-0.01151662644887541,0.0023582128908041736,72.42265342090928,0.0
549,-0.01141053157995866,0.002558928834846099,72.34891595734135,0.0
550,-0.011298019569903433,0.0027367918922978707,72.30420910984199,0.0
551,-0.011194237933405023,0.0028416448196890687,72.28915662650603,1.0
552,-0.01113608122007287,0.0028169325079448497,72.29797372923139,0.0
553,-0.011185758960430803,0.0026075522620770415,72.32411854608402,0.0
554,-0.011423300136725854,0.002170247097722508,72.36714901896538,0.0
555,-0.011927204548281467,0.00148479203047756,72.42664496957838,0.0
556,-0.012747375980527496,0.0005634202970933593,72.50220608912278,0.0
557,-0.013878628627015808,-0.0005442809102800469,72.5934500417998,0.0
558,-0.015244671315379394,-0.0017531960724916818,72.70001066943348,0.0
559,-0.01670052305002946,-0.0029520677560625867,72.82153628573887,0.0
560,-0.018056009281574997,-0.004019451218341223,72.95768804985717,0.0
561,-0.019115914727057946,-0.004843425997865318,73.1081384097533,0.0
562,-0.01972608484704551,-0.005340999747987755,73.27256960694825,0.0
563,-0.01981182555691796,-0.005472879853305871,73.45067223484959,0.0
564,-0.019396709086673194,-0.005250174943819235,73.64214384366191,0.0
565,-0.01859583844778617,-0.004731429164100135,73.84668758551459,0.0
566,-0.01758561336255254,-0.004010695985531972,74.06401089404751,0.0
567,-0.01655926438225528,-0.003199483611766786,74.29382419325346,0.0
568,-0.015681463258970404,-0.0024067586894410183,74.53583963089801,0.0
569,-0.015054928402662815,-0.0017214220063567114,74.7897698323301,0.0
570,-0.014707404764510925,-0.0012007531528484608,75.05532667096475,0.0
571,-0.014600415477243268,-0.0008665791936380539,75.33222005217162,0.0
572,-0.014654287799900264,-0.0007088942828671314,75.62015670774072,0.0
573,-0.014779538583436851,-0.0006949239747098278,75.91883899852941,0.0
574,-0.014904093098844771,-0.0007806327223952505,76.22796372332316,0.0
575,-0.014988814502986733,-0.0009215985629309843,76.54722093237258,0.0
576,-0.015028923682703909,-0.0010809198359465937,76.8762927445047,0.0
577,-0.01504396709124321,-0.0012330474040773008,77.21485216715088,0.0
578,-0.015062211381866458,-0.0013637306516220706,77.56256191908977,0.0
579,-0.015105872225208131,-0.0014672513867921631,77.91907325617507,0.0
580,-0.015181799399964079,-0.0015425731619250552,78.28402480080666,0.0
581,-0.015279369744487445,-0.001589924220280546,78.65704137641285,0.0
582,-0.015374720765230058,-0.0016087990404416933,79.03773284874137,0.0
583,-0.015438878857994989,-0.0015976437487352274,79.42569297631127,0.0
584,-0.015446863499659725,-0.0015548347140248017,79.82049827295515,0.0
585,-0.015385134821928978,-0.0014801568467962159,80.22170688598398,0.0
586,-0.015255454920616161,-0.0013759236333785476,80.62885749413347,0.0
587,-0.015074195849579773,-0.0012471273495801255,81.04146823010083,0.0
588,-0.014867278175591232,-0.0011004478276340247,81.45903563315285,0.0
589,-0.014662113210795665,-0.0009424175179573267,81.88103363797698,0.0
590,-0.01447887575394431,-0.0007773801844520419,82.30691260665351,0.0
591,-0.014323836540877238,-0.0006059828828842575,82.73609841134403,0.0
592,-0.014187095780817015,-0.00042478038873067084,83.16799157601474,0.0
593,-0.014045830087505722,-0.0002271699327431871,83.6019664862325,0.0
594,-0.013872334393001841,-5.439639160976194e-06,84.03737067678333,0.0
595,-0.01364427765274789,0.00024664378336229024,84.4735242075531,0.0
596,-0.013353462996270587,0.0005314441393703703,84.90971913877009,0.0
597,-0.013009627915941213,0.0008459164667396792,85.34521911732485,0.0
598,-0.012637579200141847,0.0011812935875787603,85.77925908644161,0.0
599,-0.012268676260562248,0.0015240080476661764,86.21104513145995,0.0
600,-0.01193021838822637,0.0018575498749677107,86.63975447487988,0.0
601,-0.011637383524614539,0.0021648113097870398,87.06453563411061,0.0
602,-0.011391259983641776,0.0024305042111816655,87.48450875552011,0.0
603,-0.011183535484950232,0.002643388941024891,87.89876613839364,0.0
604,-0.011004983133507961,0.0027982047390323977,88.3063729622506,0.0
605,-0.010852847114186331,0.002897228845805065,88.70636823062027,0.0
606,-0.010732775644742234,0.0029512743602445124,89.09776594381822,0.0
607,-0.010653872523151753,0.002979726814388349,89.4795565124758,0.0
608,-0.010619210613740828,0.0030090609269487084,89.85070842253643,0.0
609,-0.010616791346836914,0.0030693337642503002,90.21017016112842,0.0
610,-0.01061614343806981,0.003188516205570398,90.55687241113985,0.0
611,-0.010573556616560372,0.003385172974710365,90.8897305204487,0.0
612,-0.01044549429914213,0.0036607659070688526,91.20764724959075,0.0
613,-0.010206516695341297,0.003993474701423631,91.50951579918342,0.0
614,-0.009866151057525443,0.004335634987145515,91.79422311566516,0.0
615,-0.009478947962502333,0.004616504846934662,92.06065347087412,0.0
616,-0.009143313130985561,0.004751071920435526,92.3076923076923,1.0
617,-0.008987227868403917,0.004654180541650118,92.54138099741,0.0
618,-0.009142223783070667,0.004257732432243031,92.76862397812876,0.0
619,-0.009710418379799857,0.003527517907979235,92.98961050180411,0.0
620,-0.010732307695052918,0.0024757570187672797,93.20453747484815,0.0
621,-0.012164402284506692,0.0011659085698663592,93.4136092011229,0.0
622,-0.013874762445539679,-0.00029226601845727717,93.61703712551095,0.0
623,-0.015660629685358213,-0.0017572949157078576,93.81503957928638,0.0
624,-0.017286271220506272,-0.00307787903704448,94.00784152848311,0.0
625,-0.01853261138211042,-0.004117847469426135,94.19567432642731,0.0
626,-0.019245633217511136,-0.00477905923508527,94.37877547156883,0.0
627,-0.019369936822049308,-0.00501745259232193,94.55738837171174,0.0
628,-0.018957858394253905,-0.0048489555694602995,94.731762115708,0.0
629,-0.018151954532269306,-0.004344283728126673,94.90215125364224,0.0
630,-0.01714681204443649,-0.0036141497877381096,95.06881558649623,0.0
631,-0.016142108253668096,-0.002788437254873667,95.23201996624564,0.0
632,-0.01530054674808898,-0.0019939430062269154,95.39203410730316,0.0
633,-0.014721358003090788,-0.0013351667580709656,95.54913241018559,0.0
634,-0.014433930295961066,-0.0008814557065851665,95.70359379824745,0.0
635,-0.014409383281037644,-0.0006620128395880887,95.85570156828936,0.0
636,-0.01458299235320596,-0.0006683872176115167,96.0057432558181,0.0
637,-0.014878682942413,-0.0008625776918364176,96.15401051570579,0.0
638,-0.015228252314172882,-0.0011881072493630984,96.3007990189693,0.0
639,-0.015581381486375247,-0.0015814247925583554,96.44640836636766,0.0
640,-0.015906354062415383,-0.0019816005856123677,96.5911420194959,0.0
641,-0.01618442611774226,-0.0023371996643016192,96.73530725003745,0.0
642,-0.01640223722035264,-0.0026101218699222215,96.87921510782627,0.0
643,-0.016546329736387384,-0.0027768466007235286,97.0231804083629,0.0
644,-0.01660209693897133,-0.0028278128633494933,97.16752174042635,0.0
645,-0.016557094921462612,-0.0027656402882979777,97.31256149442714,0.0
646,-0.016406607645476464,-0.002602690213227058,97.45862591215601,0.0
647,-0.016158423809569753,-0.0023582395770797336,97.60604515859714,0.0
648,-0.015834208467967136,-0.0020554152656775573,97.75515341649577,0.0
649,-0.015466308583133161,-0.0017180527301983261,97.90628900439833,0.0
650,-0.015090680360538688,-0.001367756453571979,98.05979451891727,0.0
651,-0.014738183567613588,-0.0010215547683674372,98.21601700201528,0.0
652,-0.01442720031606394,-0.000690557811740391,98.37530813415377,0.0
653,-0.014160134183319033,-0.00037988872034748716,98.53802445420862,0.0
654,-0.013924989607105328,-8.987839060153532e-05,98.70452760712374,0.0
655,-0.013701473209072442,0.00018182541337138144,98.87518462035013,0.0
656,-0.013469563435999416,0.0004378642906148957,99.05036821020451,0.0
657,-0.013217725950824454,0.000679230683217183,99.23045711938033,0.0
658,-0.01294805452063271,0.0009044045339839987,99.41583648695301,0.0
659,-0.012676499097277642,0.001109852412993366,99.6068982523437,0.0
660,-0.012427789389200292,0.0012917258283855638,99.8040415948417,0.0
661,-0.012226368116179895,0.0014481711521849032,100.00767341043657,0.0
662,-0.012086190062070326,0.0015814123292314077,100.21820882787668,0.0
663,-0.012003086893878854,0.001698786753458306,100.43607176605646,0.0
664,-0.011953035933507909,0.0018122135739067663,100.66169553503646,0.0
665,-0.011897904705450591,0.0019360623549186363,100.8955234832253,0.0
666,-0.011797470076352753,0.002083904544642688,101.13800969349944,0.0
667,-0.011623767851561618,0.0022649886392829164,101.3896197313083,0.0
668,-0.011372411508317566,0.002481351091697717,101.6508314481142,0.0
669,-0.011066297768565199,0.0027262337053548477,101.92213584384547,0.0
670,-0.010749967527166532,0.002984022075943791,102.20403799240796,0.0
671,-0.010476660247765356,0.0032314359777182874,102.49705803470246,0.0
672,-0.010293157004025284,0.0034393948055164345,102.80173224404086,0.0
673,-0.010228511474260345,0.0035749819463191407,103.11861416934654,0.0
674,-0.010291230448730357,0.0036032399377301594,103.44827586206897,1.0
675,-0.01047592094330746,0.0034889975383626064,103.81411194281014,0.0
676,-0.010776239964201012,0.003199321140392918,104.23798833806151,0.0
677,-0.011197880041830517,0.002707260739910339,104.71828075055122,0.0
678,-0.011764681536157739,0.001997199131906482,105.25345623897977,0.0
679,-0.012513233627906076,0.001071367692071469,105.84205150622144,0.0
680,-0.013475810836774118,-4.379584588298617e-05,106.48265193551487,0.0
681,-0.014656590985906114,-0.0012934482506173385,107.1738711320784,0.0
682,-0.016009877042822817,-0.00259442438325484,107.91433075810296,0.0
683,-0.01742988313943321,-0.003841109728336475,108.7026404766949,0.0
684,-0.018758846500314258,-0.004917307975374257,109.53737784616831,0.0
685,-0.019814399139093053,-0.005712647012334026,110.41706803110017,0.0
686,-0.020430162336371266,-0.006140537423439927,111.34016322168237,0.0
687,-0.020498010497561912,-0.006153816659745014,112.30502167899282,0.0
688,-0.01999870171674899,-0.005754333972935649,113.30988635167749,0.0
689,-0.019010582155972355,-0.0049939144689465295,114.35286303996729,0.0
690,-0.017692940273286807,-0.0039661081372129245,115.43189811668731,0.0
691,-0.01624878358060561,-0.0027903442402379018,116.54475585262756,0.0
692,-0.01487824001045014,-0.0015919429659029072,117.68899543595602,0.0
693,-0.013736160307032837,-0.0004823629475197195,118.86194782275712,0.0
694,-0.012905269182470577,0.00045616386518639116,120.06069260864945,0.0
695,-0.012390601077761002,0.0011787434085510835,121.28203516992188,0.0
696,-0.012134201464707478,0.0016777528589102106,122.52248438664958,0.0
697,-0.01204344410533832,0.001975703591824741,123.77823132936234,0.0
698,-0.012023341628019216,0.0021137027044953217,125.0451293642087,0.0
699,-0.012003378860193845,0.0021388894166209298,126.31867620782151,0.0
700,-0.011952160481634597,0.002093964938463845,127.59399854031125,0.0
701,-0.01187740773490285,0.002010883809787506,128.86583986035413,0.0
702,-0.011813272139530722,0.0019093123256232773,130.12855233683604,0.0
703,-0.011800433396681404,0.0017990461260528874,131.37609347279263,0.0
704,-0.011866196753063094,0.0016846127301626628,132.60202844450365,0.0
705,-0.012011358774105557,0.0015699897447012557,133.7995390058795,0.0
706,-0.0122080306943652,0.0014617439111801332,134.96143984946036,0.0
707,-0.01240861254387653,0.0013697338023635243,136.08020328381872,0.0
708,-0.012562039364130381,0.0013054927765861909,137.14799301628634,0.0
709,-0.012630844542679164,0.0012791874850590738,138.15670771354047,0.0
710,-0.012602616666917634,0.0012964047674447613,139.0980348455121,0.0
711,-0.012492074751459843,0.001355900412946808,139.96351509683979,0.0
712,-0.012334024034284529,0.0014489616470792185,140.74461735362524,0.0
713,-0.012170996326301519,0.0015604157601195644,141.43282394363254,0.0
714,-0.01204088452699164,0.0016708002566633872,142.01972543123847,0.0
715,-0.0119689422735461,0.0017589624492014625,142.49712385466026,0.0
716,-0.011965951968332528,0.0018044219820149416,142.85714285714286,1.0
717,-0.012031603660903683,0.0017891298610757632,143.15435597731513,0.0
718,-0.012160388363901535,0.0016986377616024838,143.44824520833774,0.0
719,-0.012347046038473095,0.001522987505860579,143.7386050330795,0.0
720,-0.012589513360135574,0.00125772776280779,144.0252276754125,0.0
721,-0.012888696432783038,0.0009053305985958027,144.30790318699312,0.0
722,-0.01324559018522775,0.00047696567540791296,144.58641954079587,0.0
723,-0.01365691473897748,-5.793789412339022e-06,144.8605627315091,0.0
724,-0.014110544839200054,-0.0005100758473531115,145.13011688288893,0.0
725,-0.014581858754530736,-0.0009924944300980423,145.39486436215643,0.0
726,-0.015032054498334677,-0.00140233928258013,145.65458590151013,0.0
727,-0.015409550742879185,-0.0016874683193692141,145.90906072681182,0.0
728,-0.015655531204131726,-0.0018025461907582487,146.15806669348777,0.0
729,-0.015714088253305558,-0.0017185270390965477,146.4013804296736,0.0
730,-0.015546093478229682,-0.001431626417136909,146.63877748661173,0.0
731,-0.015144166408007038,-0.0009696675930515155,146.87003249629362,0.0
732,-0.014544635273318314,-0.0003937845865332096,147.09491933632074,0.0
733,-0.013831974072682588,0.0002059096329057538,147.31321130193686,0.0
734,-0.013132323436786515,0.0007209855788329603,147.52468128516492,0.0
735,-0.01259524686873276,0.0010406193311261478,147.72910196095967,0.0
736,-0.01236617180184433,0.0010703704405364376,147.92624598026504,0.0
737,-0.01255503317111862,0.0007504532870002777,148.1158861698422,0.0
738,-0.013208479128744356,6.983997050558403e-05,148.29779573871028,0.0
739,-0.014292892847678144,-0.000926964120183239,148.47174849101754,0.0
740,-0.01569325827726583,-0.002142375149136366,148.6375190451359,0.0
741,-0.017229097638176847,-0.003437555261825677,148.79488305874597,0.0
742,-0.018684480146911164,-0.004651859117653274,148.94361745965415,0.0
743,-0.01984573385792681,-0.005626576826011821,149.08350068205706,0.0
744,-0.020538875801318204,-0.006228745048182474,149.2143129079426,0.0
745,-0.02065911993300466,-0.0063707808177596355,149.33583631329,0.0
746,-0.020186766550919704,-0.00602256053853416,149.44785531870536,0.0
747,-0.019186726451342413,-0.005214111379448276,149.55015684410242,0.0
748,-0.01779233745465701,-0.004028941475827911,149.64253056701295,0.0
749,-0.016177493030662512,-0.0025897837636272695,149.72476918408537,0.0
750,-0.014523785172452832,-0.0010397839910240522,149.7966686753045,0.0
751,-0.01299051742068573,0.00047731785343731116,149.85802857044257,0.0
752,-0.011694347424623514,0.0018347307454885486,149.90865221722672,0.0
753,-0.010701992034887664,0.002935501469200397,149.94834705068624,0.0
754,-0.010034982294128662,0.0037196122008170546,149.97692486312164,0.0
755,-0.009681723072779522,0.004165383361514054,149.9942020741172,0.0
756,-0.00961068443060525,0.004286209896134518,150.0,1.0
757,-0.009779870915023567,0.004124130981316219,149.9692554931451,0.0
758,-0.010140848677927248,0.0037417502509255233,149.878126315476,0.0
759,-0.010638838477228067,0.0032137231270007484,149.72837251718482,0.0
760,-0.01121216840737963,0.0026186071095423403,149.52188132876958,0.0
761,-0.011794119849978423,0.002031506728320097,149.26065333927573,0.0
762,-0.012318379712785309,0.0015177362516794488,148.946788523512,0.0
763,-0.012727093175355527,0.001127675228211882,148.5824722673571,0.0
764,-0.012979057674824799,0.000893038870322521,148.1699615305084,0.0
765,-0.01305551154055819,0.0008248355422251094,147.71157127465216,0.0
766,-0.012962067289769313,0.0009132628197707117,147.20966127243173,0.0
767,-0.012726840379424011,0.0011296696917050552,146.66662339912082,0.0
768,-0.012395848704700767,0.001430498097251068,146.08486949493292,0.0
769,-0.012026875119794304,0.0017628558445928412,145.46681987174085,0.0
770,-0.011682457043710653,0.002071121565900111,144.81489252394465,0.0
771,-0.011422187099274669,0.0023037956884035156,144.13149308957384,0.0
772,-0.011294625061633064,0.0024197339567017546,143.41900559466512,0.0
773,-0.011329809379232345,0.002392959369934223,142.6797840017073,0.0
774,-0.01153405834314919,0.0022154476301100663,141.91614457162754,0.0
775,-0.011888811138174405,0.0018975919182467205,141.13035903852162,0.0
776,-0.012354400832116185,0.0014664138623453015,140.3246485871653,0.0
777,-0.012878158528098978,0.0009619157719385986,139.50117861532462,0.0
778,-0.013404770692338327,0.0004321831439947666,138.66205425601234,0.0
779,-0.013885995210690347,-7.210352208852292e-05,137.80931662909865,0.0
780,-0.014287044319004337,-0.0005031961150378279,136.94493978703096,0.0
781,-0.01458814954372778,-0.0008214915560582914,136.07082831579638,0.0
782,-0.0147816825278331,-0.0010002545230302755,135.1888155495967,0.0
783,-0.014867091963935873,-0.001029727555151677,134.3006623559203,0.0
784,-0.014847050969293297,-0.0009203762720479813,133.40805644669956,0.0
785,-0.014727904204793144,-0.0007047403347110183,132.51261217095058,0.0
786,-0.014525542900055925,-0.0004370673107054953,131.61587074460897,0.0
787,-0.014274778111919654,-0.00018978868523702612,130.71930087411744,0.0
788,-0.01403741294431617,-4.613493754843334e-05,129.82429973160126,0.0
789,-0.01390303250752861,-8.886222172256787e-05,128.93219424110575,0.0
790,-0.013978006683003506,-0.0003860966297299024,128.04424263729373,0.0
791,-0.014362207404528848,-0.0009764394898099994,127.16163626014043,0.0
792,-0.015118160549076779,-0.001856349259538921,126.28550155145865,0.0
793,-0.01624171598414806,-0.002973053604368134,125.41690222148551,0.0
794,-0.017644829391983877,-0.004225618771998035,124.55684155621228,0.0
795,-0.0191586592740929,-0.005475327954447966,123.70626483860599,0.0
796,-0.02055936929069472,-0.006564489930921368,122.86606185931706,0.0
797,-0.02161173603995797,-0.007340722514933192,122.0370694948637,0.0
798,-0.022119568186624583,-0.007682210252649562,121.22007433361107,0.0
799,-0.021969326818521033,-0.007518889947606459,120.41581533209929,0.0
800,-0.021155145433123784,-0.0068451750382369555,119.62498648640997,0.0
801,-0.019778960846907938,-0.005721559542180494,118.84823950528339,0.0
802,-0.018026677067670704,-0.004264812436251285,118.08618647360288,0.0
803,-0.016127749087416002,-0.0026288800562735953,117.33940249664822,0.0
804,-0.014309330072654844,-0.0009804595644234315,116.6084283171818,0.0
805,-0.012756319246350916,0.0005259321377396558,115.89377289897386,0.0
806,-0.011585676085212084,0.0017688333497412616,115.19591597180035,0.0
807,-0.010838553898125405,0.0026733262829149377,114.51531053426076,0.0
808,-0.010488812364109286,0.003215620379478712,113.85238531197292,0.0
809,-0.01046271205160814,0.003419114973710379,113.20754716981132,1.0
810,-0.010662891418375531,0.003343876129018928,112.56121701677934,0.0
811,-0.010990188814111956,0.003072364384224142,111.89466314140736,0.0
812,-0.011358987257605419,0.002694415657126555,111.2095271338479,0.0
813,-0.011704620005689163,0.002294013202998239,110.50741854809547,0.0
814,-0.011983991132388877,0.0019395317146731715,109.78991089562835,0.0
815,-0.012172179442648466,0.0016781644276148153,109.0585381312384,0.0
816,-0.012258083202140849,0.001534397158173244,108.31479161687106,0.0
817,-0.012241287002190132,0.0015118096847303465,107.56011754584684,0.0
818,-0.01213082408582619,0.0015971953520709055,106.79591480698319,0.0
819,-0.01194504914276407,0.0017659399340918666,106.02353326585701,0.0
820,-0.011711006104155878,0.0019876981828196023,105.24427243870805,0.0
821,-0.011461774494406152,0.002231568337361549,104.45938053323937,0.0
822,-0.01123126191143306,0.0024701483541548644,103.67005382978596,0.0
823,-0.01104738334906148,0.0026820630562831606,102.87743637594107,0.0
824,-0.010925858331481917,0.002852800422571534,102.08261996771392,0.0
825,-0.010867249463116345,0.002973996997459505,101.28664439058973,0.0
826,-0.010858973381452251,0.003041635925141084,100.49049789442965,0.0
827,-0.010882074450775202,0.0030538895733579386,99.69511787694252,0.0
828,-0.01092040577341644,0.003009451574358133,98.90139175143635,0.0
829,-0.010968565575027478,0.0029070787343892512,98.11015797568366,0.0
830,-0.011035185801797853,0.0027466838308612936,97.32220721997012,0.0
831,-0.011139903532088017,0.0025317579142715083,96.53828365371201,0.0
832,-0.011304791176498461,0.002272310176586328,95.75908633139687,0.0
833,-0.011543147217466717,0.0019870908814249295,94.98527065999696,0.0
834,-0.011849598735437186,0.001703783104069466,94.21744993140712,0.0
835,-0.012195215023877706,0.0014562031443368186,93.45619690484725,0.0
836,-0.01252999777013045,0.0012783037423224114,92.7020454255317,0.0
837,-0.012793132795228179,0.001195764725708141,91.9554920672301,0.0
838,-0.012929243931584695,0.0012169214621241154,91.21699778761482,0.0
839,-0.012907034785632389,0.0013254286404676928,90.48698958650519,0.0
840,-0.012735518030658501,0.0014771386459211963,89.76586215826852,0.0
841,-0.01247279551085896,0.0016030663410341165,89.05397953072183,0.0
842,-0.012223262973234674,0.0016190669106578319,88.35167668389126,0.0
843,-0.012121277906173707,0.0014412093013847378,87.65926114292854,0.0
844,-0.012302638195909264,0.0010041729701683643,86.97701454035719,0.0
845,-0.012869120113938355,0.000278782168057785,86.30519414362168,0.0
846,-0.013854708618750204,-0.0007155832197484804,85.64403434464839,0.0
847,-0.015203604381373213,-0.0019072793378865993,84.9937481087951,0.0
848,-0.01676848918974265,-0.0031792820385699774,84.35452838117189,0.0
849,-0.018332710935655878,-0.00438619520715071,83.72654944886185,0.0
850,-0.01965314445073485,-0.005378458959457746,83.1099682580607,0.0
851,-0.02051370797649774,-0.0060289248150164005,82.50492568559085,0.0
852,-0.02077537743965991,-0.006256153396439656,81.91154776463335,0.0
853,-0.020408773552100426,-0.006039349264082271,81.3299468648648,0.0
854,-0.01950012634765977,-0.005421680298711948,80.76022282748585,0.0
855,-0.018229094476326545,-0.004501380492391548,80.20246405589201,0.0
856,-0.016824992947432102,-0.0034128160651756938,79.65674856296408,0.0
857,-0.015513919690321109,-0.0023018814537634413,79.12314497615345,0.0
858,-0.014471303076814237,-0.0013011354647946935,78.60171350170465,0.0
859,-0.013791981257084321,-0.0005097709464570476,78.09250684950148,0.0
860,-0.013483923799440608,1.8002373823813845e-05,77.59557112014387,0.0
861,-0.013484176901265271,0.0002748135650243775,77.11094665596312,0.0
862,-0.013689170881027855,0.0002931895734571235,76.63866885776815,0.0
863,-0.013988351083569642,0.00013258102140640583,76.17876896918456,0.0
864,-0.01429101376116952,-0.00013598836127778826,75.73127483050433,0.0
865,-0.014540403365033167,-0.00044409852133038747,75.29621160401204,0.0
866,-0.014714504295151613,-0.0007363065271764485,74.87360247278967,0.0
867,-0.014817301454266386,-0.0009754494434909575,74.46346931503415,0.0
868,-0.01486617992164364,-0.0011429930805002405,74.06583335594752,0.0
869,-0.014880483960059745,-0.0012356062910875527,73.68071579928232,0.0
870,-0.014874055922980998,-0.0012596974952536859,73.3081384406447,0.0
871,-0.01485221764773159,-0.0012256851109630378,72.94812426467796,0.0
872,-0.01481215729734221,-0.0011434022046022312,72.60069802826978,0.0
873,-0.01474528215847226,-0.001019440125292961,72.26588683194777,0.0
874,-0.014640397068190793,-0.0008566012617476942,71.94372068165482,0.0
875,-0.014487016906104006,-0.0006551013777912151,71.6342330431236,0.0
876,-0.014278401293273705,-0.00041482119617672667,71.33746139110653,0.0
877,-0.014013980057635133,-0.0001377803330660823,71.05344775575796,0.0
878,-0.013700812713683423,0.0001699259756364304,70.78223926851572,0.0
879,-0.013353694501834639,0.0004972751310532569,70.5238887098876,0.0
880,-0.012993604190123796,0.0008288053773320059,70.27845506161735,0.0
881,-0.012644511318706985,0.0011463900622116466,70.04600406578582,0.0
882,-0.012329121277932481,0.0014319756449224731,69.82660879349666,0.0
883,-0.012064683117226008,0.0016707731753159865,69.62035022590423,0.0
884,-0.011860116641673163,0.0018543038875769068,69.42731785046726,0.0
885,-0.011715205223465277,0.0019827063984826005,69.24761027545401,0.0
886,-0.011621661004478867,0.002065798240988511,69.08133586588909,0.0
887,-0.011565073120924956,0.002122527855685419,68.92861340431772,0.0
888,-0.011526626707297156,0.002178643036208199,68.78957277997482,0.0
889,-0.011484126865315985,0.002262638547260932,68.6643557101852,0.0
890,-0.01141288879729697,0.002400332885410319,68.55311649809185,0.0
891,-0.011287849554574104,0.0026087504058571534,68.4560228311142,0.0
892,-0.0110882827980935,0.002890304785756659,68.37325662488277,0.0
893,-0.01080549893599411,0.003228507345226263,68.30501491778386,0.0
894,-0.010452078317288909,0.0035864491931645653,68.25151082168469,0.0
895,-0.010069265085673634,0.003909033793670213,68.21297453490057,0.0
896,-0.009728270669325217,0.004129333980455669,68.18965442401895,0.0
897,-0.009522289710095985,0.004178584633148958,68.18181818181819,1.0
898,-0.009548987119645934,0.003998378636857394,68.20687690669224,0.0
899,-0.009886958357042145,0.0035528620379341003,68.28093069730068,0.0
900,-0.010572558913546986,0.0028383766952173313,68.40244304130452,0.0
901,-0.011584251617906821,0.0018882399648911877,68.5700555511899,0.0
902,-0.01283986473742755,0.0007711908508037742,68.78256750355283,0.0
903,-0.014208495364241625,-0.00041669467793829947,69.03891740891427,0.0
904,-0.015534481641117964,-0.001565412084482078,69.33816624809081,0.0
905,-0.01666734133923781,-0.0025673713951022675,69.67948206070062,0.0
906,-0.017489991605778715,-0.0033336276169537806,70.06212561154778,0.0
907,-0.017938403528284123,-0.0038069760604260983,70.48543689320388,0.0
908,-0.01800871080479974,-0.003969575710968061,70.94882224955066,0.0
909,-0.017751574766097268,-0.0038439186874772283,71.45174192654366,0.0
910,-0.017256952675679057,-0.003487293503149304,71.99369787398444,0.0
911,-0.016634269828848414,-0.00298108548743007,72.57422163647472,0.0
912,-0.015992992249357286,-0.0024170791667798112,73.19286218368786,0.0
913,-0.015427133795477914,-0.0018832542615485545,73.84917354026834,0.0
914,-0.015005210426370494,-0.0014514069726103145,74.54270208464929,0.0
915,-0.014765487534072173,-0.0011683883040114642,75.2729733944254,0.0
916,-0.014715530817726967,-0.0010519886152258995,76.03947852418894,0.0
917,-0.014834994057239518,-0.001091672182811526,76.84165961049959,0.0
918,-0.015080875894737833,-0.0012536073653012026,77.67889470850513,0.0
919,-0.015394786834542738,-0.001488836149108784,78.55048177628824,0.0
920,-0.0157118781399442,-0.0017430346426929742,79.4556217369568,0.0
921,-0.015970900516305148,-0.0019661623044827875,80.39340056554431,0.0
922,-0.016124369163171358,-0.002120394760817048,81.36277036871006,0.0
923,-0.016147152039229805,-0.002185077749304585,82.36252945084387,0.0
924,-0.016041319408688373,-0.002157995096879469,83.39130139132529,0.0
925,-0.015835261476237858,-0.0020529391239202544,84.44751319521473,0.0
926,-0.015576224900891252,-0.0018942914114974036,85.52937262438044,0.0
927,-0.01531742510663582,-0.0017099192875210086,86.63484486873509,0.0
928,-0.015103064337440476,-0.0015240249259785622,87.76162877846451,0.0
929,-0.014955869020804353,-0.001351552372464591,88.9071329482487,0.0
930,-0.014871305709052969,-0.0011953516133371787,90.06845202353787,0.0
931,-0.014820384868200167,-0.001046608285085602,91.24234368653254,0.0
932,-0.014759817306901483,-0.0008882465580573091,92.42520687460217,0.0
933,-0.014645688387988562,-0.0007003087764323454,93.6130618846811,0.0
934,-0.014445944036336339,-0.00046588656401540875,94.80153312099183,0.0
935,-0.01414808619734224,-0.0001761194971659013,95.98583534647977,0.0
936,-0.013760758513838994,0.00016692132289160906,97.1607643955851,0.0
937,-0.013310097045601006,0.000550088906614693,98.32069339111594,0.0
938,-0.012832903452994933,0.0009517176521165994,99.45957557338582,0.0
939,-0.012368749765129214,0.0013462373246171378,100.57095488658479,0.0
940,-0.011952557736606967,0.0017097678143309157,101.6479854657382,0.0
941,-0.01160862306403627,0.0020254316237241776,102.68346111719606,0.0
942,-0.011346752085262488,0.002287190108497869,103.66985577609599,0.0
943,-0.011161023934709491,0.002501302907957627,104.59937574631512,0.0
944,-0.011031417402236917,0.00268496632204752,105.46402427473873,0.0
945,-0.0109280551520178,0.0028622279113311422,106.25567867814425,0.0
946,-0.010817308629639345,0.0030578175805815785,106.96617982812333,0.0
947,-0.010668762216741397,0.0032899975528227275,107.5874333135744,0.0
948,-0.010462141683968404,0.003563839541304386,108.11152105464427,0.0
949,-0.01019354450073743,0.0038664234902121143,108.5308215573904,0.0
950,-0.009880320146467912,0.0041652734025157045,108.83813640326838,0.0
951,-0.0095635882736065,0.004410886310213994,109.02681999702055,0.0
952,-0.009306885575040728,0.004543499222057197,109.09090909090908,1.0
953,-0.009189323205478566,0.004503364236605984,109.08273706767757,0.0
954,-0.009292424020908444,0.004242917117482544,109.05859543300302,0.0
955,-0.009681639760639037,0.0037385327175082864,109.01905562243066,0.0
956,-0.010385999286026596,0.002999274109230677,108.96470081790785,0.0
957,-0.011381462798673334,0.0020703204841657536,108.8961243566852,0.0
958,-0.012584216793294745,0.0010296417726568371,108.8139281828074,0.0
959,-0.013858536782668672,-2.2148739827183937e-05,108.7187213470384,0.0
960,-0.01503998519063221,-0.0009772759009697724,108.61111856043335,0.0
961,-0.015969639291739963,-0.001738771312107674,108.49173880613881,0.0
962,-0.016530588757519792,-0.002237307738883797,108.36120401337793,0.0
963,-0.01667605173007512,-0.0024433476389535834,108.22013779696867,0.0
964,-0.016440290543992937,-0.002372002571037945,108.06916426512967,0.0
965,-0.015928727627255567,-0.0020796078978554807,107.90890689776047,0.0
966,-0.015290403156200253,-0.0016528655169110557,107.73998749684095,0.0
967,-0.014681551997622007,-0.001193004988167665,107.56302521008402,0.0
968,-0.01423141857734171,-0.0007983501608156027,107.37863562849644,0.0
969,-0.01401969603701546,-0.0005487512312307431,107.18742995805961,0.0
970,-0.014070077901432667,-0.0004946077864146032,106.99001426533525,0.0
971,-0.01435847011919252,-0.0006519453180278975,106.7869887964299,0.0
972,-0.014829836610771372,-0.00100360670358209,106.57894736842104,0.0
973,-0.015416124108951192,-0.001505448453481587,106.36647683205177,0.0
974,-0.016049476560587608,-0.002095723101423372,106.15015660424338,0.0
975,-0.01666873562215174,-0.0027056386242626943,105.93055826875467,0.0
976,-0.01722093302433572,-0.003269313921416144,105.70824524312894,0.0
977,-0.017661325946009686,-0.0037318176037533244,105.48377250991962,0.0
978,-0.01795494542996716,-0.004054512307292372,105.25768641006314,0.0
979,-0.018080400551527112,-0.0042174175082776485,105.0305244961817,0.0
980,-0.018034285740067622,-0.004218713287963372,104.80281544353586,0.0
981,-0.017833288003351683,-0.004071844442347828,104.57507901631647,0.0
982,-0.01751157125750852,-0.0038009598706372117,104.34782608695652,0.0
983,-0.017112962812621747,-0.0034356184763261674,104.12155870616108,0.0
984,-0.0166799524430855,-0.003005761359707638,103.89677022138991,0.0
985,-0.01624332386322743,-0.002537839043710527,103.67394544158621,0.0
986,-0.015816400417513112,-0.002052676574415077,103.45356084602024,0.0
987,-0.015396180427862952,-0.0015652084916678534,103.2360848352086,0.0
988,-0.014970784873459542,-0.0010857339581342917,103.02197802197801,0.0
989,-0.01452997629422133,-0.0006219735742207025,102.8116935608624,0.0
990,-0.014074277281792039,-0.0001810726364084458,102.60567751415579,0.0
991,-0.013618934855596183,0.00022916517546412438,102.40436925308812,0.0
992,-0.013191230582660751,0.0006001680853852988,102.20820189274448,0.0
993,-0.012822367016381142,0.0009235155308207411,102.0176027595132,0.0
994,-0.012537211768106018,0.0011924200909819588,101.83299389002038,0.0
995,-0.012345818519081215,0.001403145421899526,101.65479256068895,0.0
996,-0.01223980952626826,0.0015558343931347087,101.48341184724866,0.0
997,-0.012194883200497383,0.0016545303993106303,101.31926121372032,0.0
998,-0.012178588824779698,0.0017065556200093592,101.16274713059985,0.0
999,-0.01216069830704297,0.0017216955952997844,101.01427372218113,0.0
1000,-0.012122475993203607,0.001711696267867784,100.87424344317418,0.0
1001,-0.012061265123322834,0.0016903628966401056,100.7430577850053,0.0
1002,-0.011988235853630668,0.0016741294766394901,100.62111801242236,0.0
1003,-0.011919628179996838,0.0016825102502567423,100.50882593127707,0.0
1004,-0.011864604518740067,0.0017375619659968267,100.40658468861564,0.0
1005,-0.011814792378513529,0.0018615506002478258,100.31479960648115,0.0
1006,-0.011740754711978,0.0020724907073709858,100.23387905111927,0.0
1007,-0.011598594075221316,0.002378015186206449,100.16423533958073,0.0
1008,-0.011346183780402828,0.002768899081051917,100.10628568603703,0.0
1009,-0.010964423336972206,0.0032141875384690856,100.06045319046925,0.0
1010,-0.010476067306143443,0.0036599800766207737,100.02716787275558,0.0
1011,-0.009954371913043247,0.004033356079969712,100.00686775557888,0.0
1012,-0.009516411138257058,0.004251757412143089,100.0,1.0
1013,-0.009300666902443638,0.004236656485810003,100.04235515268958,0.0
1014,-0.009433798570962836,0.003928958214599787,100.1671565693992,0.0
1015,-0.009995552303643697,0.003302751764058573,100.37128776153004,0.0
1016,-0.010992204473517711,0.0023740516892195255,100.651963438273,0.0
1017,-0.012347147017216674,0.0012021148428530098,101.00668209728212,0.0
1018,-0.013912538237846654,-0.00011742276945889553,101.43318315301173,0.0
1019,-0.015499624848332928,-0.0014664145325642107,101.92940767400513,0.0
1020,-0.016919408309247763,-0.002722234258723415,102.49346193826166,0.0
1021,-0.018021957496793244,-0.003776186672058708,103.1235831273079,0.0
1022,-0.01872326797547951,-0.004548552552756846,103.81810657065732,0.0
1023,-0.019013009749726865,-0.004997498362172618,104.57543402771162,0.0
1024,-0.018943071831208844,-0.0051206769156853715,105.3940025577411,0.0
1025,-0.01860293635503803,-0.0049500875726799665,106.27225358367541,0.0
1026,-0.01809132179268357,-0.004542169964583181,107.20860180489164,0.0
1027,-0.01749319543992742,-0.003965838143167666,108.20140366056141,0.0
1028,-0.016867738129169012,-0.003291120481565178,109.24892509076267,0.0
1029,-0.01624794091713541,-0.0025803906262868116,110.34930838971033,0.0
1030,-0.01564834671429226,-0.0018831543163809795,111.50053799627125,0.0
1031,-0.015075505736925758,-0.001234337932341702,112.70040512352702,0.0
1032,-0.014536282641342588,-0.0006552794756475003,113.94647119361343,0.0
1033,-0.014041417948143132,-0.00015628346247631035,115.236030118433,0.0
1034,-0.01360437827027205,0.0002603505057881373,116.56606955302722,0.0
1035,-0.013237395681940387,0.0005976077287244519,117.9332313481468,0.0
1036,-0.012947198826048893,0.0008617307187829834,119.33377154329536,0.0
1037,-0.012732435943837862,0.0010609243588072523,120.76352037219291,0.0
1038,-0.012583702042390675,0.001204627786585771,122.21784289947178,0.0
1039,-0.012485936686612423,0.0013031256401470962,123.69160106979271,0.0
1040,-0.012422111122410234,0.0013673105132395165,125.17911812651585,0.0
1041,-0.012376764231538571,0.0014084825216709848,126.67414654306125,0.0
1042,-0.012338143814461976,0.0014381266658919974,128.16984080068698,0.0
1043,-0.01229838395501416,0.0014676215964862316,129.65873653386777,0.0
1044,-0.012252043418970002,0.001507815995862056,131.13273773848806,0.0
1045,-0.012194066406021642,0.0015683940103978131,132.58311388565966,0.0
1046,-0.01211846583777522,0.001656972594880836,134.00050888942246,0.0
1047,-0.012018649691821091,0.001777946602952503,135.3749639217453,0.0
1048,-0.011889497529271814,0.0019312100131518902,136.69595603318558,0.0
1049,-0.011730449512064464,0.002110998586948585,137.9524544016245,0.0
1050,-0.011548382878056231,0.002305176395236797,139.13299577482613,0.0
1051,-0.011359084206731988,0.002495290829782354,140.22578027819097,0.0
1052,-0.011186581516378495,0.0026576351711809277,141.21878821535265,0.0
1053,-0.011060255212305258,0.0027653983026154193,142.09991779271397,0.0
1054,-0.011010294712377265,0.0027917821802437843,142.85714285714286,1.0
1055,-0.01106253936534831,0.0027137717914766015,143.5515529343494,0.0
1056,-0.011233881073465195,0.0025160868103817464,144.25152390190763,0.0
1057,-0.011529132244133895,0.0021947518645627096,144.95609089759768,0.0
1058,-0.011939695619952726,0.001759700273821192,145.6642496346223,0.0
1059,-0.012443824087837162,0.001235871164077165,146.37495533176366,0.0
1060,-0.013008028945438163,0.0006623676531195755,147.08712177341508,0.0
1061,-0.013589341847184952,8.941535821252965e-05,147.79962051488351,0.0
1062,-0.014138447579429846,-0.000426898214359706,148.5112802491989,0.0
1063,-0.014603905787161675,-0.0008318090804970493,149.22088635242463,0.0
1064,-0.014937646263477366,-0.0010803201079213438,149.9271806251316,0.0
1065,-0.015101700352455514,-0.0011458458115805007,150.6288612482427,0.0
1066,-0.015075784624936283,-0.001027669957864286,151.32458297186147,0.0
1067,-0.014864873641027544,-0.0007556519639833575,152.0129575559382,0.0
1068,-0.014505298539615108,-0.00039070350852815345,152.69255448167632,0.0
1069,-0.014067363045337022,-1.998009879058851e-05,153.3619019524128,0.0
1070,-0.013652304276755232,0.0002534912154816433,154.01948820229498,0.0
1071,-0.013381940104386448,0.0003259722561347667,154.66376313039208,0.0
1072,-0.013380635245569955,0.00011102879813363286,155.2931402769027,0.0
1073,-0.013751146795099358,-0.0004425379926445811,155.90599915681815,0.0
1074,-0.014548152791163935,-0.0013363468163053891,156.50068796476148,0.0
1075,-0.015755315648923945,-0.0025150622907922147,157.0755266627188,0.0
1076,-0.017272835761679546,-0.003868455875954884,157.62881046000084,0.0
1077,-0.018921705094412343,-0.0052437188595837805,158.15881369200824,0.0
1078,-0.020467647884555226,-0.006466758196644651,158.66379410121917,0.0
1079,-0.02166233591069226,-0.007369139281961538,159.14199752027744,0.0
1080,-0.0222934808292411,-0.007815818468884813,159.59166295314054,0.0
1081,-0.022231270017744234,-0.007728278310135882,160.01102804597454,0.0
1082,-0.021458387842931605,-0.00709836292702084,160.39833493488103,0.0
1083,-0.020075026905973646,-0.00598991981429584,160.75183645265236,0.0
1084,-0.01827740103403921,-0.004527887281069324,161.06980267162407,0.0
1085,-0.01631572590576939,-0.002877112596742985,161.35052775438905,0.0
1086,-0.014442937983864196,-0.0012152926219144414,161.59233707872653,0.0
1087,-0.012867130931231584,0.000294512616118783,161.79359459766272,0.0
1088,-0.011718671335556048,0.0015265577038536169,161.95271039020986,0.0
1089,-0.01103814827254044,0.0024064220030124276,162.06814835312414,0.0
1090,-0.01078529215773764,0.002914629482623115,162.13843397908747,0.0
1091,-0.010863567843550439,0.003080483873273264,162.16216216216216,1.0
1092,-0.01115186087805227,0.0029686760901562453,162.13613390939463,0.0
1093,-0.011534322392382734,0.002662374211482811,162.05904555385308,0.0
1094,-0.011921704245845138,0.0022466835568878095,161.932459885046,0.0
1095,-0.012261165505237018,0.0017956480933857678,161.75802302308887,0.0
1096,-0.012535078080274379,0.0013646435161349102,161.5374548947096,0.0
1097,-0.012751787876645626,0.0009884818649357825,161.2725397271295,0.0
1098,-0.01293233826028836,0.0006841962723552258,160.9651166388336,0.0
1099,-0.013097109580886175,0.00045659284853179715,160.61707040012095,0.0
1100,-0.013255580754913728,0.00030438350146940005,160.23032242962725,0.0
1101,-0.013401283378720581,0.00022502580440131954,159.80682208591526,0.0
1102,-0.013512698953303042,0.0002171366183302391,159.3485383058819,0.0
1103,-0.013559520678788132,0.0002802753100135225,158.85745163428376,0.0
1104,-0.013512522412653395,0.0004127505017755609,158.3355466812703,0.0
1105,-0.013354376186410222,0.0006086727843798795,157.7848050375567,0.0
1106,-0.013088285040859791,0.0008556254930906053,157.20719866986923,0.0
1107,-0.012741492527088505,0.0011340440156802935,156.6046838126441,0.0
1108,-0.01236184085742202,0.0014187860408251607,155.97919536572982,0.0
1109,-0.012007549703629033,0.0016826345663268885,155.3326418020839,0.0
1110,-0.011732761780529044,0.0019008319275602642,154.66690058421406,0.0
1111,-0.01157325398642374,0.0020553949447945008,153.98381408341015,0.0
1112,-0.01153716949038446,0.0021380138870003567,153.28518599166625,0.0
1113,-0.011604266885776354,0.0021507676699423547,152.57277821259618,0.0
1114,-0.011734289413529143,0.002104547052622474,151.84830821459707,0.0
1115,-0.011881605968663866,0.002015743833538218,151.11344682699246,0.0
1116,-0.012010656790133021,0.0019022170685359897,150.3698164578668,0.0
1117,-0.012106216866274225,0.0017796491550955188,149.61898971075343,0.0
1118,-0.01217455879375828,0.0016591492664432875,148.86248837622858,0.0
1119,-0.01223553914814896,0.001546473504490321,148.10178277375257,0.0
1120,-0.012309687147404854,0.001442710681933585,147.33829141874963,0.0
1121,-0.012406551377687267,0.0013459207569575357,146.57338098989072,0.0
1122,-0.012519723323028692,0.0012531116557017146,145.8083665717981,0.0
1123,-0.012630503597884028,0.0011620752591028245,145.04451214889096,0.0
1124,-0.012717856227831253,0.0010728460904778578,144.283031326796,0.0
1125,-0.012769259798206496,0.0009887346447853232,143.5250882586292,0.0
1126,-0.01278674770096433,0.0009169115953545919,142.7717987544737,0.0
1127,-0.012784895430474095,0.0008683809358940446,142.02423155351107,0.0
1128,-0.012781530783083335,0.0008569955290806078,141.28340973947797,0.0
1129,-0.012785650400113603,0.0008971118969718484,140.55031228139683,0.0
1130,-0.012788772685822777,0.000999694330197278,139.82587568284183,0.0
1131,-0.012764955400109428,0.0011671869034585616,139.11099572433673,0.0
1132,-0.012681287901169763,0.0013881468478342577,138.4065292848191,0.0
1133,-0.012516129910762081,0.0016332203270405478,137.7132962294348,0.0
1134,-0.012278496970222022,0.0018542538099655136,137.03208135223613,0.0
1135,-0.012020401114549781,0.0019879661787328856,136.36363636363637,1.0
1136,-0.011835456242579399,0.001964636855772447,135.67683381895708,0.0
1137,-0.01184133021523248,0.0017208946062853923,134.94244209836515,0.0
1138,-0.0121493049624521,0.0012143021293500658,134.16402987391734,0.0
1139,-0.012829315184561879,0.0004364714839202559,133.3451454310551,0.0
1140,-0.013881427028473479,-0.0005787201401655641,132.48929798165034,0.0
1141,-0.015223597816684191,-0.0017544670857769624,131.5999408329678,0.0
1142,-0.016700872969514082,-0.002978990789735383,130.6804564378916,0.0
1143,-0.01811450277830309,-0.004121177657605143,129.73414331998637,0.0
1144,-0.019263226403189167,-0.0050510786582017905,128.76420483920006,0.0
1145,-0.019985426678352788,-0.005661201822565309,127.77373974038522,0.0
1146,-0.02019112866613364,-0.00588425719297964,126.76573440730776,0.0
1147,-0.01987647684922179,-0.005703784978016694,125.74305672929347,0.0
1148,-0.019118744804179872,-0.005155693193726283,124.70845147591331,0.0
1149,-0.018055109570977054,-0.004320723452125039,123.66453706683917,0.0
1150,-0.016851874223025618,-0.003309747832861239,122.61380361887451,0.0
1151,-0.01567199670838178,-0.0022451352328168987,121.55861214981365,0.0
1152,-0.014647937254501343,-0.001241945350681217,120.50119481883517,0.0
1153,-0.013864615201746266,-0.00039237015568246015,119.44365608521126,0.0
1154,-0.013354369071873167,0.0002441855626308723,118.38797467085655,0.0
1155,-0.013102904547530587,0.0006443986331239664,117.33600621730683,0.0
1156,-0.013062926895449606,0.000818131297680448,116.28948653379597,0.0
1157,-0.013170982617264574,0.0008008953922778473,115.25003533990842,0.0
1158,-0.013363138444644379,0.0006438387992880694,114.21916041357481,0.0
1159,-0.013586261584123063,0.00040346835789104854,113.1982620627363,0.0
1160,-0.013803360007071724,0.00013290531833714956,112.18863784664374,0.0
1161,-0.013993222360194329,-0.00012423309935612425,111.19148748033575,0.0
1162,-0.014146079437510624,-0.00033699798005548833,110.20791786322646,0.0
1163,-0.01425787062465929,-0.000487625562893095,109.23894817983977,0.0
1164,-0.014325699606847143,-0.000570098938367966,108.28551502747892,0.0
1165,-0.014346170499297492,-0.0005875595758706735,107.34847753196625,0.0
1166,-0.014316796183171686,-0.0005492742001775842,106.42862241849635,0.0
1167,-0.014239143240295194,-0.0004676597968729515,105.52666901010106,0.0
1168,-0.014121480047693211,-0.00035567306025230134,104.64327413121586,0.0
1169,-0.013978862852024205,-0.00022474871559308168,103.77903689837557,0.0
1170,-0.013829813709169358,-8.34301646362667e-05,102.93450338416162,0.0
1171,-0.01369051122196746,6.3172089771837e-05,102.11017114419501,0.0
1172,-0.013568921313119606,0.0002130036269425193,101.3064936002394,0.0
1173,-0.013461762748965498,0.00036581146612560324,100.52388427538006,0.0
1174,-0.01335626411669929,0.0005212659599212897,99.76272087979751,0.0
1175,-0.013236624125156044,0.0006769456967179417,99.0233492479003,0.0
1176,-0.013092837581562898,0.0008268207400557474,98.30608712953848,0.0
1177,-0.012928182726076999,0.000960841404548472,97.61122783973099,0.0
1178,-0.012761894615148888,0.0010659960909023684,96.93904377282448,0.0
1179,-0.01262534201954864,0.0011287866191998157,96.2897897882971,0.0
1180,-0.012552626232281063,0.0011386035002779876,95.66370647654983,0.0
1181,-0.012568822227713225,0.0010911236567596964,95.06102331402069,0.0
1182,-0.012680136663529908,0.0009907345705852154,94.48196171783773,0.0
1183,-0.012869659827942826,0.0008511723387241227,93.92673801102023,0.0
1184,-0.013100387447837165,0.0006940064487548431,93.39556630996705,0.0
1185,-0.013324537756083754,0.0005451816144375155,92.88866134666061,0.0
1186,-0.013495895160848575,0.00043036237149229526,92.40624123868325,0.0
1187,-0.013580912456202241,0.0003701604730145083,91.94853022081622,0.0
1188,-0.013565065610132333,0.0003763673953016053,91.51576135268536,0.0
1189,-0.013453138167750222,0.0004500659146729061,91.10817921765837,0.0
1190,-0.013264625920491626,0.0005820393633993021,90.72604262900384,0.0
1191,-0.01302702925853902,0.00075536314148228,90.36962736021765,0.0
1192,-0.012769752757717188,0.0009495776951787175,90.03922891742899,0.0
1193,-0.012519954135619333,0.0011454981731404451,89.73516537294226,0.0
1194,-0.012300015838128247,0.0013295609632594416,89.45778028028192,0.0
1195,-0.012125435882697147,0.0014966538303581144,89.207445692611,0.0
1196,-0.01200231980625099,0.001650618521563663,88.98456530812992,0.0
1197,-0.011924943649735899,0.0018020361906472316,88.7895777680643,0.0
1198,-0.01187514046504166,0.00196347238990526,88.62296013516564,0.0
1199,-0.011825614936126393,0.002142999235140069,88.48523158332596,0.0
1200,-0.01174826653071887,0.002337408371410209,88.37695733200695,0.0
1201,-0.011626483327808362,0.0025269197337383915,88.29875286277235,0.0
1202,-0.011468058392336328,0.0026732140598107607,88.25128845937174,0.0
1203,-0.011313967324062283,0.002722161638788922,88.23529411764706,1.0
1204,-0.01123847397670487,0.002611688088436074,88.23628307451703,0.0
1205,-0.011337989105211369,0.0022839586464035054,88.23924585347015,0.0
1206,-0.01170928172374006,0.001699760361747463,88.24417651446403,0.0
1207,-0.01242119340144508,0.0008519773430599796,88.2510693785677,0.0
1208,-0.013486972712153447,-0.00022527449064133564,88.25991902535857,0.0
1209,-0.014845745633848927,-0.0014547555830239913,88.27072029041216,0.0
1210,-0.01636061820487629,-0.002722980946151228,88.28346826288362,0.0
1211,-0.01783714388401128,-0.0038954416029138225,88.29815828317861,0.0
1212,-0.019060033236644822,-0.004837679495092467,88.31478594071243,0.0
1213,-0.019839789563065712,-0.005438108898554643,88.33334707175543,0.0
1214,-0.020056759435495328,-0.0056277848745044405,88.35383775736352,0.0
1215,-0.019689805618725967,-0.005392800125797702,88.3762543213921,0.0
1216,-0.01882094520234023,-0.004776571147165263,88.40059332859205,0.0
1217,-0.01761456226400729,-0.0038715603207595643,88.42685158278655,0.0
1218,-0.016277601819873262,-0.0028023713055725413,88.45502612512725,0.0
1219,-0.015012657331334634,-0.0017040197050028198,88.48511423242874,0.0
1220,-0.013977193753499751,-0.0007000485654601898,88.51711341558003,0.0
1221,-0.013259072988217543,0.00011514637361913574,88.55102141803184,0.0
1222,-0.01287250428778579,0.0006867351153954572,88.58683621435887,0.0
1223,-0.012771958870185323,0.0010014775023235267,88.6245560088956,0.0
1224,-0.012876830595580459,0.001082170315148322,88.66417923444502,0.0
1225,-0.013098032560017988,0.0009768417593925389,88.7057045510592,0.0
1226,-0.01335920727427912,0.0007457637374119825,88.74913084489069,0.0
1227,-0.01360858330296947,0.0004492691266686777,88.79445722711392,0.0
1228,-0.013821136742601653,0.00013860647360986015,88.84168303291604,0.0
1229,-0.013993374391390787,-0.00014905923005300263,88.89080782055599,0.0
1230,-0.014134258278423545,-0.00039154265492736184,88.94183137049158,0.0
1231,-0.01425572270037566,-0.0005793708708900394,88.99475368457327,0.0
1232,-0.014365380700645376,-0.0007117712204313576,89.04957498530459,0.0
1233,-0.014462819081615116,-0.0007923670345023888,89.10629571516816,0.0
1234,-0.014539642066096023,-0.000825711977172334,89.16491653601715,0.0
1235,-0.014582396163113838,-0.000815273263476626,89.22543832853096,0.0
1236,-0.014576931477524844,-0.0007629280950767875,89.28786219173543,0.0
1237,-0.014512730107490284,-0.000669609532654511,89.35218944258665,0.0
1238,-0.014386108644754807,-0.0005365117118516312,89.41842161561772,0.0
1239,-0.014201673253289733,-0.00036625594256224143,89.48656046264882,0.0
1240,-0.013971781441653813,-0.0001635859008286597,89.55660795255939,0.0
1241,-0.013714107302434496,6.45794366948934e-05,89.6285662711227,0.0
1242,-0.013447862291482694,0.0003096459620084435,89.70243782090205,0.0
1243,-0.013189736855786623,0.0005621286656187132,89.77822522120894,0.0
1244,-0.012950896566777833,0.000812398900495271,89.85593130812227,0.0
1245,-0.012736099970987003,0.0010511524026017983,89.93555913456889,0.0
1246,-0.012545221349342712,0.0012695249848263177,90.0171119704652,0.0
1247,-0.012376512570916843,0.0014589733436151267,90.10059330291962,0.0
1248,-0.012230263691125051,0.0016111758887418781,90.18600683649588,0.0
1249,-0.012111376454995621,0.0017182387211478571,90.27335649353698,0.0
1250,-0.012029745125143952,0.0017733994708472557,90.3626464145501,0.0
1251,-0.01199807987298653,0.0017722355420791906,90.45388095865188,0.0
1252,-0.012027676226084371,0.0017141668327324854,90.54706470407484,0.0
1253,-0.012123363905737091,0.0016038727015249621,90.64220244873428,0.0
1254,-0.01227922075739816,0.0014521822392915829,90.7392992108563,0.0
1255,-0.012476510127075215,0.0012760737533355025,90.83836022966686,0.0
1256,-0.012684778224994508,0.0010976153431288675,90.93939096614196,0.0
1257,-0.012866307770996158,0.0009419327457874378,91.0423971038192,0.0
1258,-0.012983280225576658,0.0008345188872459321,91.14738454967113,0.0
1259,-0.013006096258578289,0.0007983224160448331,91.2543594350403,0.0
1260,-0.012920510772133471,0.0008510259055579286,91.36332811663655,0.0
1261,-0.012731010046923397,0.001002761828602112,91.47429717759677,0.0
1262,-0.012458748398618377,0.0012542905496093991,91.58727342860759,0.0
1263,-0.012134472971305313,0.0015954943788418405,91.7022639090911,0.0
1264,-0.01178941802771906,0.002004035943876305,91.81927588845436,0.0
1265,-0.01144871657901661,0.002444239604678919,91.93831686740299,0.0
1266,-0.011131258350834158,0.0028666321821127867,92.05939457931929,0.0
1267,-0.010857006242763973,0.0032089683422340536,92.1825169917054,0.0
1268,-0.010658737004135681,0.0033997490028508104,92.3076923076923,1.0
1269,-0.010591905616888535,0.0033650238645011477,92.4740370506337,0.0
1270,-0.01073560526774301,0.003038576497644786,92.71874760413226,0.0
1271,-0.011180179609581455,0.0023745307084858565,93.03919588294919,0.0
1272,-0.012002255681195244,0.001360280115525682,93.43303994999746,0.0
1273,-0.01323378690146319,2.682186691036945e-05,93.89817920499738,0.0
1274,-0.014835581780846227,-0.0015465677392212103,94.43271320662367,0.0
1275,-0.01668584745323478,-0.0032356529080563873,95.03490325502796,0.0
1276,-0.01859017481978972,-0.00488337061284019,95.70313598192008,0.0
1277,-0.020312574690706964,-0.006319618874901566,96.43588829286773,0.0
1278,-0.021620229268120347,-0.007385632057487145,97.23169308667482,0.0
1279,-0.022330173938476992,-0.007958556277207306,98.08910524423253,0.0
1280,-0.022345714428025718,-0.007971497892874504,99.00666743803426,0.0
1281,-0.021673874694225694,-0.007425071266397346,99.982875367087,0.0
1282,-0.02042095777102147,-0.00638813673953454,101.01614207343299,0.0
1283,-0.018769186315010632,-0.004987579905090886,102.10476104894809,0.0
1284,-0.016941534987508763,-0.0033891170442089578,103.24686789747656,0.0
1285,-0.015163377017629,-0.0017727389514788096,104.44040038065398,0.0
1286,-0.013628597733172737,-0.00030720670545765277,105.68305674894413,0.0
1287,-0.012475318238117863,0.0008721107977364951,106.97225234546958,0.0
1288,-0.011773505268724357,0.0016787009139422656,108.3050745721064,0.0
1289,-0.011524368126142515,0.002081785978903409,109.67823642786902,0.0
1290,-0.011669817765375932,0.002104388998952586,111.08802897136,0.0
1291,-0.01210923038868463,0.001813869843711089,112.5302732240049,0.0
1292,-0.012720114243497383,0.0013073157758877944,114.00027222011366,0.0
1293,-0.013378996817850687,0.000694710090865146,115.49276412346077,0.0
1294,-0.013979061759935917,8.275805657856686e-05,117.00187756632054,0.0
1295,-0.014441899524378436,-0.0004382906758146745,118.52109062174988,0.0
1296,-0.014722153838173357,-0.000803347936165397,120.04319508656994,0.0
1297,-0.014805560789916938,-0.000976223031863888,121.56026802069083,0.0
1298,-0.014702396316730156,-0.0009487788909137151,123.06365274391773,0.0
1299,-0.014439137880372203,-0.000736546151817855,124.54395171553986,0.0
1300,-0.014050890182632168,-0.0003721663832626677,125.99103389173503,0.0
1301,-0.013575961307614532,0.0001019377221247907,127.39405924382858,0.0
1302,-0.013052522938550963,0.000640476178632893,128.74152309616454,0.0
1303,-0.01251633411819136,0.0012009432000433772,130.0213227735744,0.0
1304,-0.011998517569904193,0.0017475390558601787,131.2208487038252,0.0
1305,-0.011523180563643676,0.0022532411700951155,132.32710157292132,0.0
1306,-0.011105590067081469,0.0027001813032883955,133.32683636214657,0.0
1307,-0.01075194446944912,0.0030786847308192,134.20673309996246,0.0
1308,-0.01046129126056589,0.0033854464524369693,134.9535929522129,0.0
1309,-0.010229160361143528,0.0036213570411192135,135.55455688589583,0.0
1310,-0.010051635978975014,0.003789444874108674,135.99734263582917,0.0
1311,-0.009928338472431597,0.0038932785052938233,136.2704941665486,0.0
1312,-0.009863203482826509,0.00393599651798239,136.36363636363637,1.0
1313,-0.009862790735531892,0.003919945158712742,136.32403655990657,0.0
1314,-0.009932804477794446,0.0038467589394940833,136.20718165113604,0.0
1315,-0.010074275068079815,0.0037176602218635104,136.01617084600798,0.0
1316,-0.010281168710727949,0.0035337963190722743,135.75431992734352,0.0
1317,-0.01054081220030068,0.003296552489806389,135.4251277103593,0.0
1318,-0.01083738756607341,0.0030079152426867152,135.03224273749433,0.0
1319,-0.011157234963432214,0.0026710355737101033,134.57943067866356,0.0
1320,-0.01149356045789803,0.0022910957406834997,134.07054285190804,0.0
1321,-0.011848103735544993,0.0018764042814746517,133.50948622086509,0.0
1322,-0.0122285364132181,0.0014393857876589104,132.9001951645439,0.0
1323,-0.01264226652606895,0.0009969036255424461,132.24660525363757,0.0
1324,-0.013089007530650657,0.0005692839259717684,131.55262920784068,0.0
1325,-0.013555243156798102,0.00017759430939843644,130.82213515189457,0.0
1326,-0.014013388921405778,-0.00016081216227742693,130.05892723554516,0.0
1327,-0.014427183735373383,-0.00043783617451105495,129.2667286351619,0.0
1328,-0.01476293156826423,-0.0006599600133981622,128.44916691301464,0.0
1329,-0.015004022430582057,-0.0008516560867678595,127.60976167444772,0.0
1330,-0.015164252776078533,-0.0010551919313816016,126.75191443350379,0.0
1331,-0.015294596720495237,-0.0013257164600231639,125.8789005737964,0.0
1332,-0.015478948345486316,-0.0017215760779219881,124.99386327332392,0.0
1333,-0.015817167114125598,-0.0022911450124618385,124.09980924903984,0.0
1334,-0.01639791908697379,-0.003058706800571316,123.19960616884832,0.0
1335,-0.017267978705057536,-0.004012699681376781,122.29598157472873,0.0
1336,-0.01840720798289647,-0.005099626881765345,121.39152316033241,0.0
1337,-0.019718105404425545,-0.006226017790448592,120.48868024907061,0.0
1338,-0.021035330857517243,-0.007269149542783397,119.58976632386714,0.0
1339,-0.022154887935700904,-0.008095184548254624,118.69696246686831,0.0
1340,-0.022876536283507488,-0.008581478551222857,117.81232157600896,0.0
1341,-0.02304861215256516,-0.008638592560351103,116.9377732350047,0.0
1342,-0.022603289655368043,-0.008227364294121126,116.07512912370707,0.0
1343,-0.021572825519936063,-0.0073673466462444315,115.22608886650129,0.0
1344,-0.02008267086892914,-0.0061347775942384,114.39224622728773,0.0
1345,-0.018323784040935022,-0.004650534959103491,113.57509557034881,0.0
1346,-0.016512026483113115,-0.00306066604422159,112.77603851690021,0.0
1347,-0.014845525552275137,-0.001513539006857067,111.99639073723137,0.0
1348,-0.013470583644076873,-0.0001381160605460521,111.23738882796667,0.0
1349,-0.012463417508117315,0.0009727416390302242,110.50019723306976,0.0
1350,-0.011829929256360778,0.001771425296978396,109.78591517573959,0.0
1351,-0.011520500264463444,0.0022564559568388183,109.0955835763018,0.0
1352,-0.011453069857330236,0.002466051484253066,108.43019193859995,0.0
1353,-0.011536593051046528,0.002466566611185378,107.79068519426134,0.0
1354,-0.011688545061798035,0.002338537829033824,107.17797050060467,0.0
1355,-0.011843628610105439,0.002162955156359143,106.59292399391346,0.0
1356,-0.011954716565132653,0.0020097983167528706,106.03639750539442,0.0
1357,-0.011989741989407544,0.0019300768810918997,105.50922525243594,0.0
1358,-0.011928767445411345,0.0019518410049210204,105.01223052285826,0.0
1359,-0.011763867018641492,0.0020800255755689116,104.54623237479026,0.0
1360,-0.01150170325096044,0.0022995856083603194,104.11205237969877,0.0
1361,-0.011166208018145477,0.002581121995037016,103.71052144104364,0.0
1362,-0.010797857322578184,0.002888011114699826,103.34248672612681,0.0
1363,-0.01044721465309154,0.0031839044933558943,103.00881875406941,0.0
1364,-0.010163213406508092,0.0034393856489835666,102.71041868860625,0.0
1365,-0.00997966935162878,0.00363663812468741,102.44822589067532,0.0
1366,-0.009905141216472166,0.0037712659403841557,102.22322579275067,0.0
1367,-0.009920525081438824,0.00385092935895752,102.03645816470771,0.0
1368,-0.009985928211403825,0.003891135804593839,101.88902584991447,0.0
1369,-0.010054747724138243,0.00390919599625804,101.782104060459,0.0
1370,-0.010090125398557347,0.003917825701214052,101.71695033222349,0.0
1371,-0.010078172478074477,0.003919990813122175,101.69491525423729,1.0
1372,-0.010033694236572145,0.003906304600647181,101.73898633810498,0.0
1373,-0.009996874567364844,0.003855661505329267,101.86864458084105,0.0
1374,-0.010022383589421724,0.0037390040954344687,102.08035134803747,0.0
1375,-0.01016460182526817,0.0035253849852430992,102.37091188142674,0.0
1376,-0.010463475496032574,0.003188993290017445,102.7374204581944,0.0
1377,-0.010934827808578405,0.0027156709865535384,103.17721061502695,0.0
1378,-0.011567144065473866,0.0021076448733020757,103.68780936511915,0.0
1379,-0.0123246484104248,0.0013856457393882928,104.26689450365133,0.0
1380,-0.013154699176992976,0.0005881272924289728,104.9122542338924,0.0
1381,-0.013996726358047216,-0.0002322131158738537,105.62174845948634,0.0
1382,-0.014790244521101963,-0.0010140674962045388,106.3932711846149,0.0
1383,-0.015480565268386032,-0.0016945867393475728,107.22471354753762,0.0
1384,-0.016022138324819156,-0.0022171238781247818,108.11392708867577,0.0
1385,-0.01638044917431475,-0.00253889427691122,109.05868692556336,0.0
1386,-0.016533789147411604,-0.0026377861841477756,110.05665457688097,0.0
1387,-0.01647593751786133,-0.002517506093491617,111.10534024936179,0.0
1388,-0.016220010289189193,-0.002210190639693788,112.20206447734317,0.0
1389,-0.01580271392609714,-0.0017756446763304557,113.34391908764516,0.0
1390,-0.015287293246133529,-0.001296573877842026,114.52772755460175,0.0
1391,-0.014762860482957892,-0.000869639795090365,115.75000491348267,0.0
1392,-0.014337824017377137,-0.000592872395439802,117.00691751689523,0.0
1393,-0.014126079021592429,-0.0005508277236760493,118.29424304921328,0.0
1394,-0.014226582302881086,-0.000799681724548176,119.60733135910857,0.0
1395,-0.014699589395428066,-0.0013549600333077636,120.94106682939457,0.0
1396,-0.015545327356221234,-0.002184592877443933,122.28983317495162,0.0
1397,-0.016692031094198992,-0.0032093317042741747,123.64748174027453,0.0
1398,-0.01799909657602387,-0.004311313843392306,125.00730455308846,0.0
1399,-0.01927740978067509,-0.0053499429774114425,126.36201357225748,0.0
1400,-0.020323656164690458,-0.006182639243181117,127.7037277371366,0.0
1401,-0.020960520653269456,-0.006686821540659982,129.02396956925207,0.0
1402,-0.02107223866257961,-0.006779054191362817,130.31367318077506,0.0
1403,-0.020626151324364305,-0.00642776873498535,131.5632055903648,0.0
1404,-0.0196753470037397,-0.005657264282073957,132.7624032165192,0.0
1405,-0.01834325946956534,-0.004542481865671996,133.90062529174153,0.0
1406,-0.01679587891473774,-0.003195898774161393,134.96682569847673,0.0
1407,-0.015209424791130284,-0.0017493593367052373,135.94964435341404,0.0
1408,-0.013740813690330277,-0.0003344322641469506,136.837518748962,0.0
1409,-0.012506098604065805,0.0009351599715508845,137.6188155957721,0.0
1410,-0.011569535118436185,0.001976271124613502,138.2819817049044,0.0
1411,-0.010943708020855519,0.002742711228598329,138.81571232234535,0.0
1412,-0.010599213586820684,0.0032251738401853597,139.20913411662949,0.0
1413,-0.010480615318809823,0.0034458296857699045,139.45199897218018,0.0
1414,-0.010524063962870377,0.0034494949214084235,139.53488372093022,1.0
1415,-0.010671741228963178,0.0032935248582360043,139.48832179146677,0.0
1416,-0.010879607092899037,0.003038318471212428,139.35087548223072,0.0
1417,-0.011117569694779545,0.002739710119449174,139.1261512963158,0.0
1418,-0.011364186455744725,0.002443804318600696,138.81804985493727,0.0
1419,-0.01160005824992955,0.0021841980301170933,138.4307208564964,0.0
1420,-0.011804213379084766,0.0019811730451012666,137.9685180545702,0.0
1421,-0.011955847346550627,0.0018423512637466858,137.43595498383783,0.0
1422,-0.012040644677396678,0.0017644029077299526,136.83766208255616,0.0
1423,-0.012058090620832327,0.0017355414687659752,136.17834577056345,0.0
1424,-0.012025165851452402,0.001738605347388333,135.4627499469592,0.0
1425,-0.011973266001321956,0.001754465660080984,134.69562027530648,0.0
1426,-0.011938510865376242,0.0017653575042634237,133.8816715297045,0.0
1427,-0.011949162069339684,0.0017576171774684342,133.02555818514116,0.0
1428,-0.0120157525691434,0.0017233305803917918,132.13184835233218,0.0
1429,-0.012128616647611657,0.0016606050166103907,131.20500108238735,0.0
1430,-0.01226411777457174,0.0015725190561338754,130.24934700115944,0.0
1431,-0.012396678884784724,0.0014651567612663278,129.26907217757173,0.0
1432,-0.012510880510772345,0.001345349732341618,128.26820508468717,0.0
1433,-0.012607887198196987,0.0012187442054820202,127.25060647651418,0.0
1434,-0.012703318123291592,0.0010885932962508733,126.2199619769925,0.0
1435,-0.01281796615603274,0.0009553563667703841,125.17977715950663,0.0
1436,-0.012966335521118234,0.0008169218401116551,124.1333748847318,0.0
1437,-0.013148992676176535,0.0006691760374036709,123.08389466064908,0.0
1438,-0.013352641578269918,0.0005067425058105639,122.03429379016572,0.0
1439,-0.01355768042671887,0.0003239281730018598,120.98735007795099,0.0
1440,-0.013748961141669043,0.00011608214224868472,119.94566587791239,0.0
1441,-0.013923749570536464,-0.00011844018071490998,118.91167327531552,0.0
1442,-0.01409240436745893,-0.0003757627041382004,117.88764021212204,0.0
1443,-0.014271140986917718,-0.0006438900705234604,116.87567737999439,0.0
1444,-0.01447023683375497,-0.0009008932597244358,115.87774572201326,0.0
1445,-0.01468308674193704,-0.001114939358877247,114.89566440098535,0.0
1446,-0.014880887214155035,-0.0012470591860001884,113.93111910889372,0.0
1447,-0.015015220731409937,-0.00125699303179566,112.9856706082498,0.0
1448,-0.015027987915533416,-0.0011116209803229225,112.06076341161594,0.0
1449,-0.014866203226096464,-0.0007945838247228172,111.15773452021423,0.0
1450,-0.014498395937277734,-0.0003149936342364563,110.27782215621554,0.0
1451,-0.01392927241170473,0.00028714470037676415,109.4221744359566,0.0
1452,-0.013209348770159406,0.0009408797546738868,108.59185794294338,0.0
1453,-0.012436374999775278,0.0015508123504633104,107.7878661700834,0.0
1454,-0.011746003590089935,0.0020099770484599596,107.01112781019069,0.0
1455,-0.011290896545640899,0.002217394933533261,106.26251488248387,0.0
1456,-0.011210442697596027,0.0020972229166409447,105.5428506906312,0.0
1457,-0.011596804053650425,0.0016156171248334706,104.85291761497082,0.0
1458,-0.012465805443694255,0.0007914636075874192,104.19346474794892,0.0
1459,-0.013741790782192155,-0.0003018910051072175,103.5652153876724,0.0
1460,-0.015263106511754412,-0.0015449994101705456,102.96887440987356,0.0
1461,-0.01680954315279049,-0.0027896660803224727,102.4051355436397,0.0
1462,-0.018146344073755486,-0.0038821339767786027,101.87468858108323,0.0
1463,-0.0190736431952757,-0.0046875627726075805,101.3782265558301,0.0
1464,-0.019467767587091882,-0.00511093654601969,100.9164529299084,0.0
1465,-0.019302982665802725,-0.005110387748352362,100.49008883344337,0.0
1466,-0.018648409894465715,-0.004700715078115604,100.09988040664534,0.0
1467,-0.017642754684974938,-0.003947114052570932,99.74660629904939,0.0
1468,-0.01645613714010364,-0.002951225023408133,99.43108538698468,0.0
1469,-0.015251298802334631,-0.0018330024696784528,99.15418477698599,0.0
1470,-0.014154961877401095,-0.0007123219398054693,98.91682817050071,0.0
1471,-0.013245165469997879,0.00030632612693528346,98.7200046740079,0.0
1472,-0.012554229008170449,0.001143970058034874,98.56477814880576,0.0
1473,-0.012082023289220823,0.001751549625344045,98.45229720653286,0.0
1474,-0.01181212120816723,0.002109322875784421,98.38380597031639,0.0
1475,-0.01172444434654931,0.002222857467847237,98.36065573770492,1.0
1476,-0.011801153958534122,0.0021173757175014275,98.42947690621136,0.0
1477,-0.01202601044201054,0.0018319001840864187,98.63170861143712,0.0
1478,-0.01237979804411554,0.001414033829657899,98.96173509605639,0.0
1479,-0.012835166661291331,0.0009155744568515067,99.41479141172668,0.0
1480,-0.013353707682220129,0.0003887237929129059,99.98682439560075,0.0
1481,-0.013886877630307394,-0.00011748528948234016,100.67437011692647,0.0
1482,-0.014380993071100726,-0.0005607689447467267,101.47444350199932,0.0
1483,-0.014785234757167065,-0.0009090779913021567,102.3844365668647,0.0
1484,-0.015060660609759259,-0.0011435422712493524,103.40202223041504,0.0
1485,-0.015187857483147677,-0.0012602164195177478,104.52506109292086,0.0
1486,-0.015171147793769614,-0.0012699914547844586,105.75150888304476,0.0
1487,-0.015038087587574286,-0.001196309041587185,107.07932252954794,0.0
1488,-0.01483408815046448,-0.0010707752920563105,108.5063630274615,0.0
1489,-0.014613100213519532,-0.0009272942057977746,110.03029346543457,0.0
1490,-0.014426221268623248,-0.0007957773000199287,111.64847078353816,0.0
1491,-0.014310672114913969,-0.0006967014248340769,113.35783006167074,0.0
1492,-0.014281690666565552,-0.0006376997820173147,115.15476042184004,0.0
1493,-0.014329385094573259,-0.0006129772427692086,117.03497198867117,0.0
1494,-0.014421484144541037,-0.0006057176417957855,118.99335381895467,0.0
1495,-0.014511465795570255,-0.0005929414675692557,121.02382331148824,0.0
1496,-0.014550169391063683,-0.0005516534990154706,123.11916837120683,0.0
1497,-0.01449811217952906,-0.0004647564852539495,125.27088455223316,0.0
1498,-0.01433553586353395,-0.00032520959074586875,127.46901056207001,0.0
1499,-0.014067672729754704,-0.0001373036722580367,129.70196688083595,0.0
1500,-0.013723713142070031,8.536381691870112e-05,131.95640382335964,0.0
1501,-0.013349336668880675,0.00032476322874673644,134.21706710853354,0.0
1502,-0.012994262142813734,0.0005648923831513028,136.46669082250634,0.0
1503,-0.012697778435383882,0.0007980161929641667,138.68592944557813,0.0
1504,-0.012476187427241029,0.0010287765112431584,140.8533421770503,0.0
1505,-0.012316046402971096,0.0012746612450046252,142.9454438986304,0.0
1506,-0.012175803653911466,0.00156216515626982,144.936837471479,0.0
1507,-0.011996138108957359,0.0019190833073640433,146.80044133265963,0.0
1508,-0.011716792227998067,0.002364488398485211,148.50782420603178,0.0
1509,-0.01129581611610711,0.0028987696934318257,150.02965487792179,0.0
1510,-0.010726466110772681,0.0034964171973759983,151.3362692293464,0.0
1511,-0.010047501764554856,0.004103894635275598,152.39834907569045,0.0
1512,-0.00934390875955473,0.00464398156067415,153.18769812149083,0.0
1513,-0.008736766744950848,0.005026554657670325,153.67809009698303,0.0
1514,-0.00836293273253549,0.005164220457414081,153.84615384615384,1.0
1515,-0.008347390870396001,0.00498987009656855,153.79060855448003,0.0
1516,-0.008773338782299725,0.004472450214341989,153.6268675780237,0.0
1517,-0.009656809473694933,0.003627280270180029,153.35958900883998,0.0
1518,-0.010933060887714768,0.0025181672198999793,152.9938024115663,0.0
1519,-0.012460351073557118,0.0012502275330268844,152.53484644239023,0.0
1520,-0.01404283747352953,-4.562978688408452e-05,151.98830688838575,0.0
1521,-0.015468906006179409,-0.0012336674395387695,151.3599561884862,0.0
1522,-0.01655592301792912,-0.002195510905168118,150.65569536273605,0.0
1523,-0.01718933724516947,-0.0028489996406400745,149.8814991294747,0.0
1524,-0.017344874618654058,-0.0031598890683779126,149.0433648375706,0.0
1525,-0.0170874687148773,-0.003144272357373223,148.1472656888569,0.0
1526,-0.016547967492063907,-0.0028617453036658075,147.19910857973176,0.0
1527,-0.015885735805957635,-0.002401390250104804,146.20469675467558,0.0
1528,-0.015249252086158786,-0.0018640717615366368,145.16969734132752,0.0
1529,-0.014746237829636981,-0.0013449889131073693,144.09961372887005,0.0
1530,-0.014430294826779164,-0.0009198836858192877,142.9997626599405,0.0
1531,-0.014304604497615505,-0.000637014274884822,141.87525583145367,0.0
1532,-0.014337634856660357,-0.0005154001906443399,140.7309857412142,0.0
1533,-0.014482993301245868,-0.0005483964365507294,139.57161547411798,0.0
1534,-0.014696131254018124,-0.0007107058733305103,138.40157209277956,0.0
1535,-0.014943678684905612,-0.0009666398586796313,137.22504328102048,0.0
1536,-0.015205035613267871,-0.0012777255779440817,136.04597688309624,0.0
1537,-0.015468767158222789,-0.001608423055097596,134.86808298508114,0.0
1538,-0.015727390118207216,-0.0019294906210840163,133.69483819575382,0.0
1539,-0.015973385941950215,-0.002219196383997953,132.52949180101854,0.0
1540,-0.016197593671800962,-0.002462980133715281,131.37507348687657,0.0
1541,-0.01638960228593045,-0.0026522959636817948,130.23440234992088,0.0
1542,-0.01653907485596308,-0.002783263990084977,129.1100969401303,0.0
1543,-0.016637125741156937,-0.0028555257843645336,128.00458610743536,0.0
1544,-0.016677439067068665,-0.002871433170639257,126.92012045033906,0.0
1545,-0.016657196684045424,-0.0028354841576279767,125.85878419119015,0.0
1546,-0.01657784947447046,-0.0027538017461664712,124.82250732805895,0.0
1547,-0.01644548673313707,-0.0026334469434400104,123.81307793722245,0.0
1548,-0.016270357588123074,-0.0024814524846463984,122.8321545228088,0.0
1549,-0.016065188026633412,-0.0023036202815514637,121.8812783310583,0.0
1550,-0.015842320819804852,-0.0021032894520066243,120.96188556588075,0.0
1551,-0.015610226321075492,-0.001880395168977276,120.07531945995812,0.0
1552,-0.015370364082241817,-0.001631155014591828,119.22284217161615,0.0
1553,-0.015115516234883261,-0.0013486185900333366,118.40564649219415,0.0
1554,-0.014830464237086366,-0.0010241131597221885,117.62486736181319,0.0
1555,-0.014495285620319301,-0.0006493645160749726,116.88159320344671,0.0
1556,-0.014090775275480194,-0.00021884427818088192,116.1768770962221,0.0
1557,-0.013604769615746441,0.00026822769701709704,115.51174781911797,0.0
1558,-0.013037675055996269,0.0008067568283530943,114.8872208058826,0.0
1559,-0.0124054209687929,0.001385839362712942,114.30430906129905,0.0
1560,-0.011738466741638096,0.001989992376027431,113.76403409809504,0.0
1561,-0.011076438992083116,0.002601146614840821,113.26743696307881,0.0
1562,-0.010459382194697978,0.0032007230184380965,112.815589430736,0.0
1563,-0.00991813374597041,0.0037710481626184343,112.40960545282547,0.0
1564,-0.009467331544921137,0.004295569940277472,112.0506529637706,0.0
1565,-0.009104301533510344,0.00475778262810537,111.73996615419618,0.0
1566,-0.008815229164637737,0.0051393332560810455,111.47885833919932,0.0
1567,-0.00858706271774462,0.005418264069144463,111.26873556430941,0.0
1568,-0.008420746713360551,0.005568547835819652,111.1111111111111,1.0
1569,-0.008340048465718602,0.005561862942403455,110.98334906802464,0.0
1570,-0.008391253156040335,0.0053719350795275594,110.86157950389398,0.0
1571,-0.008632142275375027,0.004980896027456093,110.74555721183128,0.0
1572,-0.009112765351226702,0.004386248672697529,110.63504062735237,0.0
1573,-0.009853994601632051,0.003606484402333052,110.52979158742527,0.0
1574,-0.010831369471103898,0.002683404457935958,110.42957510234932,0.0
1575,-0.011970615976317791,0.0016798185139997382,110.33415913993883,0.0
1576,-0.013157695971846019,0.000672399781701744,110.24331442152739,0.0
1577,-0.01426144910797602,-0.00025923465428499565,110.15681422934871,0.0
1578,-0.015162562774105196,-0.001045055715639627,110.0744342248883,0.0
1579,-0.015780387010712178,-0.0016360410615231429,109.99595227783246,0.0
1580,-0.0160898324567506,-0.0020119058736163833,109.92114830527521,0.0
1581,-0.01612388388623691,-0.002183404562734352,109.84980412087232,0.0
1582,-0.015961786155242873,-0.002188746775052205,109.78170329365899,0.0
1583,-0.015707072856020368,-0.0020850478186712857,109.71663101627402,0.0
1584,-0.01546207308606479,-0.0019368304565281639,109.65437398235602,0.0
1585,-0.015305848467653373,-0.0018041374849547384,109.59472027289956,0.0
1586,-0.015280855365774115,-0.0017327001076947986,109.53745925137858,0.0
1587,-0.015390629885191416,-0.0017479217146104007,109.48238146746306,0.0
1588,-0.015607379243090273,-0.0018534129234986855,109.42927856917177,0.0
1589,-0.01588558867100045,-0.0020337490359884146,109.37794322331855,0.0
1590,-0.01617652951149098,-0.002260284466975079,109.32816904412398,0.0
1591,-0.016439263501979794,-0.002498417479347118,109.279750529876,0.0
1592,-0.016645965614622817,-0.0027146860348330956,109.23248300753447,0.0
1593,-0.016782035349884136,-0.002882406309172993,109.18616258518396,0.0
1594,-0.01684329071143974,-0.002985085712143541,109.14058611224742,0.0
1595,-0.01683282682167781,-0.0030173923472081227,109.09555114738001,0.0
1596,-0.016759053920126978,-0.002983925678721907,109.05085593396926,0.0
1597,-0.016634882355930827,-0.0028963539530994916,109.00629938317071,0.0
1598,-0.01647695968152424,-0.0027696600075552778,108.96168106441276,0.0
1599,-0.016303783300658427,-0.0026182908485866086,108.91680120330598,0.0
1600,-0.01613227526619124,-0.00245295867343529,108.87146068689354,0.0
1601,-0.015973474572724574,-0.0022786990908420937,108.82546107617866,0.0
1602,-0.015828801999815144,-0.0020945556153746294,108.77860462586465,0.0
1603,-0.015688532553481675,-0.001894937223416378,108.73069431123974,0.0
1604,-0.015533609209641199,-0.0016723241941939554,108.68153386213635,0.0
1605,-0.015340908083037934,-0.0014206462589760507,108.63092780388905,0.0
1606,-0.015090815441143312,-0.0011384182484878154,108.57868150521108,0.0
1607,-0.01477489777081122,-0.0008306799967357718,108.52460123290142,0.0
1608,-0.014400982709957488,-0.0005090002060941408,108.4684942132878,0.0
1609,-0.013993449039954671,-0.00018925486036992843,108.41016870030224,0.0
1610,-0.013587928375568782,0.00011250802783242125,108.34943405007613,0.0
1611,-0.013221496415112945,0.00038520137239107734,108.28610080193192,0.0
1612,-0.012921078354210818,0.0006274768322473204,108.21998076563666,0.0
1613,-0.012693601567712726,0.0008506695511456728,108.15088711477156,0.0
1614,-0.012521119974984517,0.001078691936692577,108.07863448605777,0.0
1615,-0.012362808966502313,0.001344279135793588,108.00303908446664,0.0
1616,-0.012163802933130354,0.0016818473007388672,107.92391879392721,0.0
1617,-0.011868936967073205,0.0021181289702749146,107.84109329342986,0.0
1618,-0.01143817691327315,0.0026624804793654072,107.75438417830915,0.0
1619,-0.010860219977795104,0.003299124197995046,107.66361508647422,0.0
1620,-0.01016133049207807,0.003983474730810934,107.5686118293375,0.0
1621,-0.009407528315764777,0.0046440822320595685,107.46920252717817,0.0
1622,-0.008699330633067097,0.0051906920058542765,107.36521774865777,0.0
1623,-0.008159151623493552,0.005527645771698182,107.25649065419113,0.0
1624,-0.007912282048046199,0.0055705826300530455,107.14285714285714,1.0
1625,-0.008063381590752558,0.00526341291974963,107.00972528155539,0.0
1626,-0.008671828588376852,0.004592092118846898,106.84341352849597,0.0
1627,-0.00973091103572481,0.0035919930781581604,106.64516229994808,0.0
1628,-0.01115697032737254,0.002346705333789806,106.41625543487446,0.0
1629,-0.01279410113230618,0.0009777438226069193,106.15801324695126,0.0
1630,-0.014437004405017509,-0.00037339320066519396,105.87178572391686,0.0
1631,-0.015869311571974982,-0.0015675681942815879,105.55894592322048,0.0
1632,-0.016908843222713497,-0.0024903203446188663,105.22088360727884,0.0
1633,-0.017447439979872182,-0.003069537787279475,104.8589991558314,0.0
1634,-0.017473360433642716,-0.0032848061538830633,104.47469778702641,0.0
1635,-0.017069162459644637,-0.003166628887118295,104.06938411308278,0.0
1636,-0.016385715242581297,-0.00278606654256602,103.64445705073996,0.0
1637,-0.015600502571136592,-0.00223755135377352,103.201305101321,0.0
1638,-0.014872873712042165,-0.0016191078513261967,102.74130201014894,0.0
1639,-0.014309002270537326,-0.0010145662934415067,102.26580281033252,0.0
1640,-0.013945404845034882,-0.00048153208004623755,101.7761402516107,0.0
1641,-0.013753622919433096,-4.714488761959964e-05,101.2736216110434,0.0
1642,-0.013662258955089442,0.00028845825122699424,100.75952587887468,0.0
1643,-0.013587927978282188,0.0005429760240179,100.23510130987829,0.0
1644,-0.01346504205053981,0.0007402838183908726,99.70156332791908,0.0
1645,-0.01326587653324869,0.0008997396731981883,99.16009276931918,0.0
1646,-0.01300626836251362,0.0010292178503424785,98.61183444888093,0.0
1647,-0.012737102398792928,0.0011232817849802848,98.05789603107124,0.0
1648,-0.012525880803701202,0.001166335611206417,97.49934718788589,0.0
1649,-0.012434993170485239,0.0011392474088654544,96.93721902425214,0.0
1650,-0.01250337177157026,0.001027152615633341,96.37250375147366,0.0
1651,-0.012736304787192971,0.0008260649350981211,95.80615458912634,0.0
1652,-0.013105119631167419,0.0005464796741201606,95.23908587595781,0.0
1653,-0.013555354323276102,0.000213124599289827,94.67217337068713,0.0
1654,-0.014019949273900583,-0.00013890725383818275,94.10625472411643,0.0
1655,-0.014433465720110292,-0.00047050848357503073,93.54213010462578,0.0
1656,-0.014744165252749608,-0.0007457389575715036,92.98056295989635,0.0
1657,-0.014922161704220956,-0.000938126833143685,92.42228089857171,0.0
1658,-0.01496294904274079,-0.0010347373392837508,91.86797667650099,0.0
1659,-0.014886131931824602,-0.0010373012721710314,91.3183092731877,0.0
1660,-0.014729495472054521,-0.0009604388416533825,90.7739050450799,0.0
1661,-0.014539195291135792,-0.0008276697365183488,90.2353589433616,0.0
1662,-0.014357992230602,-0.0006663143607212222,89.703235784932,0.0
1663,-0.014214636955165763,-0.000502480670327225,89.17807156627408,0.0
1664,-0.014117885723193082,-0.0003571028338343708,88.66037481090954,0.0
1665,-0.014057529889339797,-0.000243550609901193,88.1506279421048,0.0
1666,-0.014012302377014655,-0.0001668265200402665,87.64928867342726,0.0
1667,-0.013961542938124348,-0.00012399040011745068,87.15679141064635,0.0
1668,-0.013895532076503504,-0.00010532542088709907,86.67354865933005,0.0
1669,-0.013819633240129714,-9.590791520064963e-05,86.19995243329781,0.0
1670,-0.013750011274208234,-7.756283188607434e-05,85.73637565985955,0.0
1671,-0.01370270775535035,-3.148386787036308e-05,85.28317357849323,0.0
1672,-0.013681425249196294,5.8133334323273906e-05,84.84068513029277,0.0
1673,-0.013670707442888867,0.0001993768658512239,84.40923433615684,0.0
1674,-0.013639436284252949,0.00038735046278315377,83.98913166228463,0.0
1675,-0.013555256529280156,0.0005995855370483366,83.58067537210567,0.0
1676,-0.013405437268240094,0.0007938718674028205,83.18415286429313,0.0
1677,-0.013215945217636865,0.0009102434246357625,82.79984199700301,0.0
1678,-0.013059784731246263,0.000878181843267185,82.42801239894379,0.0
1679,-0.01304848165580583,0.000628821915335011,82.06892676831862,0.0
1680,-0.013306168918036971,0.0001103750743251359,81.72284216109784,0.0
1681,-0.01393220451970325,-0.0006963919358787163,81.39001127047814,0.0
1682,-0.014963277641778034,-0.0017664813327799094,81.07068369976734,0.0
1683,-0.016347562961319746,-0.0030263273787067505,80.76510723130988,0.0
1684,-0.01794081504137185,-0.004358953137840355,80.47352909443605,0.0
1685,-0.01952798891066531,-0.00561862967480863,80.19619723578663,0.0
1686,-0.02086601286413325,-0.006652693616682741,79.93336159573732,0.0
1687,-0.021736443049673922,-0.007326278655319225,79.68527539502759,0.0
1688,-0.021993385755406727,-0.007544824287858369,79.45219643609408,0.0
1689,-0.021593529229198976,-0.007269616132146066,79.23438842402307,0.0
1690,-0.02060081087564942,-0.006523193137222742,79.0321223124767,0.0
1691,-0.019166008620819713,-0.005383795617589877,78.845677680419,0.0
1692,-0.017488624965076215,-0.00397048902870793,78.67534414597883,0.0
1693,-0.015772601040983953,-0.0024225380827553105,78.52142282434353,0.0
1694,-0.014187708263219275,-0.0008775595053605876,78.38422783718852,0.0
1695,-0.012845343509121959,0.0005472148343989118,78.26408788182441,0.0
1696,-0.011792287824864361,0.0017674210593992372,78.16134786899323,0.0
1697,-0.011020536989354493,0.0027364230921236845,78.07637063908153,0.0
1698,-0.010487189273548702,0.0034430240710643586,78.0095387674555,0.0
