,PPG_Raw,PPG_Clean,PPG_Rate,PPG_Peaks
0,-1.1138556185045991,0.17547728621308728,102.04550678005056,0.0
1,-1.1173253660330005,0.16478605169685706,102.04550678005056,0.0
2,-1.1253163017939842,0.1490231322683523,102.04550678005056,0.0
3,-1.1416099737189014,0.123983285177246,102.04550678005056,0.0
4,-1.169099102776711,0.08739618228418557,102.04550678005056,0.0
5,-1.2090415519377782,0.03959647355846846,102.04550678005056,0.0
6,-1.2603092995681138,-0.016182127608893787,102.04550678005056,0.0
7,-1.3188077448596383,-0.07397625869236071,102.04550678005056,0.0
8,-1.3773068787599438,-0.12576022696425537,102.04550678005056,0.0
9,-1.4259324951959136,-0.16256940605516074,102.04550678005056,0.0
10,-1.45347184033733,-0.17594768764838098,102.04550678005056,0.0
11,-1.4494416160406893,-0.1595011939842293,102.04550678005056,0.0
12,-1.4065847733163583,-0.11028287034476084,102.04550678005056,0.0
13,-1.3231983282288693,-0.029725392856715147,102.04550678005056,0.0
14,-1.204571194845885,0.07610434994354726,102.04550678005056,0.0
15,-1.0629316969676599,0.1970405088026612,102.04550678005056,0.0
16,-0.9156866528863628,0.3201008207270251,102.04550678005056,0.0
17,-0.7822697144021143,0.4313170420542953,102.04550678005056,0.0
18,-0.6803964227784691,0.5177930300324897,102.04550678005056,0.0
19,-0.622733260927998,0.5696172863610591,102.04550678005056,0.0
20,-0.614829757515371,0.5812857487806313,102.04550678005056,0.0
21,-0.6547144771475432,0.5523934706440035,102.04550678005056,0.0
22,-0.7340252621224775,0.48750336906370006,102.04550678005056,0.0
23,-0.8401496389038826,0.3952590586882729,102.04550678005056,0.0
24,-0.958712423596662,0.28694074166969274,102.04550678005056,0.0
25,-1.0758483487544221,0.17474290271623977,102.04550678005056,0.0
26,-1.1799270716709582,0.07007070714972091,102.04550678005056,0.0
27,-1.2626278677008853,-0.017885624151055046,102.04550678005056,0.0
28,-1.3194106951770623,-0.08311607094164852,102.04550678005056,0.0
29,-1.3494870790347981,-0.12320858278853072,102.04550678005056,0.0
30,-1.3553942945308888,-0.13922630978644318,102.04550678005056,0.0
31,-1.3422646339072417,-0.1351293176250176,102.04550678005056,0.0
32,-1.316883415843351,-0.11687917647271684,102.04550678005056,0.0
33,-1.2866448355271518,-0.09139039175321684,102.04550678005056,0.0
34,-1.258529973723557,-0.06549173265552527,102.04550678005056,0.0
35,-1.2382328707159236,-0.04503741294226059,102.04550678005056,0.0
36,-1.2295425059430793,-0.03426896019535705,102.04550678005056,0.0
37,-1.2340523853239012,-0.035480659426878405,102.04550678005056,0.0
38,-1.2512209357862825,-0.04899216206487633,102.04550678005056,0.0
39,-1.2787500823372209,-0.07338827690160432,102.04550678005056,0.0
40,-1.3131927158289818,-0.10595393740170209,102.04550678005056,0.0
41,-1.3506580216833004,-0.1432156256093635,102.04550678005056,0.0
42,-1.3874746798714161,-0.18150012342282462,102.04550678005056,0.0
43,-1.4206977241021073,-0.21743533034394202,102.04550678005056,0.0
44,-1.4483926443127109,-0.24834134655044604,102.04550678005056,0.0
45,-1.4696869914295354,-0.27248675780680404,102.04550678005056,0.0
46,-1.4846342683440368,-0.28920865437654164,102.04550678005056,0.0
47,-1.4939741784194147,-0.29891048910491624,102.04550678005056,0.0
48,-1.4988846361748598,-0.30295741024398254,102.04550678005056,0.0
49,-1.5007992594397048,-0.3034856137235447,102.04550678005056,0.0
50,-1.5013167274344965,-0.3031349943435706,102.04550678005056,0.0
51,-1.50217310749931,-0.3047090078395656,102.04550678005056,0.0
52,-1.5052054546930644,-0.31076781858470526,102.04550678005056,0.0
53,-1.512220156894251,-0.32317353747440075,102.04550678005056,0.0
54,-1.5246993974483307,-0.34262851771883035,102.04550678005056,0.0
55,-1.5433316420864909,-0.36827355893368136,102.04550678005056,0.0
56,-1.5674272210434508,-0.3974332397830688,102.04550678005056,0.0
57,-1.5943603979933914,-0.42560015289388314,102.04550678005056,0.0
58,-1.6192404498158668,-0.4467304926396731,102.04550678005056,0.0
59,-1.6350280148143785,-0.45387773092016553,102.04550678005056,0.0
60,-1.6332549100964058,-0.4401242578530298,102.04550678005056,0.0
61,-1.6053677275711526,-0.399696053654953,102.04550678005056,0.0
62,-1.544519343509002,-0.32908143806648027,102.04550678005056,0.0
63,-1.4474342603197288,-0.22794129690958562,102.04550678005056,0.0
64,-1.315851858794733,-0.09960940873687774,102.04550678005056,0.0
65,-1.1570753208891376,0.04895833757959914,102.04550678005056,0.0
66,-0.9833457113757635,0.20782708045373405,102.04550678005056,0.0
67,-0.8100751652899867,0.365241243198967,102.04550678005056,0.0
68,-0.6533077794779255,0.5091119578224231,102.04550678005056,0.0
69,-0.5270119198566497,0.6285762154434691,102.04550678005056,0.0
70,-0.4408568404423293,0.7153546471573137,102.04550678005056,0.0
71,-0.39897362460759506,0.7646791158796492,102.04550678005056,0.0
72,-0.399905381250999,0.7756538757626343,102.04550678005056,1.0
73,-0.43762224866436983,0.7510310999970962,102.23987712423857,0.0
74,-0.5032218392250338,0.6964941492410164,102.43381340233014,0.0
75,-0.586823237854317,0.6196242393613065,102.62721597846138,0.0
76,-0.6792025200201193,0.528762241493081,102.81998381611952,0.0
77,-0.7728713833061098,0.43196450006503917,103.01201448305147,0.0
78,-0.8625042060817749,0.33619953793267093,103.20320415831111,0.0
79,-0.9448074179726427,0.24685938414113698,103.39344764151474,0.0
80,-1.018048692462772,0.16758542892126008,103.58263836437395,0.0
81,-1.0814979593982519,0.10035122627982188,103.77066840457462,0.0
82,-1.1349827604569431,0.04571327532130168,103.95742850207021,0.0
83,-1.1786578358828463,0.003136735809487659,104.1428080778565,0.0
84,-1.212977596790044,-0.02867965873456202,104.32669525529427,0.0
85,-1.2387814709974425,-0.051526474565367256,104.50897688404358,0.0
86,-1.2573781755319096,-0.06747133579006612,104.68953856667403,0.0
87,-1.2705424640489116,-0.07870540022099885,104.86826468801102,0.0
88,-1.280393848638077,-0.08742947775217867,105.04503844727725,0.0
89,-1.2891823652394319,-0.09575800243172491,105.21974189308594,0.0
90,-1.2990401906729827,-0.10562377684588911,105.39225596133925,0.0
91,-1.3117621072593693,-0.11867486251092188,105.56246051608227,0.0
92,-1.3286573865974074,-0.1361640551721821,105.73023439335958,0.0
93,-1.3504831392342522,-0.15883917709474246,105.89545544811791,0.0
94,-1.3774390280190996,-0.18684824927775673,106.05800060419377,0.0
95,-1.4091874880302442,-0.2196773841586312,106.2177459074208,0.0
96,-1.4448685653863382,-0.25614077386404055,106.37456658188717,0.0
97,-1.4831023065074225,-0.29444074965619166,106.52833708936764,0.0
98,-1.5220033598275358,-0.3323104815743496,106.67893119194976,0.0
99,-1.559255330056955,-0.3672416174033873,106.82622201786815,0.0
100,-1.5922917071465137,-0.3967841918272717,106.97008213055409,0.0
101,-1.618601495868231,-0.41888826435047766,107.11038360090183,0.0
102,-1.6361301055162982,-0.4322394619505533,107.24699808274563,0.0
103,-1.6436982781206668,-0.4365284958260104,107.37979689153525,0.0
104,-1.6413338508060187,-0.4325923219068138,107.50865108618892,0.0
105,-1.6304157997506397,-0.42237505919208257,107.63343155409667,0.0
106,-1.6135669880576244,-0.40868070718040317,107.75400909923727,0.0
107,-1.594287310272981,-0.39472471220330957,107.87025453336486,0.0
108,-1.5763717339447278,-0.3835322305584681,107.98203877021238,0.0
109,-1.56319276432667,-0.377270107887964,108.08923292264978,0.0
110,-1.5569433377100295,-0.3766287943435296,108.19170840272643,0.0
111,-1.5579458656813763,-0.38038181382878555,108.2893370245176,0.0
112,-1.5641477370885213,-0.38523825937901895,108.38199110968532,0.0
113,-1.5709407859624933,-0.38606601982664956,108.46954359565464,0.0
114,-1.5714420391896522,-0.37650300233392947,108.55186814629666,0.0
115,-1.5573275131061528,-0.3498991623734188,108.62883926499886,0.0
116,-1.5202027528923154,-0.30045753283268256,108.70033240999493,0.0
117,-1.453334497382563,-0.22438451376921814,108.7662241118153,0.0
118,-1.353403306180153,-0.12083454417835493,108.82639209271004,0.0
119,-1.2218358844551471,0.007547347743114469,108.88071538788526,0.0
120,-1.065300509905865,0.15461847591078304,108.92907446838643,0.0
121,-0.8951213241377814,0.31130256629559483,108.97135136544912,0.0
122,-0.72564869431242,0.4666487535007212,109.0074297961315,0.0
123,-0.5719227193048066,0.6092091576180303,109.03719529003136,0.0
124,-0.4471784394545295,0.7284947607077689,109.06053531688289,0.0
125,-0.36078711147532755,0.8162575148819824,109.07733941481862,0.0
126,-0.3170926063475103,0.8673895496866938,109.08749931907477,0.0
127,-0.31533631984976074,0.8803163053718546,109.09090909090908,1.0
128,-0.3505611837339058,0.8568668512883557,109.09000767803518,0.0
129,-0.4151427870002197,0.8017048086779514,109.08732308647815,0.0
130,-0.5004803956451714,0.7214739366395151,109.08288491366312,0.0
131,-0.598412807158135,0.6238400847039711,109.07672291847616,0.0
132,-0.7020780849434292,0.5165951297503478,109.06886701181323,0.0
133,-0.8061540170110633,0.4069396417220239,109.0593472472558,0.0
134,-0.9066235237247589,0.3009975170315644,109.04819381187836,0.0
135,-1.0003372991978488,0.2035568527019057,109.0354370171914,0.0
136,-1.084655021101434,0.11799129242712827,109.0211072902245,0.0
137,-1.1573439411432835,0.046300977983731256,109.00523516475258,0.0
138,-1.2167529769634242,-0.010780667770517699,108.98785127266935,0.0
139,-1.262136552495628,-0.05364782806193122,108.96898633551184,0.0
140,-1.2939359435383562,-0.083661982819686,108.94867115613813,0.0
141,-1.313855481703068,-0.10296608328800995,108.92693661056221,0.0
142,-1.3246691140394564,-0.11426466723621437,108.90381363994871,0.0
143,-1.3298046532912826,-0.1205675514555978,108.8793332427696,0.0
144,-1.3328265556931405,-0.12490683581961479,108.85352646712627,0.0
145,-1.336948884441414,-0.13004925165253978,108.82642440323825,0.0
146,-1.3446688667313083,-0.1382337020705836,108.79805817610153,0.0
147,-1.3575514928747252,-0.15096482453280827,108.76845893831822,0.0
148,-1.3761506876727938,-0.1688876857335853,108.73765786309876,0.0
149,-1.4000384418989995,-0.19175820332913887,108.70568613743932,0.0
150,-1.4279229165000884,-0.21851126136681237,108.67257495547497,0.0
151,-1.4578494883418076,-0.24741635686489127,108.63835551201032,0.0
152,-1.487477101933538,-0.27630100609469804,108.6030589962287,0.0
153,-1.5144031296676341,-0.3028162496049932,108.56671658558078,0.0
154,-1.5364862445919465,-0.3247167075350503,108.52935943985364,0.0
155,-1.5521073245820105,-0.34012911047890265,108.49101869542079,0.0
156,-1.5603237461713004,-0.3477866479073635,108.45172545967392,0.0
157,-1.5609076285868513,-0.34721004760971474,108.41151080563651,0.0
158,-1.5542965320366222,-0.3388185427435769,108.37040576675982,0.0
159,-1.5415070948116507,-0.3239543826745665,108.3284413319014,0.0
160,-1.5240578759482182,-0.3048044691053545,108.28564844048613,0.0
161,-1.5039192895721718,-0.2842047358379203,108.24205797784957,0.0
162,-1.4834675729313231,-0.26532042350541296,108.19770077076369,0.0
163,-1.4653824058381315,-0.2512110744996531,108.15260758314463,0.0
164,-1.4524112663319189,-0.24431316361723784,108.10680911194181,0.0
165,-1.4469426673234382,-0.2459024937214276,108.06033598320832,0.0
166,-1.4503911011850543,-0.2556258058216617,108.01321874835162,0.0
167,-1.4624880993174858,-0.27120699724260283,107.96548788056425,0.0
168,-1.4806664904013465,-0.28842856476771844,107.9171737714333,0.0
169,-1.4997785432996535,-0.30145752460799136,107.86830672772832,0.0
170,-1.512369128002187,-0.30352776072292836,107.81891696836628,0.0
171,-1.5096194014831128,-0.28791625503449825,107.76903462155285,0.0
172,-1.4829002714481863,-0.24907496362715748,107.7186897220991,0.0
173,-1.425670944620785,-0.18372306748787096,107.6679122089118,0.0
174,-1.3352891768230366,-0.09168424159263211,107.61673192265707,0.0
175,-1.2142339238422206,0.02371867122423224,107.56517860359551,0.0
176,-1.0703255853232256,0.15582461251368318,107.51328188958742,0.0
177,-0.9157648826451266,0.2953566279033761,107.46107131426754,0.0
178,-0.7651387363616723,0.4315958160388904,107.40857630538709,0.0
179,-0.6328524600927421,0.5538020351864565,107.35582618332195,0.0
180,-0.5306271954670468,0.6526260897637538,107.30285015974609,0.0
181,-0.46567905069236665,0.7212653084145813,107.24967733646767,0.0
182,-0.4399793998917435,0.7561765548691879,107.19633670442742,0.0
183,-0.45066653276433244,0.7572603983509615,107.14285714285714,1.0
184,-0.4913558456224383,0.7275406823144835,107.08721585831353,0.0
185,-0.5538835547480102,0.6724571382912261,107.02744051165303,0.0
186,-0.6299720706984883,0.5989440159192575,106.96363598027766,0.0
187,-0.7124182976616252,0.5144764236779984,106.89590761495893,0.0
188,-0.7956247899562972,0.4262333978392084,106.8243611648269,0.0
189,-0.8755361553865789,0.34046846603938663,106.74910270420254,0.0
190,-0.9492263294240929,0.262115020699644,106.67023856133328,0.0
191,-1.0144487207721906,0.19460326940808031,106.58787524908485,0.0
192,-1.0693988174542048,0.13983846734503919,106.50211939763778,0.0
193,-1.1127857972674309,0.09828752250914968,106.41307768923123,0.0
194,-1.1441376250330904,0.06913563641797651,106.3208567949912,0.0
195,-1.164146382772633,0.050494906817970836,106.22556331387507,0.0
196,-1.1748405958098767,0.03966189617872723,106.12730371376041,0.0
197,-1.17944663854026,0.03342465960411975,106.02618427469879,0.0
198,-1.1819298250113737,0.02841132681437665,105.92231103435334,0.0
199,-1.186328727675376,0.021456966464207472,105.81578973563218,0.0
200,-1.196065108562195,0.009950607058678146,105.70672577652644,0.0
201,-1.2134069317027985,-0.007883198128278562,105.5952241621572,0.0
202,-1.239196355753097,-0.03281021228945019,105.48138945903175,0.0
203,-1.2728640569581544,-0.06454714494825922,105.36532575150565,0.0
204,-1.3126751493133197,-0.10186265326046093,105.24713660044321,0.0
205,-1.3561147760584245,-0.1428007509690852,105.12692500406652,0.0
206,-1.4003233483044275,-0.18498880964374365,105.00479336097855,0.0
207,-1.4425140076459122,-0.2259801531263163,104.8808434353441,0.0
208,-1.48032727135397,-0.2635785553508398,104.75517632420879,0.0
209,-1.5120908618126607,-0.29609845415060315,104.62789242693377,0.0
210,-1.5369613192039142,-0.32252843282069427,104.4990914167217,0.0
211,-1.5549374885549792,-0.3425835229994637,104.36887221420675,0.0
212,-1.5667568218796788,-0.3566507892426333,104.23733296308012,0.0
213,-1.5737061751131352,-0.3656492798927005,104.10457100771931,0.0
214,-1.5773888069058881,-0.37083719404702326,103.97068287278968,0.0
215,-1.5794846131852696,-0.3736043545592861,103.83576424478308,0.0
216,-1.5815278316493302,-0.37528617697131156,103.69990995545866,0.0
217,-1.584717309892124,-0.37702672829935474,103.56321396714937,0.0
218,-1.5897757279089348,-0.37970462558299606,103.42576935989555,0.0
219,-1.5968814117267727,-0.3839188186749649,103.287668320368,0.0
220,-1.6056970828946489,-0.39001495829380034,103.1490021325406,0.0
221,-1.6155035548387013,-0.3981208620831342,103.00986117007292,0.0
222,-1.6254128958005447,-0.40815533290664885,102.87033489036197,0.0
223,-1.6345962821720952,-0.41978104709515685,102.7305118302235,0.0
224,-1.642434291756436,-0.4322900476889412,102.59047960316056,0.0
225,-1.6484986292129125,-0.4444370190556315,102.45032489818004,0.0
226,-1.6523142201054775,-0.45426498018156974,102.31013348011501,0.0
227,-1.65292721059749,-0.4589916393598677,102.16999019141342,0.0
228,-1.6484002151726094,-0.45503309946747916,102.02997895535175,0.0
229,-1.6354389269286032,-0.43822789608604534,101.89018278063483,0.0
230,-1.6093839617356338,-0.4042868185282684,101.75068376734131,0.0
231,-1.5647451071488114,-0.34943823452215445,101.61156311417665,0.0
232,-1.4963039619826772,-0.27117754084209844,101.472901126995,0.0
233,-1.4005981200286908,-0.16898022773202281,101.33477722855291,0.0
234,-1.2773994239950817,-0.04481780261855231,101.19726996945761,0.0
235,-1.1307018935128557,0.09666477180703908,101.06045704027485,0.0
236,-0.9688087608640766,0.24839241610622242,100.92441528476091,0.0
237,-0.8033543797964626,0.4015198972803776,100.78922071418509,0.0
238,-0.6474378280004698,0.5464122615396154,100.65494852271047,0.0
239,-0.5133498540812144,0.673777079068334,100.52167310380062,0.0
240,-0.4105172949836616,0.7757471505165513,100.3894680676223,0.0
241,-0.34420841036596506,0.8467282410920726,100.25840625941515,0.0
242,-0.3152732343531941,0.8838852601236297,100.12855977880011,0.0
243,-0.32084722243262753,0.8872239618895436,100.0,1.0
244,-0.35565950266900787,0.8593093762238543,99.86930691022107,0.0
245,-0.41345743378713695,0.804724390934188,99.73320367778015,0.0
246,-0.48811400776317265,0.7293987632390817,99.59197517261596,0.0
247,-0.5741807046256854,0.6399293024884608,99.44590504995209,0.0
248,-0.6668984785822725,0.542976326585934,99.29527548682995,0.0
249,-0.7618871198250765,0.4447764750639146,99.14036693560425,0.0
250,-0.8548252034165402,0.3507741415617405,98.98145789435927,0.0
251,-0.9413842060594982,0.2653538310843952,98.81882469415035,0.0
252,-1.0175231951202999,0.1916554602209209,98.652741302923,0.0
253,-1.0800598168695286,0.13146762940607354,98.48347914591687,0.0
254,-1.1272929262479967,0.08520931795075334,98.31130694231857,0.0
255,-1.159416731541031,0.052017839144443107,98.13649055789072,0.0
256,-1.1785400045768257,0.02995447331437645,97.9592928732695,0.0
257,-1.1882658304160763,0.0163198531579819,97.77997366759391,0.0
258,-1.192936511796858,0.008045652991302,97.59878951710469,0.0
259,-1.196751463543077,0.0021070650531100354,97.41599370832772,0.0
260,-1.2029949509595796,-0.004109386607365095,97.23183616543945,0.0
261,-1.2135646845017263,-0.012541435495282333,97.04656339139663,0.0
262,-1.2288926294354419,-0.02432664346001087,96.86041842240138,0.0
263,-1.2482300781559845,-0.03982321887142809,96.67364079526429,0.0
264,-1.2701677064820993,-0.05875000787705398,96.48646652722316,0.0
265,-1.2932082068304258,-0.08039703922366542,96.29912810777229,0.0
266,-1.3162170121666688,-0.10384994864506553,96.11185450205849,0.0
267,-1.33863718895777,-0.12817898820069895,95.92487116540076,0.0
268,-1.3604431555348673,-0.15256235881493518,95.73840006849818,0.0
269,-1.3818943517351598,-0.17633734324182215,95.55265973289609,0.0
270,-1.4032086006383078,-0.19899351531084394,95.36786527628985,0.0
271,-1.4242899046720594,-0.2201343249941657,95.18422846725782,0.0
272,-1.444613829019702,-0.23943431446332442,95.0019577890267,0.0
273,-1.4633068820833055,-0.25661078369844703,94.82125851188681,0.0
274,-1.4793789081546247,-0.2714155994867039,94.64233277389151,0.0
275,-1.4920096849621827,-0.28364084730320344,94.46537966949043,0.0
276,-1.500775960628872,-0.2931259194261367,94.29059534576567,0.0
277,-1.5057375722755304,-0.29975545016870503,94.11817310595836,0.0
278,-1.507363743905181,-0.30344597119803335,93.94830351999353,0.0
279,-1.506343318151461,-0.3041302905271603,93.7811745417321,0.0
280,-1.5033595136878504,-0.3017572513574785,93.61697163270053,0.0
281,-1.4989112380860146,-0.2963262310758491,93.4558778920714,0.0
282,-1.4932371981806176,-0.28796824691391687,93.2980741926909,0.0
283,-1.4863631391821746,-0.2770696271227479,93.14373932297347,0.0
284,-1.4782608860153617,-0.26441364121086264,92.99305013450794,0.0
285,-1.469084922354084,-0.25129615580710907,92.8461816952444,0.0
286,-1.4594334888848985,-0.23955995484339732,92.70330744815699,0.0
287,-1.4505610579822443,-0.23149459762122948,92.56459937530275,0.0
288,-1.4444504601992194,-0.2295677653902308,92.43022816722454,0.0
289,-1.4436503773710518,-0.23598916071001086,92.30036339767224,0.0
290,-1.4508156994364076,-0.25215365820783475,92.17517370364425,0.0
291,-1.467962263869448,-0.2780566927283747,92.0548269707802,0.0
292,-1.4955511083404776,-0.3118092922930469,91.93949052416407,0.0
293,-1.531619051175233,-0.34939049356373825,91.82933132462708,0.0
294,-1.5712333310260451,-0.3847528005124291,91.7245161706701,0.0
295,-1.606535649118093,-0.4103407494087548,91.62521190615719,0.0
296,-1.627539681738116,-0.41800143852821364,91.53158563396322,0.0
297,-1.623665327295738,-0.4001754449842194,91.44380493579357,0.0
298,-1.5857721118588575,-0.3511784638786103,91.36203809842736,0.0
299,-1.5082595968708643,-0.26833964840146984,91.28645434667244,0.0
300,-1.3907088486092816,-0.1527670243630925,91.21722408335773,0.0
301,-1.2385977893771258,-0.0095671178456819,91.1545191367282,0.0
302,-1.062835324559456,0.152554848854714,91.09851301564828,0.0
303,-0.8781664210105766,0.3222678495348361,91.04938117306324,0.0
304,-0.7008045865735476,0.4870019185847704,91.00730127821377,0.0
305,-0.5458484119689571,0.6345110101499611,90.97245349814676,0.0
306,-0.42507049620517656,0.7543469284768537,90.94502078911597,0.0
307,-0.3455271700334896,0.8390088441888591,90.92518919852178,0.0
308,-0.30918376242443574,0.8846088835044968,90.9131481780947,0.0
309,-0.31347483375697344,0.8909960216659802,90.9090909090909,1.0
310,-0.3525087568651795,0.8613826942558513,90.9090909090909,0.0
311,-0.41853103835258926,0.8015983970718342,90.9090909090909,0.0
312,-0.5032840919003214,0.7191376134500278,90.9090909090909,0.0
313,-0.5990119133641633,0.6221722874786142,90.9090909090909,0.0
314,-0.6990110898577608,0.5186687395027958,90.9090909090909,0.0
315,-0.7977791984773583,0.4156992696891728,90.9090909090909,0.0
316,-0.8909181353337691,0.3189855250893331,90.9090909090909,0.0
317,-0.9749850321113959,0.23266700363122564,90.9090909090909,0.0
318,-1.0474396744230292,0.15926084787349587,90.9090909090909,0.0
319,-1.1067354799954205,0.09976861338665717,90.9090909090909,0.0
320,-1.1524868229869696,0.05388708494491132,90.9090909090909,0.0
321,-1.1855720289611622,0.020286478166354677,90.9090909090909,0.0
322,-1.2080347806095446,-0.0030752771367993093,90.9090909090909,0.0
323,-1.2227270227753293,-0.01863142116314931,90.9090909090909,0.0
324,-1.2327557780993592,-0.02890761101488655,90.9090909090909,0.0
325,-1.2408959273594322,-0.036273153467844405,90.9090909090909,0.0
326,-1.2491604403428587,-0.04276347246548412,90.9090909090909,0.0
327,-1.2586619735322648,-0.049983003871093404,90.9090909090909,0.0
328,-1.2697807723470778,-0.059082338104647414,90.9090909090909,0.0
329,-1.2825285558592725,-0.07078947961911337,90.9090909090909,0.0
330,-1.2969241662177482,-0.08546751886571023,90.9090909090909,0.0
331,-1.3132071143198103,-0.10317263112746433,90.9090909090909,0.0
332,-1.331802900146719,-0.12369635513883612,90.9090909090909,0.0
333,-1.3530763385519504,-0.1465903835664105,90.9090909090909,0.0
334,-1.3770083565245987,-0.1711847567676172,90.9090909090909,0.0
335,-1.4029635288731452,-0.19661633059752545,90.9090909090909,0.0
336,-1.4296698206304,-0.22188154354984102,90.9090909090909,0.0
337,-1.455434703297716,-0.24591743092474866,90.9090909090909,0.0
338,-1.4785195422256086,-0.26770206641953087,90.9090909090909,0.0
339,-1.4975310381544567,-0.28635565230072507,90.9090909090909,0.0
340,-1.511688197226107,-0.30122048478993074,90.9090909090909,0.0
341,-1.5208814766353065,-0.3119031866750527,90.9090909090909,0.0
342,-1.5255287388122198,-0.31827384065475317,90.9090909090909,0.0
343,-1.526310676679444,-0.3204296323161663,90.9090909090909,0.0
344,-1.523904087229568,-0.3186405555905828,90.9090909090909,0.0
345,-1.5188147764297775,-0.3132982949393104,90.9090909090909,0.0
346,-1.5113577351626175,-0.3048857481176691,90.9090909090909,0.0
347,-1.5017687731305127,-0.2939755092767808,90.9090909090909,0.0
348,-1.4903846234928957,-0.2812543320238835,90.9090909090909,0.0
349,-1.4778105293681594,-0.26756070268479004,90.9090909090909,0.0
350,-1.4650055036654954,-0.25391672079577243,90.9090909090909,0.0
351,-1.453247963269241,-0.2415343800315691,90.9090909090909,0.0
352,-1.4439866272331978,-0.23177938308948043,90.9090909090909,0.0
353,-1.438619800856234,-0.22608129057952986,90.9090909090909,0.0
354,-1.4382671952757227,-0.22578570267964274,90.9090909090909,0.0
355,-1.4435938779768673,-0.23195176168342962,90.9090909090909,0.0
356,-1.45471664011871,-0.2451069916628744,90.9090909090909,0.0
357,-1.4711799294841315,-0.26498221963602575,90.9090909090909,0.0
358,-1.4919493993135782,-0.29026223118463124,90.9090909090909,0.0
359,-1.5153556029030197,-0.3184012689576497,90.9090909090909,0.0
360,-1.5389435597907815,-0.3455624811414516,90.9090909090909,0.0
361,-1.5592489907770437,-0.36674112884069043,90.9090909090909,0.0
362,-1.5716119501259591,-0.3761168757636546,90.9090909090909,0.0
363,-1.5702136488619465,-0.36764753286048585,90.9090909090909,0.0
364,-1.548531505748259,-0.3358671807553758,90.9090909090909,0.0
365,-1.5003149774611744,-0.2767942473149315,90.9090909090909,0.0
366,-1.4209981766970963,-0.1888042409800647,90.9090909090909,0.0
367,-1.3092466779377205,-0.07329409360959167,90.9090909090909,0.0
368,-1.168181562942946,0.06502590068836844,90.9090909090909,0.0
369,-1.0058194235739426,0.21832553443090447,90.9090909090909,0.0
370,-0.8344415683821893,0.37636009118757935,90.9090909090909,0.0
371,-0.6689103243845406,0.5276106203716073,90.9090909090909,0.0
372,-0.5242767510661075,0.6606864235443346,90.9090909090909,0.0
373,-0.4132517190634625,0.7657548203003681,90.9090909090909,0.0
374,-0.344159619472421,0.8357516570610959,90.9090909090909,0.0
375,-0.3198486728205535,0.8671690531414177,90.9090909090909,1.0
376,-0.33774984490792126,0.8603037409537697,90.90962570718376,0.0
377,-0.3909562488642933,0.8189577539433855,90.91121708981423,0.0
378,-0.4699410444229687,0.749686120692622,90.9138455927225,0.0
379,-0.5644190875579673,0.6607598009695324,90.9174918190196,0.0
380,-0.6649067100973001,0.5610421662861895,90.92213643479293,0.0
381,-0.7637072998026377,0.4589623981554568,90.92776016480444,0.0
382,-0.8552707426993204,0.3617194245994533,90.93434378828077,0.0
383,-0.9360602466672165,0.27478290238376035,90.94186813479344,0.0
384,-1.0041560349999838,0.20169210828139034,90.95031408022827,0.0
385,-1.0588207664031164,0.14410420887807296,90.95966254284245,0.0
386,-1.1001742206390794,0.10201766328211756,90.96989447940831,0.0
387,-1.1290226374032577,0.07409401086026829,90.98099088144279,0.0
388,-1.1468052197625285,0.058015517467873784,90.99293277152142,0.0
389,-1.1555797004024406,0.05083781536109963,91.0057011996761,0.0
390,-1.1579690370737328,0.04931703168160437,91.01927723987565,0.0
391,-1.1570165369747536,0.0502041937771566,91.03364198658848,0.0
392,-1.15593148025378,0.05050417826104506,91.04877655142647,0.0
393,-1.1577437969380815,0.04769404866267837,91.0646620598696,0.0
394,-1.1649215035630098,0.03989050449233353,91.08127964807062,0.0
395,-1.1790327238955354,0.025952974731627707,91.09861045973896,0.0
396,-1.2005437363018432,0.005510931594139151,91.11663564310399,0.0
397,-1.2288235690027867,-0.021087926434505008,91.13533634795647,0.0
398,-1.262371737578759,-0.05289981397283852,91.15469372276831,0.0
399,-1.2992132356702155,-0.08855617950246894,91.17468891189006,0.0
400,-1.3373428366866038,-0.12645490390243355,91.19530305282586,0.0
401,-1.3750796041608118,-0.1649411046719539,91.21651727358572,0.0
402,-1.4112272396019612,-0.2024539285231013,91.23831269011481,0.0
403,-1.445015725256463,-0.23762758186961536,91.26067040379954,0.0
404,-1.4758911090864644,-0.26934761771930876,91.28357149905068,0.0
405,-1.503282127449392,-0.29677273487370204,91.30699704096294,0.0
406,-1.526475558946874,-0.31933535298425286,91.33092807305145,0.0
407,-1.5446740245139086,-0.3367311574318774,91.35534561506475,0.0
408,-1.5572163756938109,-0.34890150626316185,91.38023066087477,0.0
409,-1.5638553939832904,-0.3560071969033625,91.40556417644365,0.0
410,-1.5649513750673016,-0.35839100672263813,91.43132709786728,0.0
411,-1.5614720639458357,-0.3565305821691167,91.45750032949641,0.0
412,-1.5547757474324218,-0.35099050886428446,91.4840647421349,0.0
413,-1.546254913648418,-0.3423883772566332,91.5110011713155,0.0
414,-1.5369854720982314,-0.33138976836301615,91.53829041565368,0.0
415,-1.5275298259354857,-0.31873879246317743,91.56591323527948,0.0
416,-1.5179799349612315,-0.3053152243843724,91.59385035034794,0.0
417,-1.5082260587384035,-0.29219123817031933,91.62208243962816,0.0
418,-1.498339385690751,-0.280647358943773,91.65059013917181,0.0
419,-1.4889004831033088,-0.2721053386268032,91.67935404106113,0.0
420,-1.481112623134235,-0.2679490799391051,91.70835469223685,0.0
421,-1.4766082583503464,-0.2692325739796043,91.73757259340678,0.0
422,-1.4769628445279575,-0.27631016085913057,91.76698819803521,0.0
423,-1.4830326238857867,-0.2884597356970712,91.79658191141372,0.0
424,-1.4942951802488433,-0.3035932460883986,91.82633408981411,0.0
425,-1.508377913297564,-0.31815234391250646,91.85622503972351,0.0
426,-1.5209197686542697,-0.3272661591606937,91.88623501716266,0.0
427,-1.5258485532457424,-0.32520443045142944,91.91634422708766,0.0
428,-1.5160876907346654,-0.3061000188205374,91.94653282287591,0.0
429,-1.4846352572234003,-0.2648520219552621,91.9767809058965,0.0
430,-1.4258795668966462,-0.19806837196148175,92.00706852516622,0.0
431,-1.3369331023114934,-0.10487823932856057,92.037375677091,0.0
432,-1.2187032756326373,0.012550883622352904,92.06768230529414,0.0
433,-1.0764105897998455,0.1489162523018862,92.09796830053132,0.0
434,-0.9193409479110652,0.29615749172337297,92.12821350069352,0.0
435,-0.759778858983088,0.4442760586864325,92.15839769089784,0.0
436,-0.6112746902194982,0.5824787610015502,92.18850060366765,0.0
437,-0.486588175390526,0.7004640492366853,92.21850191920171,0.0
438,-0.39575654369185426,0.7896430136904737,92.2483812657337,0.0
439,-0.3447173905963683,0.8441033347132944,92.27811821998225,0.0
440,-0.3347723108423474,0.8611793704234482,92.3076923076923,1.0
441,-0.36294773055745616,0.8415708569205845,92.33838379507208,0.0
442,-0.42306567698927655,0.789036358890864,92.37142864178352,0.0
443,-0.507160393124242,0.7097558017486842,92.406739951523,0.0
444,-0.6068283751061172,0.611495192791603,92.44423089359032,0.0
445,-0.7141945271536781,0.50271165284862,92.48381466021966,0.0
446,-0.8223733776405043,0.3917137990526182,92.52540442554738,0.0
447,-0.9255182297978805,0.28595407099787773,92.56891330620157,0.0
448,-1.01869489554171,0.19149042897286897,92.61425432350184,0.0
449,-1.097836320436029,0.11262622399187495,92.66134036726007,0.0
450,-1.159931230801301,0.05172328253935003,92.71008416117638,0.0
451,-1.2034275401205385,0.009181324826573883,92.76039822982774,0.0
452,-1.2286717100524385,-0.016421127508335798,92.81219486724773,0.0
453,-1.2381334971357787,-0.02803159681329291,92.86538610710096,0.0
454,-1.2362156168332001,-0.02969308741301266,92.91988369445608,0.0
455,-1.2285971001725198,-0.0260166200394,92.97559905916444,0.0
456,-1.2212396256216766,-0.021616582369600207,93.03244329085388,0.0
457,-1.219318846636098,-0.020582414646314093,93.09032711554873,0.0
458,-1.2263746136105331,-0.026059119451069382,93.14916087392965,0.0
459,-1.2438981670953666,-0.03999071489654828,93.20885450124806,0.0
460,-1.2714267242704904,-0.06304874804844485,93.26931750891232,0.0
461,-1.3070548405161295,-0.09473108958507848,93.33045896776437,0.0
462,-1.3481542996034244,-0.13358507633288197,93.39218749306619,0.0
463,-1.39205612755146,-0.17749237677328422,93.45441123121819,0.0
464,-1.4364954979889886,-0.22395451330014926,93.51703784823138,0.0
465,-1.4797298074898788,-0.2703354880571709,93.57997451997777,0.0
466,-1.5203702754737702,-0.3140441057212209,93.64312792424258,0.0
467,-1.5570718333595912,-0.3526638044273912,93.7064042346048,0.0
468,-1.588268683562262,-0.3840537226374081,93.76970911617126,0.0
469,-1.6121099828616345,-0.40644698275099467,93.83294772319117,0.0
470,-1.6266567176476625,-0.4185616411753943,93.89602469857815,0.0
471,-1.630286545213503,-0.41972184877033586,93.95884417536654,0.0
472,-1.6221657167967571,-0.4099691427412841,94.02130978012941,0.0
473,-1.6026200440233618,-0.39013343903319214,94.08332463838532,0.0
474,-1.5732756404418071,-0.36183408525886007,94.14479138201999,0.0
475,-1.5369221022637065,-0.3273928993054927,94.20561215875003,0.0
476,-1.4971388261724625,-0.2896593264172235,94.2656886436534,0.0
477,-1.4577865030901862,-0.2517665520310065,94.32492205279175,0.0
478,-1.4224851665669243,-0.21685071787167642,94.38321315894834,0.0
479,-1.3941819099206498,-0.1877696259655959,94.44046230950352,0.0
480,-1.374871861549624,-0.1668520549352821,94.49656944646941,0.0
481,-1.3654921276331449,-0.15569679561699712,94.55143412870268,0.0
482,-1.3659700692917391,-0.15502657861062802,94.604955556313,0.0
483,-1.3753773867408394,-0.16459150977879966,94.65703259728309,0.0
484,-1.392121429660344,-0.183113458844476,94.70756381631281,0.0
485,-1.414099596270166,-0.2082683964251832,94.75644750589908,0.0
486,-1.4387586946567668,-0.23671594675166371,94.80358171965904,0.0
487,-1.4630421723430544,-0.26419937984291825,94.8488643079021,0.0
488,-1.483267787897096,-0.2857481340452965,94.89219295545277,0.0
489,-1.4950387763613324,-0.29601231704238096,94.93346522172367,0.0
490,-1.493327772384435,-0.28974078972518025,94.97257858303341,0.0
491,-1.472860678482768,-0.26238236641188534,95.0094304771619,0.0
492,-1.4288547048277216,-0.2107497359240999,95.04391835013011,0.0
493,-1.3580399196868036,-0.1336486842231787,95.07593970518856,0.0
494,-1.2597525999237835,-0.032353484013864967,95.10539215399349,0.0
495,-1.1367876726583674,0.08918692221531627,95.13217346994615,0.0
496,-0.9956919796634351,0.2244939492233105,95.1561816436649,0.0
497,-0.846295269374314,0.3650788502083543,95.17731494055623,0.0
498,-0.7004862659600044,0.5012880743405317,95.19547196044452,0.0
499,-0.5704740839829379,0.6233584249663029,95.21055169921634,0.0
500,-0.4669401948463879,0.7225201873087828,95.22245361242916,0.0
501,-0.39751703522432436,0.7919744900407868,95.23107768082907,0.0
502,-0.365916724400823,0.8275961453387685,95.23632447771678,0.0
503,-0.37182845505135126,0.8282681921294318,95.23809523809524,1.0
504,-0.41149025151514584,0.7958248737471945,95.23699957045791,0.0
505,-0.47869411146483626,0.7346483332756799,95.23375884848375,0.0
506,-0.5659352048383097,0.651015582737372,95.22844269688473,0.0
507,-0.6654535293619905,0.5523171556920103,95.22112098692725,0.0
508,-0.7700052243694755,0.44626608905055953,95.21186380656894,0.0
509,-0.8733064671088343,0.34019148304623226,95.20074143155558,0.0
510,-0.9701906672887373,0.2404753035020271,95.18782429749487,0.0
511,-1.0565897762590495,0.15215559275552926,95.17318297292273,0.0
512,-1.1294754595518175,0.07869256823923418,95.15688813337587,0.0
513,-1.1868669539039982,0.02188020826027573,95.13901053648283,0.0
514,-1.2279396680072265,-0.018116311582846684,95.11962099808402,0.0
515,-1.2531824912493534,-0.04261260168244113,95.09879036939007,0.0
516,-1.2644917094660781,-0.05415722899983129,95.07658951518594,0.0
517,-1.2650842238499602,-0.056195398236856486,95.05308929308713,0.0
518,-1.2591654238239267,-0.05266303623622695,95.02836053385302,0.0
519,-1.2513733414518597,-0.047542891300853304,95.00247402276102,0.0
520,-1.2461025822133251,-0.04442736605187725,94.97550048204386,0.0
521,-1.2468565578379893,-0.04614060308523853,94.94751055439171,0.0
522,-1.255771417566197,-0.054470414892772503,94.9185747875191,0.0
523,-1.2734071549963168,-0.07004747283255726,94.8887636197963,0.0
524,-1.2988310861246573,-0.09238666499819892,94.85814736694316,0.0
525,-1.3299496802554953,-0.12007843946535937,94.82679620978345,0.0
526,-1.3639954827003087,-0.15109237334653702,94.79478018305593,0.0
527,-1.3980568851961683,-0.1831368875656871,94.76216916527855,0.0
528,-1.4295496825746858,-0.21401186902009361,94.72903286966097,0.0
529,-1.4565607402217378,-0.24189621669578648,94.69544083606024,0.0
530,-1.4780302314536267,-0.2655285136868565,94.6614624239739,0.0
531,-1.4937670703250072,-0.2842624671110342,94.62716680656415,0.0
532,-1.5043098767483976,-0.2980044865436037,94.59262296570688,0.0
533,-1.510660927199352,-0.30706354860310325,94.5578996880582,0.0
534,-1.5139423087274846,-0.31195877674441413,94.52306556213155,0.0
535,-1.5150511414610763,-0.313234952154352,94.48818897637796,0.0
536,-1.5144096801957263,-0.31132966434870196,94.45333811826195,0.0
537,-1.511896252057975,-0.30651972542697437,94.41858097432552,0.0
538,-1.5069940540155629,-0.29895282373947796,94.38398533123242,0.0
539,-1.49911775753346,-0.28874860610816977,94.34961877778545,0.0
540,-1.4880035483960214,-0.27613683689767665,94.31554870790916,0.0
541,-1.474013118782176,-0.26159271551148067,94.28184232459063,0.0
542,-1.4582284650099806,-0.24593174407107612,94.2485666447713,0.0
543,-1.4422961879904617,-0.23033662432045238,94.2157885051831,0.0
544,-1.428083170490406,-0.21630242630622076,94.1835745691223,0.0
545,-1.4172823265866747,-0.20549944362611888,94.1519913341551,0.0
546,-1.4111191791563558,-0.19956317113077043,94.12110514074925,0.0
547,-1.4102482039238058,-0.19982786452364035,94.09098218182653,0.0
548,-1.4148195692711425,-0.20702659155787473,94.06168851323154,0.0
549,-1.4245957413825419,-0.22098944950521912,94.03329006511277,0.0
550,-1.4389587358043787,-0.2403836818388044,94.0058526542125,0.0
551,-1.4567013381346576,-0.2625521142307359,93.97944199706315,0.0
552,-1.4756239077848623,-0.2835133135810932,93.95412372408765,0.0
553,-1.4921061719903765,-0.298180220170269,93.9299633946035,0.0
554,-1.5009183122082776,-0.30082775233998693,93.9070265127294,0.0
555,-1.4955228980314785,-0.28579372941587816,93.88537854419597,0.0
556,-1.468987607446684,-0.24833885505522196,93.86508493406139,0.0
557,-1.4154165551200517,-0.18553495594967023,93.84621112533544,0.0
558,-1.3315890979849005,-0.09701401090690828,93.8288225785149,0.0
559,-1.2183515460036212,0.014590854739901932,93.81298479203568,0.0
560,-1.0813014193080042,0.14364013099439976,93.79876332364731,0.0
561,-0.9304546810519384,0.28196742188338136,93.78622381271758,0.0
562,-0.7788587688759736,0.419793137548198,93.77543200347517,0.0
563,-0.6404261712468458,0.5469263509863499,93.76645376920084,0.0
564,-0.5275106324662752,0.6540430251131584,93.75935513737797,0.0
565,-0.4488413996775633,0.7338113874587358,93.75420231581577,0.0
566,-0.4083307642318789,0.7816716209666033,93.75106171975891,0.0
567,-0.40500595758219243,0.7961575347512685,93.75,1.0
568,-0.43397904459134123,0.7787503459732348,93.75054178452969,0.0
569,-0.48807567306827504,0.7333513725823644,93.75215603258656,0.0
570,-0.5595929748490616,0.6655264195206878,93.75482613936047,0.0
571,-0.6416883410650538,0.5816953408436542,93.75853556834761,0.0
572,-0.7290863756363075,0.48841523368203965,93.76326784764436,0.0
573,-0.8180543852151647,0.39184785911898085,93.76900656631031,0.0
574,-0.9058445061341636,0.2974324135504951,93.77573537079887,0.0
575,-0.9899546262683863,0.2097259343646415,93.7834379614542,0.0
576,-1.0675776279705225,0.13234159224168007,93.79209808907373,0.0
577,-1.1354924114295362,0.06791545616272043,93.8016995515348,0.0
578,-1.1904494867186086,0.01805924813385691,93.8122261904848,0.0
579,-1.2298970828636713,-0.016703873055844753,93.82366188809357,0.0
580,-1.252758825730874,-0.036988035414408676,93.8359905638675,0.0
581,-1.2599568987051823,-0.044527522263854286,93.84919617152399,0.0
582,-1.2544716290002051,-0.04204893331991755,93.86326269592591,0.0
583,-1.2408932920270808,-0.03301373760480354,93.87817415007522,0.0
584,-1.2245896806060996,-0.021248728495410443,93.8939145721648,0.0
585,-1.2107267229643446,-0.010515803997907774,93.91046802268815,0.0
586,-1.203407521581682,-0.004092620784548084,93.92781858160599,0.0
587,-1.2051369896629696,-0.004436001402765663,93.94595034556963,0.0
588,-1.2167020003944047,-0.012981263603006138,93.96484742520006,0.0
589,-1.2374254441927026,-0.030099488840528932,93.98449394242266,0.0
590,-1.2656528970637664,-0.0552008746411755,94.00487402785691,0.0
591,-1.2992924580758498,-0.0869451529682165,94.02597181826063,0.0
592,-1.336254510768106,-0.12350586663143096,94.04777145402835,0.0
593,-1.3747070411891487,-0.16283571122297985,94.0702570767438,0.0
594,-1.4131410388320718,-0.20289240438260703,94.09341282678557,0.0
595,-1.4503014668499201,-0.24180305550912867,94.11722284098639,0.0
596,-1.4850682547722924,-0.2779635822479059,94.14167125034515,0.0
597,-1.516368279252169,-0.3100835479494121,94.16674217779182,0.0
598,-1.5431707868879003,-0.3371936436003344,94.19241973600501,0.0
599,-1.5645758857852403,-0.35863337059222866,94.21868802528205,0.0
600,-1.5799617177792145,-0.37403264060877556,94.24553113146125,0.0
601,-1.5891259896371057,-0.38329588768641976,94.27293312389656,0.0
602,-1.5923549335651743,-0.3865930208496144,94.3008780534846,0.0
603,-1.5903810999551267,-0.38435873758765254,94.32934995074336,0.0
604,-1.5842396303016524,-0.3772994775502729,94.3583328239437,0.0
605,-1.575078485555198,-0.36640404144787597,94.38781065729269,0.0
606,-1.5639989490263038,-0.35294856874960767,94.41776740916926,0.0
607,-1.5519876774861654,-0.338479661341053,94.44818701041223,0.0
608,-1.5399567667411795,-0.32475339181763135,94.47905336266078,0.0
609,-1.528853192086554,-0.3136065277209984,94.51035033674749,0.0
610,-1.5197566170129717,-0.3067432624464308,94.54206177114408,0.0
611,-1.5138716424063483,-0.30543797400302863,94.57417147046009,0.0
612,-1.5123424843889053,-0.31018065115625204,94.6066632039946,0.0
613,-1.515869894574457,-0.3203214041028494,94.63952070434125,0.0
614,-1.5241804881833407,-0.3337955515242701,94.672727666047,0.0
615,-1.535472321819065,-0.34702162557557725,94.70626774432425,0.0
616,-1.5460185723030566,-0.3550534106132581,94.7401245538177,0.0
617,-1.5501307069003878,-0.35203060549411086,94.77428166742497,0.0
618,-1.5406415827059876,-0.33191443376535157,94.80872261517236,0.0
619,-1.5099576501572658,-0.2894253627222887,94.84343088314536,0.0
620,-1.4515635924149326,-0.22103645038752492,94.8783899124748,0.0
621,-1.3616880022427327,-0.12583588521401695,94.9135830983785,0.0
622,-1.2407183671223445,-0.006070788521447573,94.94899378925923,0.0
623,-1.0939431252954621,0.13277231465010525,94.98460528585916,0.0
624,-0.9313202658376676,0.28241200618457935,95.02040084047115,0.0
625,-0.766203157729392,0.43269741886420743,95.05636365620755,0.0
626,-0.6132327971501361,0.572867037494141,95.09247688632661,0.0
627,-0.48584948061332695,0.6929184559859868,95.12872363361728,0.0
628,-0.3940098417764336,0.7848411139968128,95.16508694984265,0.0
629,-0.34266934908682184,0.8434958532571737,95.20154983524243,0.0
630,-0.3314005652314814,0.8670069780183481,95.23809523809524,1.0
631,-0.3552068023074516,0.856642968568967,95.27620935289741,0.0
632,-0.40624641075741896,0.8162715151658424,95.317335819688,0.0
633,-0.47591685922280397,0.7515540818680805,95.36139392088393,0.0
634,-0.55665968390716,0.6690751051944677,95.40830317096827,0.0
635,-0.642979747565834,0.5755768961573803,95.45798326607569,0.0
636,-0.7314822304547076,0.4774055278196423,95.51035403500862,0.0
637,-0.820100674347983,0.380189729768978,95.56533539165343,0.0
638,-0.9069748894094233,0.28870205451186015,95.62284728877087,0.0
639,-0.989529956571017,0.2068115432912207,95.6828096731367,0.0
640,-1.064179400674155,0.13743907769913175,95.7451424420136,0.0
641,-1.1267891553774312,0.08246452893160322,95.80976540093667,0.0
642,-1.1737164200504184,0.042590488560528036,95.87659822279981,0.0
643,-1.2030074498479995,0.017217611134237754,95.94556040823176,0.0
644,-1.2152825190595888,0.004411832420165296,96.01657124725405,0.0
645,-1.2139609524515678,0.0010346426463949954,96.08954978221622,0.0
646,-1.2047209790459628,0.0030677720621879595,96.16441477200593,0.0
647,-1.194349477537343,0.006107459381814728,96.24108465753392,0.0
648,-1.1893235625985352,0.005950424754255973,96.31947752849747,0.0
649,-1.1945259378281126,-0.0008385676722618973,96.39951109142703,0.0
650,-1.2124251541940572,-0.016489011793951375,96.48110263902423,0.0
651,-1.242888479693998,-0.041798976838012716,96.56416902080096,0.0
652,-1.2836003550933635,-0.07615337263426977,96.64862661503219,0.0
653,-1.3308960514963084,-0.11776234329172297,96.73439130203644,0.0
654,-1.3807330969190057,-0.16405047738824435,96.82137843880086,0.0
655,-1.4295280845151883,-0.21210366528179758,96.9095028349689,0.0
656,-1.4746693553050325,-0.2590822100725415,96.99867873021144,0.0
657,-1.5146412050833797,-0.30253246044012144,97.08881977300275,0.0
658,-1.5488197581347027,-0.3405653190875664,97.17983900082606,0.0
659,-1.5770879814789533,-0.3719068379081738,97.27164882183347,0.0
660,-1.5994470853993674,-0.39585365079643786,97.36416099798761,0.0
661,-1.6157725563724084,-0.41217848288765546,97.45728662971354,0.0
662,-1.625789983563728,-0.42102810671175595,97.55093614209042,0.0
663,-1.629253076637768,-0.4228422314774895,97.64501927261429,0.0
664,-1.6262228493815092,-0.41830370792348176,97.73944506056405,0.0
665,-1.6173021513281398,-0.40831464747214424,97.83412183800368,0.0
666,-1.6036951548553777,-0.39398363897431427,97.928957222455,0.0
667,-1.5870381584260635,-0.37660679646440864,98.02385811127591,0.0
668,-1.5690574040958842,-0.3576276472522163,98.11873067777903,0.0
669,-1.5511993672428182,-0.3385646319263964,98.21348036912768,0.0
670,-1.5343987871670524,-0.3208981520667515,98.3080119060449,0.0
671,-1.519081299369376,-0.30591210191517415,98.40222928437248,0.0
672,-1.505369341848917,-0.2944903858301071,98.49603577851673,0.0
673,-1.493335574160014,-0.2868802215398095,98.58933394681733,0.0
674,-1.4830952294525337,-0.28245200622545413,98.68202563887651,0.0
675,-1.4745863279552236,-0.27950682923954173,98.77401200488339,0.0
676,-1.4670424830365527,-0.27519953271278674,98.86519350697023,0.0
677,-1.4583536168654667,-0.26564754179202565,98.9554699326345,0.0
678,-1.4446437610448277,-0.24627546111427545,99.04474041026081,0.0
679,-1.4203944968313416,-0.2124009695812057,99.13290342677553,0.0
680,-1.3792850996516524,-0.16000613132288427,99.21985684746541,0.0
681,-1.3156566454589125,-0.0865754917734716,99.30549793798995,0.0
682,-1.2262413529684388,0.00816202693131357,99.38972338861618,0.0
683,-1.1116410167145214,0.12175905762961453,99.47242934070132,0.0
684,-0.9770578651738765,0.24897969085992389,99.55351141544844,0.0
685,-0.8319764499597097,0.38219435502702037,99.63286474495601,0.0
686,-0.6887995016979422,0.5122029874408388,99.7103840055815,0.0
687,-0.5607500892803386,0.6293546884314563,99.78596345363452,0.0
688,-0.4595647964020497,0.7247651428944722,99.85949696341402,0.0
689,-0.39355279828807754,0.791412647075566,99.93087806759897,0.0
690,-0.3664744893956985,0.8249247978826615,100.0,1.0
691,-0.3774459176249373,0.8239414192926551,100.06728253586888,0.0
692,-0.4217830377347531,0.7900342145311673,100.13325092275379,0.0
693,-0.4924532878981787,0.7272540536080863,100.19795670247466,0.0
694,-0.5816734046226704,0.6414397246663298,100.26145180227536,0.0
695,-0.6822134775937733,0.5394439294202745,100.323788522182,0.0
696,-0.7881200030007385,0.42841276585152543,100.38501952283383,0.0
697,-0.8947956798504804,0.3152055427356467,100.44519781379877,0.0
698,-0.9985931774737783,0.20598175116331285,100.50437674238623,0.0
699,-1.096225196786808,0.10593158166010616,100.56260998296844,0.0
700,-1.184323576157646,0.01910015428834551,100.61995152682196,0.0
701,-1.2593923730200123,-0.05174164030020645,100.67645567249996,0.0
702,-1.3182256491189235,-0.10520108559102581,100.73217701674541,0.0
703,-1.358659424654678,-0.14132896686068253,100.78717044595585,0.0
704,-1.3803703562252958,-0.16160539598699133,100.84149112820865,0.0
705,-1.385381778102119,-0.16879797930665835,100.89519450585625,0.0
706,-1.3780163753472328,-0.16666188563962445,100.94833628870072,0.0
707,-1.3642200921175347,-0.15948908660690989,101.00097244775553,0.0
708,-1.3504059913170527,-0.15155896858339943,101.05315920960348,0.0
709,-1.3421429632656539,-0.14657875669057455,101.1049530513585,0.0
710,-1.343072542642362,-0.14721647848647992,101.15641069623953,0.0
711,-1.3543551505039262,-0.15481555114270332,101.20758910976366,0.0
712,-1.3747607402093172,-0.1693417433835203,101.25854549656638,0.0
713,-1.4013066141920336,-0.18956133175758752,101.3093372978562,0.0
714,-1.430191502327272,-0.21339869104155915,101.36002218951063,0.0
715,-1.457730896825501,-0.23838615598609225,101.4106580808208,0.0
716,-1.481061323740876,-0.26210730365342666,101.46130311389186,0.0
717,-1.498502884876187,-0.28254805434416885,101.51201566370585,0.0
718,-1.509588191704211,-0.29830254049392135,101.56285433885442,0.0
719,-1.514839353291506,-0.30862242731446904,101.61387798294827,0.0
720,-1.51539665134414,-0.31333787546728203,101.66514567671027,0.0
721,-1.5125950073230223,-0.31270586920697296,101.71671674075999,0.0
722,-1.507574092384285,-0.3072511741949052,101.76865073909633,0.0
723,-1.5010046153722891,-0.2976554244943924,101.82100748328625,0.0
724,-1.4930047280048575,-0.2847241634430904,101.87384703736717,0.0
725,-1.483286603730658,-0.26942736369153164,101.92722972347093,0.0
726,-1.471507112104794,-0.25297566376843295,101.98121612817768,0.0
727,-1.4577155149411507,-0.23687212309309005,102.03586710960812,0.0
728,-1.442730599094271,-0.22287529933103947,102.0912438052632,0.0
729,-1.4282735289572552,-0.21282698701603675,102.14740764062024,0.0
730,-1.4167437408835615,-0.20833431277500664,102.20442033849554,0.0
731,-1.4106367256288632,-0.21034270347396908,102.26234392918352,0.0
732,-1.4117252991337081,-0.21868132939266266,102.32124076138317,0.0
733,-1.4202160512361373,-0.23169299352875783,102.38117351392297,0.0
734,-1.4341208312423392,-0.24606581851200868,102.44220520829644,0.0
735,-1.4490450959715475,-0.25695984235181946,102.50439922202033,0.0
736,-1.4585078423887026,-0.2584703307057008,102.56781930282949,0.0
737,-1.4547970934981878,-0.244400758804326,102.63252958372158,0.0
738,-1.4302521806210724,-0.209246536425533,102.69859459886699,0.0
739,-1.3787645947800942,-0.14923200404892578,102.76607930039921,0.0
740,-1.2972172548971537,-0.06321249567277702,102.83504907610244,0.0
741,-1.1865559212381138,0.04674051865335349,102.90556976801399,0.0
742,-1.052224653791614,0.17520866740269558,102.97770769195945,0.0
743,-0.9038064315910571,0.3138121010564131,103.05152965804113,0.0
744,-0.7538741950555246,0.4520807158003385,103.12710299209962,0.0
745,-0.6162372090642357,0.5786908876278539,103.2044955581708,0.0
746,-0.5039124577225002,0.6828786760322685,103.28377578196168,0.0
747,-0.42721812406361803,0.7558072277907093,103.36501267536934,0.0
748,-0.39235598845830455,0.7916748564251775,103.44827586206897,1.0
749,-0.40072993971138965,0.7883980912487601,103.53680722515554,0.0
750,-0.44907203046107363,0.7477796271888282,103.63358363695816,0.0
751,-0.5302652800518798,0.6751580774428025,103.73827862060726,0.0
752,-0.6346165974531022,0.5786173143569047,103.85056652971453,0.0
753,-0.75128252112979,0.46789379215541926,103.97012203599293,0.0
754,-0.8695923721212812,0.3531524549706632,104.09661963744966,0.0
755,-0.9801173223164441,0.24380437518271328,104.22973318658046,0.0
756,-1.0754443317851654,0.14751652602313114,104.36913543812301,0.0
757,-1.150679890171786,0.06952368512972318,104.51449761605328,0.0
758,-1.203711570338883,0.012302698345216176,104.6654889996265,0.0
759,-1.235217962458378,-0.024382507357282132,104.82177652838033,0.0
760,-1.2483859323990831,-0.043104924362036806,104.98302442612612,0.0
761,-1.2483080809422353,-0.04814708284802076,105.14889384406132,0.0
762,-1.2411010468447854,-0.044729408562447656,105.31904252323582,0.0
763,-1.232878682589596,-0.03821322112753524,105.49312447670336,0.0
764,-1.2287846859065092,-0.033391272331914884,105.67078969178101,0.0
765,-1.2322954162948452,-0.03395543001192161,105.85168385292961,0.0
766,-1.2449335551903569,-0.04219438444142126,106.03544808585089,0.0
767,-1.2664118854179034,-0.058931134874452035,106.22171872347862,0.0
768,-1.2951030526936071,-0.0836693115760489,106.41012709461448,0.0
769,-1.3286544586310067,-0.11488738877709037,106.60029933603026,0.0
770,-1.3645620203740305,-0.15040598890550683,106.79185622892204,0.0
771,-1.400573770282521,-0.18775689429937173,106.98441306066053,0.0
772,-1.4348810312150897,-0.22449979030950412,107.17757951283376,0.0
773,-1.4661326538037684,-0.2584577470632105,107.37095957662389,0.0
774,-1.4933505014023416,-0.28786754407889587,107.56415149659705,0.0
775,-1.5158269923468068,-0.31145979078797403,107.75674774401519,0.0
776,-1.5330606733409404,-0.3284926671464533,107.94833502079996,0.0
777,-1.5447520429127133,-0.33876147804715406,108.13849429528966,0.0
778,-1.5508523244489263,-0.34259641437131155,108.32680087093243,0.0
779,-1.5516374606878447,-0.3408471497556819,108.5128244890493,0.0
780,-1.547769659511022,-0.33484003697447867,108.69612946677984,0.0
781,-1.5403112209944505,-0.3262860766014247,108.87627487129063,0.0
782,-1.5306696296504707,-0.3171185400305123,109.05281473128115,0.0
783,-1.5204713420790288,-0.30924929026382203,109.22529828676204,0.0
784,-1.5113718757182277,-0.3042514996173775,109.39327027800792,0.0
785,-1.504805374577004,-0.3030005342638238,109.556271274499,0.0
786,-1.5016672098887989,-0.30532925232369457,109.71383804456313,0.0
787,-1.5019303623149933,-0.30977241039047165,109.86550396631057,0.0
788,-1.5042378549206108,-0.3134804425590162,110.01079948032083,0.0
789,-1.5055832567439589,-0.31236993734948193,110.14925258438996,0.0
790,-1.5012537705363254,-0.3015443743847347,110.28038937048075,0.0
791,-1.4852157695644472,-0.27596703270639905,110.40373460383668,0.0
792,-1.4510358233551983,-0.2313075218482037,110.51881234402207,0.0
793,-1.393258077283572,-0.16482829808140037,110.62514660743902,0.0
794,-1.308957591867103,-0.07614387369291216,110.72226207064374,0.0
795,-1.1990449841537172,0.03231364933580538,110.80968481354427,0.0
796,-1.068886931177142,0.15524822640497776,110.88694310130778,0.0
797,-0.927957331233035,0.284922869881837,110.95356820354098,0.0
798,-0.7885055512860133,0.4120084291635091,111.0090952490322,0.0
799,-0.6635273628651485,0.5267251744148904,111.05306411406102,0.0
800,-0.5645408985328618,0.6200820646191718,111.08502034199267,0.0
801,-0.49972400207632917,0.6849998082972208,111.1045160915811,0.0
802,-0.472843596676639,0.7171327028429991,111.1111111111111,1.0
803,-0.4831541749347095,0.7152719727382066,111.1111111111111,0.0
804,-0.526157940760579,0.681301006471041,111.1111111111111,0.0
805,-0.5949022592950948,0.6197575499453678,111.1111111111111,0.0
806,-0.6814027453230517,0.5371195412612076,111.1111111111111,0.0
807,-0.7778305397875375,0.44095839850713137,111.1111111111111,0.0
808,-0.8772522600617951,0.33909569155593433,111.1111111111111,0.0
809,-0.9738987779865123,0.2388654400946253,111.1111111111111,0.0
810,-1.0631000475683388,0.14653951532322979,111.1111111111111,0.0
811,-1.1411076707696246,0.06693261867025734,111.1111111111111,0.0
812,-1.205012135435353,0.00317625296831589,111.1111111111111,0.0
813,-1.2528610829863531,-0.043359033829088636,111.1111111111111,0.0
814,-1.2839457110916868,-0.07301101602683448,111.1111111111111,0.0
815,-1.299107294384816,-0.08765300509043168,111.1111111111111,0.0
816,-1.3008749159199227,-0.09040714810714587,111.1111111111111,0.0
817,-1.29329279156412,-0.08525490799849662,111.1111111111111,0.0
818,-1.281404500955032,-0.07656964357686466,111.1111111111111,0.0
819,-1.2704819740236248,-0.06861428036621596,111.1111111111111,0.0
820,-1.2651722805345307,-0.06506206074700711,111.1111111111111,0.0
821,-1.268760767091706,-0.0686033712382491,111.1111111111111,0.0
822,-1.282716155992591,-0.080692873257982,111.1111111111111,0.0
823,-1.3066091714359567,-0.10146937677854542,111.1111111111111,0.0
824,-1.3384032890059248,-0.1298511855933198,111.1111111111111,0.0
825,-1.3750262852814974,-0.16377971501524835,111.1111111111111,0.0
826,-1.413065621606996,-0.20056180581580407,111.1111111111111,0.0
827,-1.4494078346810102,-0.23725162577878517,111.1111111111111,0.0
828,-1.4816716316864347,-0.2710174909075109,111.1111111111111,0.0
829,-1.5083600930509669,-0.29945403252940517,111.1111111111111,0.0
830,-1.5287555750232518,-0.3208193647719197,111.1111111111111,0.0
831,-1.5426669779915585,-0.33419294612483874,111.1111111111111,0.0
832,-1.5501803159749037,-0.33955729602567364,111.1111111111111,0.0
833,-1.5515428270773164,-0.3378042931359022,111.1111111111111,0.0
834,-1.547235009448821,-0.3306578370632022,111.1111111111111,0.0
835,-1.538183568877613,-0.32049618534698787,111.1111111111111,0.0
836,-1.525982301354941,-0.31005723341808084,111.1111111111111,0.0
837,-1.5129527742716213,-0.3020240283029312,111.1111111111111,0.0
838,-1.5019081300728965,-0.29851645992028547,111.1111111111111,0.0
839,-1.4955734219203056,-0.300552627624869,111.1111111111111,0.0
840,-1.4957381931997848,-0.30757873782473344,111.1111111111111,0.0
841,-1.5023362445540176,-0.31718605930966604,111.1111111111111,0.0
842,-1.512727863074741,-0.3251258138563631,111.1111111111111,0.0
843,-1.5214710944577483,-0.3256924393926074,111.1111111111111,0.0
844,-1.520793240999318,-0.3124760964451059,111.1111111111111,0.0
845,-1.5018148184768785,-0.279399919273119,111.1111111111111,0.0
846,-1.4563661570598174,-0.2218768756859383,111.1111111111111,0.0
847,-1.3790279235163754,-0.13786785827280823,111.1111111111111,0.0
848,-1.2688902627123584,-0.028615082854051038,111.1111111111111,0.0
849,-1.1305210041659752,0.10112909857955324,111.1111111111111,0.0
850,-0.9737873002493121,0.24346439174837342,111.1111111111111,0.0
851,-0.8124608133656073,0.3882611320710335,111.1111111111111,0.0
852,-0.6618752263447071,0.5244810007198123,111.1111111111111,0.0
853,-0.5361876347018993,0.6416578939710319,111.1111111111111,0.0
854,-0.4459232237198899,0.7312640702591489,111.1111111111111,0.0
855,-0.3964056941753622,0.7877173567964112,111.1111111111111,0.0
856,-0.38741506237525525,0.8088708838104094,111.1111111111111,1.0
857,-0.41405550319677203,0.7959442111068371,111.1097570909031,0.0
858,-0.46847860706709576,0.7529726250417497,111.10574513706278,0.0
859,-0.5419012548971678,0.6859400141298945,111.09915067967616,0.0
860,-0.626341281873446,0.6018002756001917,111.09004948042474,0.0
861,-0.7156579810797729,0.5075780457176713,111.07851759799274,0.0
862,-0.8057587151922075,0.4096824838232897,111.06463135441102,0.0
863,-0.8941188216511438,0.3134895342819536,111.04846730235909,0.0
864,-0.9789662312904073,0.22317346509884334,111.03010219344553,0.0
865,-1.0585435095218485,0.1417177518182842,111.00961294748468,0.0
866,-1.1307660546488367,0.07101833935417083,110.9870766227861,0.0
867,-1.1933881099946297,0.012006625517341399,110.9625703874713,0.0
868,-1.2445535356706312,-0.0352468301820118,110.9361714918308,0.0
869,-1.2834434370373582,-0.0714500361756768,110.90795724173283,0.0
870,-1.3107047844375879,-0.09800502285340615,110.87800497309344,0.0
871,-1.3284572519915998,-0.11688982332959866,110.84639202741617,0.0
872,-1.3398688263414837,-0.1304859278224815,110.81319572840829,0.0
873,-1.3484698835541469,-0.14135074177641452,110.7784933596789,0.0
874,-1.3574603462861377,-0.15195591056333171,110.7423621435231,0.0
875,-1.369227580616677,-0.16442643900009354,110.70487922079472,0.0
876,-1.3851674258080262,-0.18031867295098283,110.66612163186988,0.0
877,-1.4057591824056657,-0.20046847688647235,110.62616629870105,0.0
878,-1.4307582616848102,-0.22492844025182446,110.58509000796185,0.0
879,-1.459371819447313,-0.25299931382167845,110.5429693952802,0.0
880,-1.4903571485891223,-0.2833492480561015,110.499880930558,0.0
881,-1.5220765008419368,-0.31420570237134704,110.45590090437325,0.0
882,-1.552595991285605,-0.3435984710292107,110.41110541546095,0.0
883,-1.5798986022095793,-0.36962720988080433,110.36557035926748,0.0
884,-1.6022055590546285,-0.3907230032042746,110.3193714175726,0.0
885,-1.6183164041639482,-0.40587171087895546,110.27258404917343,0.0
886,-1.627841327526533,-0.4147682763989729,110.2252834816229,0.0
887,-1.6312357196719414,-0.41787654100109384,110.17754470401535,0.0
888,-1.6296360556478378,-0.416378105599541,110.12944246081234,0.0
889,-1.6245835093794612,-0.4120053849399491,110.0810512466993,0.0
890,-1.6177528451867256,-0.40676716645570143,110.03244530246559,0.0
891,-1.6107600936318471,-0.40258922213443943,109.98369861189843,0.0
892,-1.6050326283441625,-0.40090770839080153,109.93488489968287,0.0
893,-1.6016501114060175,-0.4022685438764531,109.88607763029744,0.0
894,-1.601059388113826,-0.4059992690974267,109.83735000789753,0.0
895,-1.6026460821109627,-0.41002646916877955,109.78877497717683,0.0
896,-1.6042744608247008,-0.4109058505855542,109.74042522519775,0.0
897,-1.602015270394217,-0.40410879616461126,109.69237318418196,0.0
898,-1.590301001016642,-0.3845680044760405,109.64469103525231,0.0
899,-1.562649822102267,-0.34743108339728446,109.59745071311731,0.0
900,-1.51290942206683,-0.2889162234416901,109.55072391168943,0.0
901,-1.4367630134931726,-0.20712330728266187,109.50458209063025,0.0
902,-1.3330992435616442,-0.10264091593057427,109.45909648281317,0.0
903,-1.20483829328056,0.02118744308503237,109.41433810269764,0.0
904,-1.058938035569223,0.1584174724793178,109.3703777556072,0.0
905,-0.9055306278374318,0.3010783144196931,109.32728604790537,0.0
906,-0.7563804718964556,0.44008254412427605,109.28513339806315,0.0
907,-0.6230285468660821,0.5663198482503587,109.24399004861311,0.0
908,-0.5150471346268605,0.6717473993854205,109.20392607898538,0.0
909,-0.4387696337374454,0.7502957936077228,109.16501141922134,0.0
910,-0.3967157893271224,0.7984533395676888,109.1273158645621,0.0
911,-0.3877522725115076,0.815461280035164,109.09090909090908,1.0
912,-0.40785891254202117,0.8031302401065347,109.05548719773985,0.0
913,-0.4512485989864602,0.7653552393394522,109.02067728657617,0.0
914,-0.5115381314160795,0.7074487083310628,108.98644553523523,0.0
915,-0.5826970978445607,0.6354216058299575,108.95275822343827,0.0
916,-0.6596022984772119,0.5553242472763367,108.91958172930029,0.0
917,-0.7381671339486182,0.47272044894007337,108.88688252603531,0.0
918,-0.8151557268071022,0.3923244948142954,108.85462717887499,0.0
919,-0.8878840181435897,0.31779312200577514,108.82278234219908,0.0
920,-0.9540198917510738,0.25164266839660865,108.79131475687609,0.0
921,-1.0116148595964258,0.1952567013423439,108.76019124781264,0.0
922,-1.0593624639629444,0.14895758627162478,108.72937872170975,0.0
923,-1.096945295765178,0.11212852199519649,108.69884416502508,0.0
924,-1.1252681768791333,0.08338236763345055,108.66855464213923,0.0
925,-1.146412677366003,0.060775073053816214,108.6384772937251,0.0
926,-1.1632693435199861,0.04205452457138531,108.60857933531912,0.0
927,-1.1789475977519037,0.024924324630758374,108.57882805609266,0.0
928,-1.1961579866490386,0.007292678582122819,108.54919081782272,0.0
929,-1.2167639298040636,-0.012525552768171161,108.51963505406101,0.0
930,-1.2416164206321612,-0.03567844720351224,108.49012826949952,0.0
931,-1.2706641761854158,-0.06272864654925155,108.46063803953209,0.0
932,-1.3032353453087222,-0.09368050847680656,108.43113201001077,0.0
933,-1.338354963850004,-0.12806250426543675,108.40157789719538,0.0
934,-1.374994284265641,-0.1650380447727135,108.37194348789579,0.0
935,-1.4122104443327832,-0.20351993675787095,108.34219663980569,0.0
936,-1.4491876759911784,-0.2422726181504753,108.31230528202605,0.0
937,-1.4852133681834725,-0.27999847300001934,108.2822374157783,0.0
938,-1.519619567686051,-0.31541542217468344,108.25196111530532,0.0
939,-1.5517132691037903,-0.34733874901860545,108.2214445289589,0.0
940,-1.580721879036245,-0.37477847165043465,108.19065588047349,0.0
941,-1.6057906874771821,-0.39705443128609863,108.15956347042392,0.0
942,-1.6260703513377546,-0.41391690521122276,108.12813567786665,0.0
943,-1.6409087439646841,-0.42564529027428116,108.09634096216273,0.0
944,-1.6501130321237412,-0.4330867121619848,108.06414786498176,0.0
945,-1.6541937955857564,-0.4375955130175799,108.03152501248466,0.0
946,-1.6544726934410285,-0.4408467213565958,107.99844111768482,0.0
947,-1.6529510964248022,-0.4445216581830847,107.96486498298536,0.0
948,-1.6519009970349572,-0.4498975261952101,107.93076550289136,0.0
949,-1.653230284557058,-0.4574073312801009,107.89611166689545,0.0
950,-1.6577590728245901,-0.46626213382182224,107.86087256253525,0.0
951,-1.6645932373285677,-0.47423549548250915,107.82501737862033,0.0
952,-1.6707817129879399,-0.4776945542364778,107.7885154086278,0.0
953,-1.6713975386088071,-0.47192329958032586,107.75133605426406,0.0
954,-1.6601013707101262,-0.4517273047037698,107.71344882919077,0.0
955,-1.6301458999753407,-0.41224663530476663,107.67482336291346,0.0
956,-1.5756760997967016,-0.3498491061590785,107.63542940483006,0.0
957,-1.4930903865449539,-0.262943414203932,107.59523682843768,0.0
958,-1.3821720253739835,-0.15255100835689384,107.55421563569493,0.0
959,-1.246701802770988,-0.02251008871052504,107.51233596153777,0.0
960,-1.0943404178232767,0.12075032229616478,107.46956807854596,0.0
961,-0.9357219730193417,0.26884682693708,107.42588240175785,0.0
962,-0.7828987680960545,0.4123890959294789,107.3812494936308,0.0
963,-0.6474650775755456,0.5420789462185909,107.33564006914409,0.0
964,-0.5387964688587799,0.6497765012010243,107.28902500104176,0.0
965,-0.46282172213855205,0.7293639311687444,107.24137532521227,0.0
966,-0.42158966100169454,0.7772874946518196,107.19266224620169,0.0
967,-0.41364985026663625,0.7927296608065243,107.14285714285714,1.0
968,-0.43502168856778833,0.7774357417737799,107.08932517960073,0.0
969,-0.4803742997621905,0.7352755165454575,107.02962896889903,0.0
970,-0.5440362921261402,0.6716481881555253,106.96403694467584,0.0
971,-0.6205921391430088,0.5928367963875996,106.89281830487218,0.0
972,-0.7050333008464356,0.5053933631151757,106.81624272914232,0.0
973,-0.7926241079856231,0.4156017827119497,106.73458010969422,0.0
974,-0.8787386306612073,0.3290354213117789,106.64810029553655,0.0
975,-0.9588957279724866,0.2502096660723629,106.55707285033941,0.0
976,-1.02908917394717,0.182328103926935,106.46176682406448,0.0
977,-1.0863414123565487,0.12712948991365783,106.3624505384714,0.0
978,-1.1292782092446045,0.0848521173034917,106.25939138655986,0.0
979,-1.1584829669717613,0.054333878275344694,106.15285564596488,0.0
980,-1.1764566201575695,0.03325554098402822,106.04310830628147,0.0
981,-1.187147715029535,0.01851279557379014,105.93041291025803,0.0
982,-1.1951649663764856,0.0066758820723013534,105.81503140876356,0.0
983,-1.2048819325059628,-0.005526909559851079,105.69722402940262,0.0
984,-1.2196604455277327,-0.02077582125957793,105.57724915862374,0.0
985,-1.241362913424761,-0.04084394728946558,105.4553632371427,0.0
986,-1.270226057900171,-0.0664449632793414,105.33182066847858,0.0
987,-1.3050688386671818,-0.09725771477667977,105.20687374038303,0.0
988,-1.3437342946405335,-0.13210679969305725,105.08077255892584,0.0
989,-1.3836315315744014,-0.16925015323161186,104.95376499498664,0.0
990,-1.422248548200021,-0.2067088868311147,104.82609664289193,0.0
991,-1.4575390155871235,-0.2425739245738464,104.69801079092791,0.0
992,-1.4881331410542102,-0.275237224603578,104.56974840345505,0.0
993,-1.5133707846898736,-0.303518399543776,104.4415481143449,0.0
994,-1.5331927260401197,-0.32668443997428276,104.313646231461,0.0
995,-1.5479467718396294,-0.34438483274206483,104.18627675190483,0.0
996,-1.5581687954872174,-0.3565415345309899,104.05967138775264,0.0
997,-1.5643896027171371,-0.3632398026325457,103.93405960201268,0.0
998,-1.567003486554458,-0.36466086487543,103.80966865454063,0.0
999,-1.5662186261833373,-0.3610821182617601,103.68672365765944,0.0
1000,-1.5620952566378927,-0.35294816572603016,103.5654476412403,0.0
1001,-1.5546648293919179,-0.3409911241531367,103.44606162701405,0.0
1002,-1.5441111906317508,-0.3263566609058965,103.32878471189545,0.0
1003,-1.530981262774004,-0.31067860741525144,103.21383416011889,0.0
1004,-1.516375956943502,-0.29604438561262925,103.10142550399993,0.0
1005,-1.5020531869211684,-0.28480858622789224,102.9917726531555,0.0
1006,-1.4903615699045802,-0.2792425721360304,102.8850880120349,0.0
1007,-1.48393016849674,-0.28104983013776014,102.78158260563379,0.0
1008,-1.4850819335057006,-0.29082188419108296,102.68146621328624,0.0
1009,-1.4950219798852917,-0.307546839734518,102.58494751045156,0.0
1010,-1.5129616133702666,-0.32830022229203815,102.49223421843787,0.0
1011,-1.5354370025836597,-0.3482363589619722,102.40353326202964,0.0
1012,-1.5561169782821045,-0.3609547198554794,102.31905093501233,0.0
1013,-1.566327578712132,-0.3592443951519445,102.23899307361629,0.0
1014,-1.5563469320764065,-0.3361249857685905,102.16356523793026,0.0
1015,-1.517285617012591,-0.28602365277478947,102.09297290136583,0.0
1016,-1.4431448242785343,-0.20587717827160323,102.02742164828571,0.0
1017,-1.3325247281537083,-0.09594092941653648,101.96711737994247,0.0
1018,-1.1894961647345474,0.0398705744223907,101.91226652890856,0.0
1019,-1.0233512590966638,0.19420153390638978,101.86307628221576,0.0
1020,-0.8472529123062396,0.35701273781801207,101.81975481345961,0.0
1021,-0.6761078384295239,0.5167553047916692,101.78251152416536,0.0
1022,-0.5241895631170508,0.6617587616560858,101.75155729475354,0.0
1023,-0.4030717218362291,0.7816003410938727,101.72710474548862,0.0
1024,-0.3202967649220129,0.8682415134902635,101.70936850783994,0.0
1025,-0.27895923271970924,0.9167790245237054,101.69856550673504,0.0
1026,-0.27811661763412154,0.9257424083993226,101.69491525423729,1.0
1027,-0.31374114004889914,0.896955512653439,101.69491525423729,0.0
1028,-0.3798470326780475,0.8350463762917484,101.69491525423729,0.0
1029,-0.4694786430650536,0.7467263761797569,101.69491525423729,0.0
1030,-0.575388272588368,0.6399646302518996,101.69491525423729,0.0
1031,-0.6904030174716446,0.5231647252096074,101.69491525423729,0.0
1032,-0.8076082467539761,0.40442017404036423,101.69491525423729,0.0
1033,-0.9205185352695257,0.29089468554549536,101.69491525423729,0.0
1034,-1.0233618947523566,0.18835125086693247,101.69491525423729,0.0
1035,-1.1115021689213498,0.10084214784971693,101.69491525423729,0.0
1036,-1.1819162203752451,0.030566904547805557,101.69491525423729,0.0
1037,-1.2335722018384647,-0.022098904427737737,101.69491525423729,0.0
1038,-1.2675499927278628,-0.05840971435496359,101.69491525423729,0.0
1039,-1.2868069460211733,-0.08091152314966585,101.69491525423729,0.0
1040,-1.295598547177422,-0.09299870080589434,101.69491525423729,0.0
1041,-1.2986744523082145,-0.09842352492458727,101.69491525423729,0.0
1042,-1.300443568430029,-0.10082564144643288,101.69491525423729,0.0
1043,-1.3043101370584271,-0.10334556470287001,101.69491525423729,0.0
1044,-1.3123247246710774,-0.10836940316916135,101.69491525423729,0.0
1045,-1.32519323932602,-0.11742463555909197,101.69491525423729,0.0
1046,-1.3425809607849095,-0.13121580949711836,101.69491525423729,0.0
1047,-1.3635727258961419,-0.14976256199944524,101.69491525423729,0.0
1048,-1.3871263513605587,-0.17258708728369843,101.69491525423729,0.0
1049,-1.4123860656469287,-0.19889743648526859,101.69491525423729,0.0
1050,-1.4387902111377289,-0.22772592653215873,101.69491525423729,0.0
1051,-1.4659858300935642,-0.25800385854668734,101.69491525423729,0.0
1052,-1.4936242088932514,-0.28857799954060376,101.69491525423729,0.0
1053,-1.521137871642754,-0.3181941319528132,101.69491525423729,0.0
1054,-1.5475886605592248,-0.3454834882322401,101.69491525423729,0.0
1055,-1.571640811174969,-0.3689870069745286,101.69491525423729,0.0
1056,-1.5916709522117638,-0.38724104696642514,101.69491525423729,0.0
1057,-1.6059932277695672,-0.3989298340385191,101.69491525423729,0.0
1058,-1.6131566872455596,-0.40308914130325463,101.69491525423729,0.0
1059,-1.6122600333918977,-0.39932728914552795,101.69491525423729,0.0
1060,-1.603221646129783,-0.3880174368753795,101.69491525423729,0.0
1061,-1.5869424492193738,-0.37041181758168157,101.69491525423729,0.0
1062,-1.5653124099959417,-0.34863485073144773,101.69491525423729,0.0
1063,-1.5410414382827955,-0.32552717131308395,101.69491525423729,0.0
1064,-1.517334647092154,-0.3043345082666003,101.69491525423729,0.0
1065,-1.4974642312691253,-0.28826120172371683,101.69491525423729,0.0
1066,-1.4843014444204148,-0.27993473986559014,101.69491525423729,0.0
1067,-1.4798603718312955,-0.2808515854947182,101.69491525423729,0.0
1068,-1.4848827562874742,-0.2908920897065703,101.69491525423729,0.0
1069,-1.4984796879281574,-0.30799953054622664,101.69491525423729,0.0
1070,-1.5178572994892165,-0.3281113327950609,101.69491525423729,0.0
1071,-1.5381914890015305,-0.3454062121476785,101.69491525423729,0.0
1072,-1.5527633345508782,-0.3528885116324151,101.69491525423729,0.0
1073,-1.5534875493096811,-0.3432734897223211,101.69491525423729,0.0
1074,-1.5319234515138749,-0.31007301781023955,101.69491525423729,0.0
1075,-1.480734081926096,-0.24872312107811656,101.69491525423729,0.0
1076,-1.3953775770416816,-0.1575586598399933,101.69491525423729,0.0
1077,-1.2756421916794023,-0.03844017627987102,101.69491525423729,0.0
1078,-1.1265586416741789,0.10311910009431352,101.69491525423729,0.0
1079,-0.9583045745829382,0.2583951200843089,101.69491525423729,0.0
1080,-0.7849584966266607,0.41642486262606504,101.69491525423729,0.0
1081,-0.6222933851575732,0.5653606214785752,101.69491525423729,0.0
1082,-0.48510442816056737,0.6939770048609941,101.69491525423729,0.0
1083,-0.38472541812343264,0.7930673626012498,101.69491525423729,0.0
1084,-0.32734280968215573,0.85649146079664,101.69491525423729,0.0
1085,-0.31348130451402456,0.8817142739561008,101.69491525423729,1.0
1086,-0.3386927649377567,0.8697865322591782,101.68921049496309,0.0
1087,-0.3951466071095375,0.8248322841361252,101.67230354721443,0.0
1088,-0.4736013671982612,0.7531982933033056,101.64451065204028,0.0
1089,-0.5651964625379942,0.6624640634317684,101.60615450166829,0.0
1090,-0.6626384966823342,0.5605031331895842,101.55756356858058,0.0
1091,-0.7606055083101142,0.45473447614308193,101.49907144638082,0.0
1092,-0.8554608283380242,0.351627210190088,101.43101620441112,0.0
1093,-0.9445676665247061,0.2564467145352948,101.35373975792237,0.0
1094,-1.0255738851374954,0.17317682578923174,101.26758725544536,0.0
1095,-1.0959860653819582,0.10453295418106459,101.17290648485162,0.0
1096,-1.15320302740685,0.05199474178502124,101.07004729943644,0.0
1097,-1.1949858694406705,0.015823668939663513,100.95936106520055,0.0
1098,-1.2201685371542916,-0.004925950281210428,100.84120013035404,0.0
1099,-1.2293170261984039,-0.012361742887051747,100.71591731791666,0.0
1100,-1.2250579772724344,-0.009622710554872696,100.58386544214446,0.0
1101,-1.2119110258020998,-0.0006268602403529805,100.44539684937152,0.0
1102,-1.1956285356204046,0.010305974856232303,100.30086298372349,0.0
1103,-1.182207031530716,0.018919170734421384,100.15061397803095,0.0
1104,-1.1768309755796353,0.021502751072970727,99.9949982701508,0.0
1105,-1.1830158862397342,0.015311671933710386,99.83436224479037,0.0
1106,-1.2021441486201738,-0.001155730351392742,99.66904990082298,0.0
1107,-1.2334678685966471,-0.028064768375609006,99.49940254398646,0.0
1108,-1.2745297879321673,-0.06434217504552464,99.32575850476482,0.0
1109,-1.3218578687854616,-0.10792994611542461,99.1484528811723,0.0
1110,-1.3717392201689314,-0.15613206436042373,98.96781730608323,0.0
1111,-1.4208794204108333,-0.20598079078916415,98.78417973868572,0.0
1112,-1.4668005566797264,-0.2545586347707113,98.59786427957741,0.0
1113,-1.5079151557745518,-0.29923643410945094,98.40919100897045,0.0
1114,-1.5433143694184102,-0.33781843374772796,98.2184758474286,0.0
1115,-1.5723988342598494,-0.3686118884884688,98.02603043852184,0.0
1116,-1.5945288993892863,-0.390453550927721,97.83216205275367,0.0
1117,-1.6088574817490022,-0.4027249429984667,97.63717351209249,0.0
1118,-1.6144351091584268,-0.40537455001970135,97.4413631344195,0.0
1119,-1.610566734858971,-0.39894468763036445,97.2450246971949,0.0
1120,-1.5972919002834427,-0.3845826556301175,97.04844741963598,0.0
1121,-1.5757933943875275,-0.3640077318254993,96.85191596270006,0.0
1122,-1.5485426687050767,-0.3394113807281627,96.65571044616814,0.0
1123,-1.5190685447963028,-0.313285991037329,96.46010648213219,0.0
1124,-1.4913670318845502,-0.28820066927456955,96.26537522420158,0.0
1125,-1.4691082650617513,-0.2665616672910601,96.07178343175877,0.0
1126,-1.4548868490295257,-0.2504015315759014,95.87959354861374,0.0
1127,-1.4497631736530505,-0.24123121099999745,95.68906379542842,0.0
1128,-1.45324795231588,-0.23996583583137662,95.50044827530769,0.0
1129,-1.463722287394955,-0.24690640070081943,95.31399709198043,0.0
1130,-1.4791207442494136,-0.26173795072639905,95.12995648002526,0.0
1131,-1.497598857786636,-0.283500512977237,94.94856894662595,0.0
1132,-1.5179022800734008,-0.31050661092676174,94.77007342437759,0.0
1133,-1.539259522975366,-0.34021506319594874,94.5947054346989,0.0
1134,-1.5608025398043188,-0.369113177888723,94.42269726144417,0.0
1135,-1.5807187839222665,-0.3926920597784086,94.25427813434744,0.0
1136,-1.5954838886845897,-0.405607102666415,94.08967442197138,0.0
1137,-1.5995567487469649,-0.40208914376970034,93.92910983387543,0.0
1138,-1.5858124711617023,-0.376613336389827,93.77280563176,0.0
1139,-1.5467636783886545,-0.324756184863461,93.6209808493881,0.0
1140,-1.4763436436082225,-0.244098244838525,93.47385252113001,0.0
1141,-1.3717909779719397,-0.13498436144520087,93.33163591902391,0.0
1142,-1.2350755043451198,-0.0009527617258883736,93.19454479829133,0.0
1143,-1.0733871447379122,0.15130557400743772,93.06279165129602,0.0
1144,-0.8984574775899826,0.3125043449679472,92.93658796998399,0.0
1145,-0.7248177497852716,0.4717725130394772,92.81614451689315,0.0
1146,-0.5674044855847148,0.6179531665305218,92.70167160487489,0.0
1147,-0.43910140096616396,0.7409610014696214,92.59337938572243,0.0
1148,-0.3488010152528269,0.8329574333096894,92.49147814795782,0.0
1149,-0.3003957700874963,0.8891467676659066,92.396178624087,0.0
1150,-0.292836441230385,0.9080841503291976,92.3076923076923,1.0
1151,-0.321115852902387,0.8914923399370734,92.22250694027743,0.0
1152,-0.3778248427210661,0.8436820641917196,92.13700507825877,0.0
1153,-0.4548294333506778,0.7707363053050454,92.05124091480981,0.0
1154,-0.5446455941130929,0.679639150287259,91.96526825595157,0.0
1155,-0.6412261878752261,0.5775049411286295,91.87914051871994,0.0
1156,-0.7400830814756459,0.47100566579932124,91.79291072997071,0.0
1157,-0.8378823588126387,0.3660238375262004,91.70663152581028,0.0
1158,-0.9318016127814676,0.26749580692725394,91.62035515164023,0.0
1159,-1.0189758172073209,0.17937282864364343,91.53413346280448,0.0
1160,-1.0962769010252855,0.10462125146200249,91.44801792582707,0.0
1161,-1.1605129694628284,0.04520548772806815,91.36205962022885,0.0
1162,-1.2089630071062802,0.0020362459880872708,91.2763092409121,0.0
1163,-1.2400435338575495,-0.025093613538853143,91.19081710110159,0.0
1164,-1.2538675834643895,-0.03753643402826831,91.1056331358306,0.0
1165,-1.252500482620093,-0.037725954026007286,91.02080690596163,0.0
1166,-1.239812969108263,-0.02898522591732894,90.9363876027304,0.0
1167,-1.220944296111171,-0.015202510323006554,90.8524240528033,0.0
1168,-1.2014864515879253,-0.0004097290179966018,90.76896472383727,0.0
1169,-1.1865670087178966,0.01167087359465524,90.68605773053321,0.0
1170,-1.1800332026897908,0.018032097633511227,90.60375084117219,0.0
1171,-1.183920112184769,0.01666668095241554,90.52209148462589,0.0
1172,-1.198322557114575,0.006685873063088071,90.44112675783194,0.0
1173,-1.2216919633477799,-0.01173576892183753,90.36090343372567,0.0
1174,-1.251465552533692,-0.037557746670315084,90.28146796961968,0.0
1175,-1.2848374188011251,-0.06915288061101837,90.20286651602403,0.0
1176,-1.319436104879332,-0.10459776898334908,90.12514492589878,0.0
1177,-1.3537070425181865,-0.14191364472643375,90.04834876433237,0.0
1178,-1.3869076555790012,-0.1792227825862886,89.97252331863892,0.0
1179,-1.418769571734432,-0.21481844769112396,89.89771360886859,0.0
1180,-1.4490062922462166,-0.247175105015413,89.82396439872481,0.0
1181,-1.4768936005283477,-0.27494112315849717,89.75132020688363,0.0
1182,-1.5011060610705527,-0.2969543079966261,89.67982531871024,0.0
1183,-1.519879960501295,-0.3123032344228845,89.60952379836814,0.0
1184,-1.5314418649743389,-0.3204316442209468,89.54045950131786,0.0
1185,-1.534545308634153,-0.3212587773922494,89.4726760872013,0.0
1186,-1.5289286421876547,-0.3152741325636266,89.40621703310958,0.0
1187,-1.5155471206077413,-0.30356576870789775,89.34112564723198,0.0
1188,-1.4965168402944842,-0.2877566443391898,89.27744508288457,0.0
1189,-1.4747985621469317,-0.2698486058240944,89.2152183529174,0.0
1190,-1.453712829620191,-0.252000454259391,89.15448834450018,0.0
1191,-1.4364014273261931,-0.23628656066066894,89.09529783428626,0.0
1192,-1.4253427618748742,-0.22448928221102638,89.03768950395599,0.0
1193,-1.422007656126801,-0.217969225090136,88.98170595614103,0.0
1194,-1.4267182869148447,-0.2176339613140977,88.92738973073152,0.0
1195,-1.4387447449395736,-0.22399409571473375,88.8747833215691,0.0
1196,-1.4566321380679368,-0.237264513550868,88.82392919352893,0.0
1197,-1.4786919930509788,-0.2574480779433602,88.77486979999519,0.0
1198,-1.503524319462668,-0.2843372359857498,88.72764760073494,0.0
1199,-1.5303860966013494,-0.3173899285014953,88.6823050801756,0.0
1200,-1.5592214584229351,-0.3554775758342771,88.63888476609253,0.0
1201,-1.590244184164202,-0.3965554698889318,88.59742924871426,0.0
1202,-1.6231130989789102,-0.4373548175452767,88.5579812002524,0.0
1203,-1.655925659055709,-0.4732241436204119,88.52058339486578,0.0
1204,-1.6844018449810818,-0.4982420758418415,88.48527872906782,0.0
1205,-1.7016624531473818,-0.5056782734527184,88.45211024258765,0.0
1206,-1.698880363699451,-0.4888006175623755,88.42112113969641,0.0
1207,-1.666821288609965,-0.4419325138534529,88.39235481101065,0.0
1208,-1.597976521848626,-0.36157956139287506,88.36585485578608,0.0
1209,-1.4887409593340017,-0.24739560006199124,88.34166510471579,0.0
1210,-1.3410051214477539,-0.10276224130205258,88.31982964324787,0.0
1211,-1.1626516163321856,0.06518261428513208,88.30039283543857,0.0
1212,-0.9667405668103075,0.24612527432542441,88.28339934835837,0.0
1213,-0.7695386398656596,0.4276976667805188,88.26889417706892,0.0
1214,-0.5878693587179994,0.5969574289425781,88.25692267019039,0.0
1215,-0.4364332648593028,0.7419707519174531,88.2475305560802,0.0
1216,-0.32571573480589083,0.8532260970623959,88.24076396964426,0.0
1217,-0.2608901682139803,0.9246501979117265,88.23666947980455,0.0
1218,-0.24181778503476375,0.9540865441908747,88.23529411764706,1.0
1219,-0.2639520396954415,0.9432066520332583,88.23710109178238,0.0
1220,-0.3197689660989749,0.8969288357984797,88.24246710048806,0.0
1221,-0.40030684657056026,0.8224955676885838,88.25131038913993,0.0
1222,-0.4964896421931482,0.7283963902374275,88.2635499722481,0.0
1223,-0.6000646224391736,0.6233178097872506,88.279105569951,0.0
1224,-0.7041335747546726,0.5152634050636739,88.2978975463901,0.0
1225,-0.8033521105695614,0.4109308636205679,88.3198468498957,0.0
1226,-0.8939042022967157,0.31537302161522107,88.34487495491898,0.0
1227,-0.9733486399908019,0.23191953284639866,88.37290380565086,0.0
1228,-1.0404076182097308,0.16230185303285072,88.40385576127196,0.0
1229,-1.0947433501428951,0.10690884392183453,88.43765354278332,0.0
1230,-1.13675131244368,0.06510128397996562,88.474220181371,0.0
1231,-1.167385417434008,0.03552616012984251,88.51347896826208,0.0
1232,-1.1880181167219257,0.016390220893197416,88.55535340603367,0.0
1233,-1.20032809171086,0.005671865378935409,88.59976716133957,0.0
1234,-1.2062029257580023,0.0012674030343627352,88.646644019024,0.0
1235,-1.2076456149597348,0.0010801217686388365,88.69590783759392,0.0
1236,-1.206680485205823,0.0030680345793477892,88.7474825060262,0.0
1237,-1.205262650159322,0.005269236485316894,88.80129190188785,0.0
1238,-1.2052017892999907,0.005823493537531435,88.85725985075209,0.0
1239,-1.2081119289579778,0.0030058849110017744,88.91531008689421,0.0
1240,-1.2153909315977065,-0.004716471028824165,88.9753662152563,0.0
1241,-1.2282169480762881,-0.01860016431056344,89.03735167467077,0.0
1242,-1.2475313103659866,-0.03951742857017476,89.10118970233663,0.0
1243,-1.2739710688752548,-0.06783697855170609,89.16680329954451,0.0
1244,-1.3077308082597674,-0.10331479710305508,89.23411519864932,0.0
1245,-1.3483724162951654,-0.14502138245625998,89.30304783129165,0.0
1246,-1.3946472079496157,-0.1913322559762875,89.37352329787149,0.0
1247,-1.4444212817520576,-0.24000214723311158,89.44546333828036,0.0
1248,-1.4947809792703006,-0.2883303867554794,89.51878930390002,0.0
1249,-1.5423394577934781,-0.33340785674138845,89.59342213087778,0.0
1250,-1.5836908238040204,-0.3724182344357337,89.66928231469143,0.0
1251,-1.615901557980956,-0.4029526297747219,89.74628988601728,0.0
1252,-1.6369187930063307,-0.4232906702159433,89.82436438791866,0.0
1253,-1.6458146187508633,-0.4326043071659289,89.90342485437213,0.0
1254,-1.6428505582780633,-0.4310524811083832,89.98338979015179,0.0
1255,-1.6293994170621222,-0.41975271850878687,90.06417715209285,0.0
1256,-1.6077756676740795,-0.40063609318838933,90.14570433175805,0.0
1257,-1.5810005751646907,-0.3762109217852227,90.22788813953086,0.0
1258,-1.5524924370946844,-0.3492746246533812,90.31064479016177,0.0
1259,-1.5256632650944122,-0.3226196058898026,90.39388988979492,0.0
1260,-1.5034414810054022,-0.29877598422875873,90.4775384245032,0.0
1261,-1.4878109433510895,-0.279821224605049,90.56150475036138,0.0
1262,-1.4795133561832399,-0.26726612079197687,90.64570258508772,0.0
1263,-1.478051752160458,-0.2620029196268585,90.73004500128526,0.0
1264,-1.4820351268120866,-0.26428187685838944,90.81444442131478,0.0
1265,-1.4897493613624635,-0.27367513085296746,90.89881261383177,0.0
1266,-1.4997036804019206,-0.2889971715107107,90.98306069202087,0.0
1267,-1.5108677195481635,-0.30817967268027696,91.06709911356086,0.0
1268,-1.522421762246818,-0.32813812647135787,91.15083768235367,0.0
1269,-1.5330607421374063,-0.34470522378671753,91.23418555205127,0.0
1270,-1.54012944951112,-0.3527252868787679,91.31705123141396,0.0
1271,-1.5390124583032239,-0.34639242983431384,91.39934259153301,0.0
1272,-1.5231814801383339,-0.31986844811323134,91.48096687495091,0.0
1273,-1.4851069145756004,-0.2681426344414162,91.56183070671116,0.0
1274,-1.4179332816592713,-0.18801373267391708,91.6418401073695,0.0
1275,-1.3175119385810299,-0.07900888295378333,91.72090050799672,0.0
1276,-1.1841969219988473,0.055971492986332805,91.79891676720304,0.0
1277,-1.0238195188506227,0.21046734445532833,91.87579319021181,0.0
1278,-0.8474705977819477,0.3748383505975729,91.9514335500098,0.0
1279,-0.6700648631658312,0.5372048458261418,92.0257411105985,0.0
1280,-0.5080146309128297,0.6848279375998553,92.09861865237023,0.0
1281,-0.37657815935682554,0.8057107188439012,92.16996849962982,0.0
1282,-0.28749515385268937,0.8901525539139721,92.23969255028074,0.0
1283,-0.24738425910733397,0.9319951836926279,92.3076923076923,1.0
1284,-0.25712815417032725,0.9293592025485526,92.37543749613344,0.0
1285,-0.3122145781837391,0.8847663411794051,92.44443017464101,0.0
1286,-0.4038189316725177,0.8046540056989157,92.51461990527093,0.0
1287,-0.5203359859213282,0.6983901537175468,92.58595601497785,0.0
1288,-0.649073743911062,0.5769701597957544,92.65838758179481,0.0
1289,-0.777868460178483,0.4516122351884797,92.7318634215217,0.0
1290,-0.896432574240695,0.3324624572427266,92.80633207492758,0.0
1291,-0.9972969461839264,0.22758041932543122,92.88174179547269,0.0
1292,-1.0762630682401426,0.1423131447442947,92.95804053755631,0.0
1293,-1.1323496023452235,0.07909201786429688,93.03517594529761,0.0
1294,-1.1672991783242266,0.03761878819335433,93.11309534185665,0.0
1295,-1.184789061702197,0.015353500739868325,93.19174571930412,0.0
1296,-1.18953728076097,0.008186624638598969,93.2710737290476,0.0
1297,-1.1864930147568267,0.01117169526733755,93.35102567282426,0.0
1298,-1.1802435569345806,0.019210425903666437,93.43154749426898,0.0
1299,-1.1746801022960849,0.027612611175930016,93.51258477106782,0.0
1300,-1.1728769392071745,0.032489545251376345,93.59408270770803,0.0
1301,-1.177088784260389,0.030973911194484935,93.67598612883425,0.0
1302,-1.188776018953369,0.021285337719886055,93.75823947322338,0.0
1303,-1.2086162197245922,0.002676512435071915,93.84078678838881,0.0
1304,-1.2365185047778227,-0.024699657347808213,93.92357172582618,0.0
1305,-1.2716875956854272,-0.05996349363415138,94.00653753691316,0.0
1306,-1.312769445367458,-0.10169129870002278,94.0896270694752,0.0
1307,-1.3580624510996653,-0.14808560088388972,94.17278276503032,0.0
1308,-1.4057318484465586,-0.19712134117661534,94.25594665672591,0.0
1309,-1.4539534193486745,-0.24666613560406514,94.33906036798022,0.0
1310,-1.500947898436498,-0.29458053128937295,94.42206511184214,0.0
1311,-1.544931910271657,-0.3388086089540352,94.50490169108242,0.0
1312,-1.5840677494094133,-0.3774692723145149,94.58751049902976,0.0
1313,-1.6165068764417365,-0.40895406118555555,94.669831521165,0.0
1314,-1.6405772287206737,-0.43202980991807977,94.75180433748716,0.0
1315,-1.6550818719755847,-0.44593672243833127,94.83336812566415,0.0
1316,-1.6596007230157594,-0.45046752000802504,94.91446166498177,0.0
1317,-1.6546630829906772,-0.4460132294052699,94.99502334110377,0.0
1318,-1.6417040974403911,-0.4335657943479094,95.07499115165628,0.0
1319,-1.622810514974019,-0.4146746989875689,95.15430271264853,0.0
1320,-1.60035064245636,-0.3913607382384287,95.23289526574302,0.0
1321,-1.576623817569835,-0.3659921107795661,95.31070568638643,0.0
1322,-1.553639421733545,-0.341125508244982,95.38767049281346,0.0
1323,-1.5330628469521907,-0.31931002984795054,95.46372585593426,0.0
1324,-1.5162834148819975,-0.3028488813391773,95.53880761011663,0.0
1325,-1.5045016630461785,-0.2935174902526667,95.61285126487286,0.0
1326,-1.4987196324795489,-0.29224944490201565,95.68579201746054,0.0
1327,-1.4995505714786543,-0.29882234696623655,95.75756476640677,0.0
1328,-1.5068348475473534,-0.31159883874850397,95.82810412596338,0.0
1329,-1.5191388613414767,-0.3273952223432963,95.89734444150085,0.0
1330,-1.5332975236997768,-0.34155217013339406,95.96521980584752,0.0
1331,-1.5442084068258415,-0.3482626439252744,96.03166407657955,0.0
1332,-1.5450711593544075,-0.3411704704412425,96.09661089426638,0.0
1333,-1.5281777159183976,-0.31419533034535474,96.15999370167565,0.0
1334,-1.4862084782389196,-0.26247895737880683,96.22174576394006,0.0
1335,-1.4138140556902132,-0.18329946322330232,96.28180018968759,0.0
1336,-1.3091186159695152,-0.07678129152615826,96.34008995313565,0.0
1337,-1.1747297730825745,0.05375315416439591,96.39654791714803,0.0
1338,-1.0179188439899662,0.20188778827723003,96.45110685725273,0.0
1339,-0.8498363593885349,0.35868715163907927,96.50369948661694,0.0
1340,-0.6838924777382425,0.5136634415055744,96.5542584819741,0.0
1341,-0.5336705140777176,0.6559818488787202,96.60271651049702,0.0
1342,-0.4108690169683542,0.7757060729830372,96.64900625760862,0.0
1343,-0.32373980959182364,0.8648857197867915,96.69306045572108,0.0
1344,-0.2763219524461165,0.9183290094011315,96.73481191389239,0.0
1345,-0.26853079594220414,0.933975081919389,96.7741935483871,1.0
1346,-0.2969320169919606,0.9128605867634654,96.8123863275062,0.0
1347,-0.35588138851911333,0.8587447899750681,96.8506019114339,0.0
1348,-0.4386744908714756,0.7775009950911043,96.88881930376236,0.0
1349,-0.5384224268857771,0.6763936916418434,96.9270174417544,0.0
1350,-0.6485181584273341,0.5633445248025073,96.96517519631635,0.0
1351,-0.7627332949417549,0.44625743152194985,97.00327137206249,0.0
1352,-0.8751279748637646,0.3324384616200449,97.0412847074728,0.0
1353,-0.9800143600391936,0.22812088175352704,97.07919387514379,0.0
1354,-1.0721625352272566,0.1380968394041226,97.1169774821342,0.0
1355,-1.14729561627827,0.06546121728809327,97.1546140704053,0.0
1356,-1.2027497427173128,0.011483430196885636,97.1920821173573,0.0
1357,-1.2380525745002617,-0.02437121184763441,97.22936003646213,0.0
1358,-1.2551594017857934,-0.044254950221512296,97.26642617799384,0.0
1359,-1.2581884548796034,-0.05158997253502143,97.3032588298565,0.0
1360,-1.2526721026508592,-0.05059272055188685,97.33983621851134,0.0
1361,-1.2445126806478686,-0.04573156661399083,97.37613651000267,0.0
1362,-1.2389302610382602,-0.041197138406203204,97.41213781108468,0.0
1363,-1.2396802449983153,-0.04046454132114437,97.44781817044793,0.0
1364,-1.2487133485062014,-0.046007545789494425,97.48315558004818,0.0
1365,-1.266297240071211,-0.05919150525648924,97.51812797653626,0.0
1366,-1.2914777589221493,-0.08033380716618474,97.5527132427913,0.0
1367,-1.322676246408262,-0.10888855612435833,97.58688920955615,0.0
1368,-1.358218165225466,-0.14369404874395636,97.62063365717728,0.0
1369,-1.3966552257140787,-0.18322075617021988,97.65392431744792,0.0
1370,-1.4368434053984964,-0.2257720173513439,97.68673887555643,0.0
1371,-1.477830431919065,-0.2696134494822087,97.71905497213928,0.0
1372,-1.5186576382654555,-0.31303249215999646,97.7508502054392,0.0
1373,-1.5581834921510385,-0.3543496135150297,97.78210213356965,0.0
1374,-1.5950011978444885,-0.39191322126276024,97.81278827688442,0.0
1375,-1.627473522676881,-0.4241102107522673,97.84288612045435,0.0
1376,-1.653866900979812,-0.44941515623784606,97.87237311664981,0.0
1377,-1.6725465483824133,-0.46648694076854536,97.90122668783015,0.0
1378,-1.6821936063291956,-0.4743060969826005,97.92942422913985,0.0
1379,-1.6820128348169137,-0.4723327039561559,97.95694311141149,0.0
1380,-1.6719033638243355,-0.4606556549784001,97.9837606841753,0.0
1381,-1.6525630972305547,-0.4401005648293416,98.00985427877575,0.0
1382,-1.625497672246201,-0.4122655802198509,98.03520121159463,0.0
1383,-1.5929172066962656,-0.3794612448620148,98.05977878738065,0.0
1384,-1.5575288369994764,-0.34454135402371566,98.0835643026851,0.0
1385,-1.5222586492364962,-0.31062537492014997,98.10653504940385,0.0
1386,-1.4899476152663595,-0.28072859016553103,98.12866831842429,0.0
1387,-1.4630550584242412,-0.25733274816106916,98.14994140337818,0.0
1388,-1.4433766580754848,-0.2419464349583279,98.17033160449836,0.0
1389,-1.43176064758113,-0.2347185141920813,98.18981623258009,0.0
1390,-1.427807199232361,-0.23417652325886223,98.20837261304536,0.0
1391,-1.4295737400852357,-0.2371606337772426,98.22597809011016,0.0
1392,-1.4333732856676444,-0.2390085877358396,98.24261003105342,0.0
1393,-1.4338100645954246,-0.23401573257528363,98.25824583058686,0.0
1394,-1.4242026395144083,-0.21614856051344816,98.27286291532518,0.0
1395,-1.3974707317073396,-0.1799366730232689,98.28643874835457,0.0
1396,-1.3474172657092354,-0.12141808409155794,98.2989508338996,0.0
1397,-1.2701717077507575,-0.03897972283698588,98.31037672208609,0.0
1398,-1.1654441713060253,0.06606921849279931,98.32069401379992,0.0
1399,-1.0372280062147778,0.18932265235924978,98.32988036563891,0.0
1400,-0.8936974155669389,0.3235698963820246,98.33791349495755,0.0
1401,-0.7462447888020621,0.4595387741852105,98.34477118500222,0.0
1402,-0.6078259459882855,0.586986273686341,98.35043129013559,0.0
1403,-0.4909599840871936,0.6959639203315369,98.3548717411482,0.0
1404,-0.4058125785232434,0.7780497098353537,98.35807055065557,0.0
1405,-0.35875978573546907,0.8273460230912731,98.36000581857844,0.0
1406,-0.351700048516069,0.8410914600165009,98.36065573770492,1.0
1407,-0.38219562044503724,0.8198120479427394,98.35941085383932,0.0
1408,-0.4443318349294789,0.7670252178963513,98.35573051192345,0.0
1409,-0.5300324064433919,0.6885880884647704,98.34969642964731,0.0
1410,-0.6304969565729146,0.5918333809381009,98.34139063064788,0.0
1411,-0.7374460170178785,0.48465280489987916,98.3308954060428,0.0
1412,-0.8439548410960049,0.3746694963743201,98.31829327724344,0.0
1413,-0.9447957869818172,0.268597054955309,98.30366696007187,0.0
1414,-1.0363484267106664,0.17182726586215938,98.2870993302031,0.0
1415,-1.1162415776700558,0.08823705946416247,98.26867338995201,0.0
1416,-1.182938672250964,0.020169714180709036,98.24847223642162,0.0
1417,-1.2354569055325137,-0.03146849456309067,98.22657903102738,0.0
1418,-1.2733268394482458,-0.06704853862644206,98.20307697040985,0.0
1419,-1.296777885461523,-0.08802880100502719,98.178049258746,0.0
1420,-1.3070198966778468,-0.0967462820475857,98.15157908146735,0.0
1421,-1.3064302656655848,-0.09618483071217707,98.1237495803915,0.0
1422,-1.2984801383156317,-0.08971326941604511,98.09464383027134,0.0
1423,-1.2873369963085655,-0.08079487081091373,98.06434481676507,0.0
1424,-1.2772200197438666,-0.07268471385635986,98.03293541582799,0.0
1425,-1.2716959641994046,-0.06814538033167526,98.00049837452599,0.0
1426,-1.273134939492305,-0.06921752200701704,97.96711629326886,0.0
1427,-1.2824833646584854,-0.07707686967897778,97.9328716094607,0.0
1428,-1.2993859112156652,-0.09199469356199849,97.89784658256299,0.0
1429,-1.322558293035217,-0.11339962649166116,97.86212328056507,0.0
1430,-1.3502362003609782,-0.140021469140131,97.82578356785594,0.0
1431,-1.380532347247492,-0.17008707868274023,97.78890909449,0.0
1432,-1.4116130833919882,-0.2015365325025118,97.75158128683881,0.0
1433,-1.4417143769718688,-0.23223295303658215,97.71388133962031,0.0
1434,-1.4690986786552276,-0.2601480967334829,97.67589020929611,0.0
1435,-1.4920697621669095,-0.28351433874716037,97.63768860882708,0.0
1436,-1.509108975663591,-0.3009398096694986,97.59935700377738,0.0
1437,-1.519107791813631,-0.3114869875858596,97.5609756097561,0.0
1438,-1.5215999649157552,-0.3147172336335395,97.52262439118606,0.0
1439,-1.5168817602655031,-0.31070585492299974,97.484383061389,0.0
1440,-1.5059570515737075,-0.3000344521867119,97.44633108397636,0.0
1441,-1.4903273033530946,-0.2837683291933766,97.40854767553482,0.0
1442,-1.4717187694216336,-0.2634247340074596,97.37111180959614,0.0
1443,-1.4518623491802474,-0.24093154138049264,97.33410222188098,0.0
1444,-1.4324043962464923,-0.21856652314492658,97.29759741680667,0.0
1445,-1.4149504051490531,-0.19885777759522347,97.2616756752492,0.0
1446,-1.401168534085111,-0.1844209064462232,97.22641506355077,0.0
1447,-1.3928434106554453,-0.17771264212601373,97.19189344376393,0.0
1448,-1.3917861011511465,-0.18069619362180644,97.15818848512455,0.0
1449,-1.399559403052555,-0.19443940417263822,97.12537767674702,0.0
1450,-1.4170408247752206,-0.21869783569449813,97.09353834153465,0.0
1451,-1.4438969068115932,-0.2515630513473753,97.06274765130046,0.0
1452,-1.4780765342114612,-0.28927243616896803,97.03308264309375,0.0
1453,-1.5154530340620644,-0.32627285861060434,97.00462023672912,0.0
1454,-1.5497570151295583,-0.35560192045297917,96.97743725351582,0.0
1455,-1.572933048424219,-0.36959858444159144,96.95161043618623,0.0
1456,-1.5760038113113712,-0.36088717594493125,96.92721647002428,0.0
1457,-1.5504223197969087,-0.32350858652014913,96.90433200519473,0.0
1458,-1.489745658758278,-0.25401698478281204,96.8830336802772,0.0
1459,-1.3913099268573657,-0.15233610409102377,96.86339814700914,0.0
1460,-1.257484976909727,-0.022187702811491794,96.84550209624409,0.0
1461,-1.0960986368918317,0.1290318980595634,96.82942228513342,0.0
1462,-0.9197740065674439,0.29095287528518116,96.81523556554093,0.0
1463,-0.7441959880615008,0.45142305214565404,96.80301891370232,0.0
1464,-0.5856328275666873,0.5980001584549147,96.79284946114284,0.0
1465,-0.458274880146886,0.7194920358121468,96.78480452686874,0.0
1466,-0.37202489356220175,0.8072818520403623,96.7789616508505,0.0
1467,-0.3312504280273495,0.8562233102176884,96.77539862881757,0.0
1468,-0.3347311400110356,0.8649844321351848,96.7741935483871,1.0
1469,-0.3766977970308768,0.8358337109081132,96.77845537216352,0.0
1470,-0.44857775846359044,0.7739701529921328,96.79107421842835,0.0
1471,-0.54091832844825,0.6865732422007649,96.81180320116923,0.0
1472,-0.6449860130607888,0.5817750000662567,96.84039916714589,0.0
1473,-0.7537100218881018,0.467733176603448,96.87662229000352,0.0
1474,-0.8618851809943301,0.3519246979830738,96.92023568048376,0.0
1475,-0.9657898648724575,0.24070295601983366,96.97100501182419,0.0
1476,-1.0625344035888307,0.13909406833571,97.02869815952442,0.0
1477,-1.1494895847075612,0.05076328082410139,97.09308485473906,0.0
1478,-1.2240515130735197,-0.021929259626972536,97.16393635063457,0.0
1479,-1.283821741434491,-0.07784747219811003,97.2410251011202,0.0
1480,-1.3270937576432569,-0.11700367144765358,97.32412445143243,0.0
1481,-1.3534122613353405,-0.14048377792208214,97.41300834011733,0.0
1482,-1.3639527729647138,-0.15034540413187128,97.50745101201782,0.0
1483,-1.361550889649407,-0.14945597367678337,97.60722674193232,0.0
1484,-1.350346847412809,-0.14125141724814472,97.71210956866734,0.0
1485,-1.335140895629826,-0.1294207925606507,97.82187303926165,0.0
1486,-1.3206323428821312,-0.11754840913006777,97.93628996321108,0.0
1487,-1.3107258914899798,-0.10876326281680522,98.05513217657283,0.0
1488,-1.3080471701061458,-0.10544989773915696,98.17817031587688,0.0
1489,-1.3137411382335729,-0.10906428453839734,98.30517360181697,0.0
1490,-1.3275552033549165,-0.12007667701399402,98.43590963273938,0.0
1491,-1.348148231465453,-0.13803745109869725,98.57014418798933,0.0
1492,-1.3735258584696393,-0.16173911852270328,98.70764104121633,0.0
1493,-1.4014871006783207,-0.1894339821996331,98.84816178377946,0.0
1494,-1.429979523628998,-0.21906507468395306,98.99146565843074,0.0
1495,-1.4572974602735893,-0.24847720428401793,99.13730940349168,0.0
1496,-1.4821110505609454,-0.2755910382693464,99.285447107772,0.0
1497,-1.5033690276103768,-0.29854028987249825,99.43563007651258,0.0
1498,-1.5201587609677634,-0.3157844184322716,99.58760670866593,0.0
1499,-1.5316186251820196,-0.32621282857800676,99.74112238585593,0.0
1500,-1.536973062647444,-0.3292504457551719,99.89591937338635,0.0
1501,-1.5357051007299067,-0.3249611254752688,100.05173673369208,0.0
1502,-1.527814386249968,-0.3141295024724122,100.20831025265022,0.0
1503,-1.5140593780718932,-0.298289438212442,100.36537237918772,0.0
1504,-1.496073608768758,-0.2796631757080592,100.52265217864104,0.0
1505,-1.4762828125004073,-0.2609823696144135,100.67987530033666,0.0
1506,-1.457614708533423,-0.24518008927623722,100.83676395987484,0.0
1507,-1.443055643418217,-0.23496872191627247,100.9930369366064,0.0
1508,-1.4351411858491563,-0.23234757554394767,101.14840958679856,0.0
1509,-1.4354625015198026,-0.23811020349134063,101.30259387298713,0.0
1510,-1.444240988783547,-0.2514394097453959,101.45529841001063,0.0
1511,-1.4599987211389482,-0.2696826108375271,101.60622852821542,0.0
1512,-1.4793566545842474,-0.28838806139336615,101.755086354311,0.0
1513,-1.497028773120285,-0.30165178047343644,101.90157091033939,0.0
1514,-1.5061207847199827,-0.3027773425644259,102.04537823120343,0.0
1515,-1.4988414326416684,-0.28519166807615143,102.18620150117377,0.0
1516,-1.467658659840408,-0.24349968469506061,102.32373120976536,0.0
1517,-1.4067860122191924,-0.1745127170600494,102.45765532733948,0.0
1518,-1.3137168729803392,-0.07806370093238293,102.58765950074661,0.0
1519,-1.1904110719335932,0.04256276564684494,102.71342726928027,0.0
1520,-1.0437444752931195,0.1807031708287033,102.8346403011607,0.0
1521,-0.8849775597597593,0.32692186546402563,102.95097865070973,0.0
1522,-0.7282479335043698,0.4700816893536529,103.06212103631555,0.0
1523,-0.5883657256148982,0.5987148863977183,103.16774513921858,0.0
1524,-0.47839863760151874,0.7024682632810574,103.26752792307349,0.0
1525,-0.4076049518016423,0.7733810366248604,103.3611459741651,0.0
1526,-0.3801821777509779,0.8067895791471487,103.44827586206897,1.0
1527,-0.39507284069642135,0.8017312789044866,103.53177474521367,0.0
1528,-0.4467777746090953,0.7608200862676672,103.61471236399673,0.0
1529,-0.5268642070636811,0.6896641347741135,103.69708437828695,0.0
1530,-0.6257054521312534,0.5959684193035462,103.77888645275979,0.0
1531,-0.7339957337879466,0.48849881161486564,103.86011425728172,0.0
1532,-0.8437339981326448,0.37607554701222345,103.94076346729666,0.0
1533,-0.9485987167613664,0.26672394131391663,104.02082976421491,0.0
1534,-1.0438516547875123,0.16705394475352725,104.10030883580446,0.0
1535,-1.1260348922407835,0.0818858786049373,104.17919637658443,0.0
1536,-1.1927259376452661,0.014100520484141163,104.25748808822097,0.0
1537,-1.2425064935896186,-0.03532712236348336,104.33517967992489,0.0
1538,-1.2751394367493185,-0.06715233140246313,104.41226686885207,0.0
1539,-1.291810132351402,-0.08357750401794713,104.48874538050525,0.0
1540,-1.295230814984955,-0.08788736184003472,104.56461094913834,0.0
1541,-1.2894493223895067,-0.08402700172647007,104.63985931816252,0.0
1542,-1.2793207569668255,-0.07615305669479808,104.7144862405542,0.0
1543,-1.2697388574400883,-0.06819754039543668,104.788487479265,0.0
1544,-1.2648256947787277,-0.06349020874871163,104.86185880763347,0.0
1545,-1.2673050095515184,-0.06448263466374723,104.93459600979841,0.0
1546,-1.278227783204192,-0.07260333447678484,105.00669488111424,0.0
1547,-1.2971014139259653,-0.08825061712645194,105.07815122856768,0.0
1548,-1.3223411501336648,-0.1109046474097781,105.14896087119607,0.0
1549,-1.3518645006509096,-0.13932025315086813,105.2191196405074,0.0
1550,-1.3836223192963037,-0.1717534021475397,105.28862338090165,0.0
1551,-1.4159116083513417,-0.2061792152044572,105.35746795009355,0.0
1552,-1.4474205339761053,-0.24047531236636088,105.42564921953654,0.0
1553,-1.4770699632465476,-0.27256495091795774,105.49316307484833,0.0
1554,-1.5037905218679692,-0.30053221929062407,105.5600054162374,0.0
1555,-1.5263814871402872,-0.32273033076156754,105.6261721589308,0.0
1556,-1.5435412183544401,-0.33790111744450746,105.69165923360269,0.0
1557,-1.5540702829183675,-0.34531061001678587,105.75646258680452,0.0
1558,-1.5571709231192807,-0.3448869128982147,105.8205781813955,0.0
1559,-1.5527319566866646,-0.33732884855010536,105.88400199697442,0.0
1560,-1.5415035179536747,-0.3241430566903588,105.94673003031187,0.0
1561,-1.5251135146628645,-0.3075674994976433,106.00875829578358,0.0
1562,-1.5059274489886447,-0.29035211956716406,106.0700828258042,0.0
1563,-1.4867803413755887,-0.27539154286989787,106.1306996712617,0.0
1564,-1.4706071493907789,-0.26523670870527405,106.19060490195227,0.0
1565,-1.459981223367875,-0.2615467165409109,106.24979460701582,0.0
1566,-1.456566563077538,-0.2645720949343795,106.3082648953716,0.0
1567,-1.4605210940163311,-0.2727784235705036,106.36601189615429,0.0
1568,-1.469954124038361,-0.2827175633910499,106.4230317591503,0.0
1569,-1.4806122411780016,-0.28922787063521915,106.47932065523419,0.0
1570,-1.4859978975356938,-0.2859945107775356,106.5348747768051,0.0
1571,-1.4780746322550389,-0.26643247314548607,106.58969033822314,0.0
1572,-1.4485739134197937,-0.22478071743061778,106.643763576246,0.0
1573,-1.3907238643993889,-0.15723314720998638,106.69709075046498,0.0
1574,-1.301035887622172,-0.06289831726526786,106.74966814374095,0.0
1575,-1.1806867198215532,0.05561226166569416,106.80149206264002,0.0
1576,-1.03607378227852,0.19211415563291728,106.85255883786881,0.0
1577,-0.8783057108200919,0.33735496039679747,106.90286482470911,0.0
1578,-0.7216667798360724,0.4800418421775745,106.95240640345216,0.0
1579,-0.5813736841449506,0.6082364665493819,107.00117997983187,0.0
1580,-0.47113207181623684,0.7108893291056372,107.04918198545798,0.0
1581,-0.4010378874959514,0.7792595926866198,107.09640887824777,0.0
1582,-0.376249713948565,0.8079925011850174,107.14285714285714,1.0
1583,-0.3966312367812533,0.7956964434266551,107.18914977204469,0.0
1584,-0.45730814519969976,0.7449578361995188,107.23588171926237,0.0
1585,-0.5498823886384125,0.6618315591896291,107.28300731718369,0.0
1586,-0.6639512724408749,0.5549266802448828,107.33048074442351,0.0
1587,-0.7885971834843448,0.43425736442667906,107.37825602217323,0.0
1588,-0.9136129242859746,0.3100421974638501,107.42628701122136,0.0
1589,-1.0303555507098996,0.19161566902964608,107.47452740936255,0.0
1590,-1.1322321848693335,0.08657348267762895,107.5229307491986,0.0
1591,-1.214889501119839,0.0002212861170246272,107.57145039633524,0.0
1592,-1.2762005293839611,-0.06465432242548075,107.6200395479785,0.0
1593,-1.3161270370305305,-0.10771538824155774,107.66865123193391,0.0
1594,-1.3364979598058515,-0.13075509388791584,107.71723830601326,0.0
1595,-1.340702791336247,-0.13720282766333758,107.76575345785213,0.0
1596,-1.33327418651322,-0.13152897311044853,107.81414920514231,0.0
1597,-1.3193426729579911,-0.1186264007263841,107.86237789628308,0.0
1598,-1.3039903488641376,-0.10323913249639023,107.91039171145516,0.0
1599,-1.2915916151895628,-0.0894960378340774,107.9581426641214,0.0
1600,-1.2852747350188156,-0.08058876480435588,108.0055826029576,0.0
1601,-1.286637689997908,-0.07860953561700354,108.05266321421786,0.0
1602,-1.2957942366357413,-0.08453900595434097,108.09933602453766,0.0
1603,-1.3117274856015377,-0.09835200125834326,108.1455524041786,0.0
1604,-1.3328264415007025,-0.11919505599680746,108.19126357071808,0.0
1605,-1.3574186244207853,-0.14558827998975568,108.23642059318742,0.0
1606,-1.3841184168077756,-0.1756157338179981,108.28097439666173,0.0
1607,-1.4118885148997962,-0.2070894558583105,108.32487576730453,0.0
1608,-1.439833621210133,-0.23769515304126188,108.36807535786991,0.0
1609,-1.46686362808704,-0.2651435891668557,108.41052369366514,0.0
1610,-1.4914280275572787,-0.2873538872683515,108.45217117897627,0.0
1611,-1.511503052005072,-0.3026809076906152,108.49296810395836,0.0
1612,-1.5249115850955857,-0.3101721478822373,108.53286465199359,0.0
1613,-1.5299126517580157,-0.3098090667985384,108.57181090751743,0.0
1614,-1.525871609223746,-0.30266476662007236,108.60975686431574,0.0
1615,-1.5137661285096689,-0.29090476464813475,108.64665243429292,0.0
1616,-1.4963179777090951,-0.2775756168402587,108.6824474567125,0.0
1617,-1.4776495855083747,-0.2661660480403941,108.71709170791043,0.0
1618,-1.462503737943916,-0.25997885885792554,108.75053491148098,0.0
1619,-1.455186191853369,-0.26140636739991646,108.78272674893569,0.0
1620,-1.4584612838017355,-0.27124332852601474,108.81361687083351,0.0
1621,-1.4726405376632459,-0.288187280983881,108.84315490838225,0.0
1622,-1.4950647766776703,-0.308660469314271,108.87129048550891,0.0
1623,-1.5201109634800631,-0.3270401057516057,108.89797323139746,0.0
1624,-1.539772594844953,-0.3363120097077731,108.92315279349103,0.0
1625,-1.5447750663055368,-0.32907958083729655,108.94677885095629,0.0
1626,-1.5260969033835594,-0.29878205361153726,108.96880112860576,0.0
1627,-1.476677638878891,-0.24091984523950244,108.98916941127479,0.0
1628,-1.3930164802942762,-0.154064310516778,109.00783355864785,0.0
1629,-1.2763278213064422,-0.040451867009319964,109.02474352052998,0.0
1630,-1.132950025606674,0.09397286332483556,109.03984935255687,0.0
1631,-0.9738216228420699,0.24010405315092787,109.05310123233792,0.0
1632,-0.8130346093987001,0.3867417938988,109.06444947602515,0.0
1633,-0.6657028005502849,0.5220100997842236,109.07384455530047,0.0
1634,-0.5455742968729838,0.6348892735497748,109.0812371147734,0.0
1635,-0.46290326379334,0.7166062749255332,109.08657798978042,0.0
1636,-0.42304075683872755,0.7616589307929919,109.08981822457652,0.0
1637,-0.4260185345806619,0.7683262292682236,109.09090909090908,1.0
1638,-0.46713985778470096,0.7386191475675967,109.09090909090908,0.0
1639,-0.538338411085611,0.6777304170063565,109.09090909090908,0.0
1640,-0.6298986556554956,0.5931241230875354,109.09090909090908,0.0
1641,-0.7320956441640961,0.4934508383637791,109.09090909090908,0.0
1642,-0.8364102275080223,0.3874756651484494,109.09090909090908,0.0
1643,-0.9361614904561794,0.2831709781231775,109.09090909090908,0.0
1644,-1.026600055826542,0.18706708113833964,109.09090909090908,0.0
1645,-1.1046531153891066,0.10389009665125971,109.09090909090908,0.0
1646,-1.1685618503847617,0.03646283517731244,109.09090909090908,0.0
1647,-1.2176024469522955,-0.01418925558768705,109.09090909090908,0.0
1648,-1.2519690916267197,-0.048596640527622664,109.09090909090908,0.0
1649,-1.272777419181711,-0.06853240204256517,109.09090909090908,0.0
1650,-1.2820722830259923,-0.07667505814078242,109.09090909090908,0.0
1651,-1.2827218046073918,-0.07627783831860192,109.09090909090908,0.0
1652,-1.278143183336301,-0.07086057986218625,109.09090909090908,0.0
1653,-1.2718979256971592,-0.06393157969339297,109.09090909090908,0.0
1654,-1.2672659931023116,-0.0587424762238917,109.09090909090908,0.0
1655,-1.2669220448876581,-0.05807766841159312,109.09090909090908,0.0
1656,-1.2727856159779045,-0.06407948745092078,109.09090909090908,0.0
1657,-1.2860299745679937,-0.07811103269040245,109.09090909090908,0.0
1658,-1.307161650049193,-0.10066071264475887,109.09090909090908,0.0
1659,-1.3360663273747726,-0.13129622891701567,109.09090909090908,0.0
1660,-1.3719660005832184,-0.16867991908443175,109.09090909090908,0.0
1661,-1.4133174278162433,-0.21065962105886132,109.09090909090908,0.0
1662,-1.4577524553274122,-0.2544466729889362,109.09090909090908,0.0
1663,-1.502174539325711,-0.2968834511093963,109.09090909090908,0.0
1664,-1.5430729034831476,-0.33478734554587575,109.09090909090908,0.0
1665,-1.5770233457361669,-0.36533925385950916,109.09090909090908,0.0
1666,-1.6012605307845595,-0.3864673482304326,109.09090909090908,0.0
1667,-1.614171681628478,-0.3971661552009014,109.09090909090908,0.0
1668,-1.6155880835883751,-0.39769064860414516,109.09090909090908,0.0
1669,-1.606818368089898,-0.38957647732474476,109.09090909090908,0.0
1670,-1.5904388704832795,-0.37545946300267913,109.09090909090908,0.0
1671,-1.5699006348133642,-0.358696980737744,109.09090909090908,0.0
1672,-1.549021140378329,-0.34282656005972345,109.09090909090908,0.0
1673,-1.5314145182506846,-0.33092840503658666,109.09090909090908,0.0
1674,-1.5198988271632499,-0.32498386869903934,109.09090909090908,0.0
1675,-1.5159195093801132,-0.32533663162638593,109.09090909090908,0.0
1676,-1.5190485918661043,-0.3303631519453361,109.09090909090908,0.0
1677,-1.5266514107718028,-0.33644061772872014,109.09090909090908,0.0
1678,-1.533839463366157,-0.3382630943946906,109.09090909090908,0.0
1679,-1.5338273520759482,-0.32950234325036876,109.09090909090908,0.0
1680,-1.5187638464944986,-0.3037459252395589,109.09090909090908,0.0
1681,-1.481005574195836,-0.25558306983533086,109.09090909090908,0.0
1682,-1.414664334812073,-0.18166238517475006,109.09090909090908,0.0
1683,-1.3171275958808666,-0.08152825254447417,109.09090909090908,0.0
1684,-1.1901798001347952,0.04193640329885284,109.09090909090908,0.0
1685,-1.0403821603369148,0.1825735045229403,109.09090909090908,0.0
1686,-0.8785113727611349,0.3315422066769024,109.09090909090908,0.0
1687,-0.7180830722161262,0.4783613534696681,109.09090909090908,0.0
1688,-0.5732303065053284,0.6122321495037558,109.09090909090908,0.0
1689,-0.456394838879796,0.7234131968249817,109.09090909090908,0.0
1690,-0.3763576002403329,0.8044099896997039,109.09090909090908,0.0
1691,-0.3370571220266674,0.8507822204938811,109.09090909090908,0.0
1692,-0.33743880384966074,0.8614550433142734,109.09090909090908,1.0
1693,-0.3723017210739616,0.8385242283782794,109.09090909090908,0.0
1694,-0.4338467947898393,0.7866442229665,109.09090909090908,0.0
1695,-0.5134633090619777,0.712158877612141,109.09090909090908,0.0
1696,-0.6032723461402575,0.6221620037786819,109.09090909090908,0.0
1697,-0.697076486782696,0.5236565345046603,109.09090909090908,0.0
1698,-0.7905933789657098,0.4229269197443897,109.09090909090908,0.0
1699,-0.8810929120171057,0.32516829285576565,109.09090909090908,0.0
1700,-0.9667300060492474,0.23434919329907025,109.09090909090908,0.0
1701,-1.0459134802164656,0.15323950696793656,109.09090909090908,0.0
1702,-1.116970676052281,0.08352035584751173,109.09090909090908,0.0
1703,-1.178201832375698,0.025906281761617703,109.09090909090908,0.0
1704,-1.2282423174934356,-0.019757757245691066,109.09090909090908,0.0
1705,-1.2665355878323625,-0.05442535989635933,109.09090909090908,0.0
1706,-1.293700503502566,-0.07977630887099163,109.09090909090908,0.0
1707,-1.3116419615327386,-0.09810434464492442,109.09090909090908,0.0
1708,-1.323359395858007,-0.1121339954075957,109.09090909090908,0.0
1709,-1.3325040670857735,-0.12475705945443472,109.09090909090908,0.0
1710,-1.3427927976250527,-0.13870715646275028,109.09090909090908,0.0
1711,-1.3574000668861395,-0.15621568555245985,109.09090909090908,0.0
1712,-1.3784381292555539,-0.17870721002113632,109.09090909090908,0.0
1713,-1.406613209549877,-0.20659274545793443,109.09090909090908,0.0
1714,-1.4411203256985021,-0.23920559720902917,109.09090909090908,0.0
1715,-1.4798044469896026,-0.2748997316292125,109.09090909090908,0.0
1716,-1.5195669519722579,-0.3113010292852405,109.09090909090908,0.0
1717,-1.5569409302930775,-0.3456738704669576,109.09090909090908,0.0
1718,-1.588715602350917,-0.3753452715168865,109.09090909090908,0.0
1719,-1.6124782492872176,-0.3981199838909216,109.09090909090908,0.0
1720,-1.6269685398297846,-0.41262340730861813,109.09090909090908,0.0
1721,-1.6321952699062576,-0.41852280500821465,109.09090909090908,0.0
1722,-1.6293284219694293,-0.41659711444904685,109.09090909090908,0.0
1723,-1.620428309369395,-0.4086470237455213,109.09090909090908,0.0
1724,-1.6080942663905038,-0.397256205258497,109.09090909090908,0.0
1725,-1.5951056384601885,-0.3854297621536208,109.09090909090908,0.0
1726,-1.5840970007540984,-0.37614712418717744,109.09090909090908,0.0
1727,-1.5772737305210776,-0.37187518783123,109.09090909090908,0.0
1728,-1.5761490746931408,-0.37409486263713165,109.09090909090908,0.0
1729,-1.58127923577106,-0.3829006006667848,109.09090909090908,0.0
1730,-1.5919905220243662,-0.3967362457836064,109.09090909090908,0.0
1731,-1.606127947183296,-0.4123281308874694,109.09090909090908,0.0
1732,-1.619898299076578,-0.42486356268203335,109.09090909090908,0.0
1733,-1.6279168179786303,-0.42843659573949383,109.09090909090908,0.0
1734,-1.623573831320156,-0.41674337852099275,109.09090909090908,0.0
1735,-1.5997960130476814,-0.38396096020069187,109.09090909090908,0.0
1736,-1.5501804560193586,-0.3256955164717662,109.09090909090908,0.0
1737,-1.4703474176696305,-0.2398507394488897,109.09090909090908,0.0
1738,-1.35923303870601,-0.1272567442882264,109.09090909090908,0.0
1739,-1.2199798717420782,0.00807770768730387,109.09090909090908,0.0
1740,-1.060120060460373,0.15917108415804126,109.09090909090908,0.0
1741,-0.8908890414677658,0.31673398102193345,109.09090909090908,0.0
1742,-0.72572288265703,0.47020544771614636,109.09090909090908,0.0
1743,-0.5782172826272843,0.6089974376471946,109.09090909090908,0.0
1744,-0.4599906243867488,0.7237405805272673,109.09090909090908,0.0
1745,-0.37894220818711155,0.8073252786043987,109.09090909090908,0.0
1746,-0.33830728896584616,0.8555780273987166,109.09090909090908,0.0
1747,-0.3367010503585621,0.8674924872317233,109.09090909090908,1.0
1748,-0.3690714215945564,0.8450275495205305,109.09090909090908,0.0
1749,-0.42822897990637315,0.7925664406302533,109.09090909090908,0.0
1750,-0.5064756099296623,0.7161815350946849,109.09090909090908,0.0
1751,-0.5968661930875011,0.6228585996582584,109.09090909090908,0.0
1752,-0.6938075651936031,0.5198040569365108,109.09090909090908,0.0
1753,-0.7929641614924712,0.4139035225260259,109.09090909090908,0.0
1754,-0.8906995550512438,0.3113398491996582,109.09090909090908,0.0
1755,-0.9834381863058347,0.2173341358226334,109.09090909090908,0.0
1756,-1.0673245732623573,0.13595628455527645,109.09090909090908,0.0
1757,-1.1383967414482092,0.06996422618372075,109.09090909090908,0.0
1758,-1.193247591937663,0.020663481442878273,109.09090909090908,0.0
1759,-1.229925128724208,-0.012184892871895725,109.09090909090908,0.0
1760,-1.2487091672883994,-0.03035632708637856,109.09090909090908,0.0
1761,-1.252436745856699,-0.03700318944136301,109.09090909090908,0.0
1762,-1.2462066736439936,-0.036317431013212234,109.09090909090908,0.0
1763,-1.2365056705760067,-0.033031679407613826,109.09090909090908,0.0
1764,-1.229983170598602,-0.031820427613492644,109.09090909090908,0.0
1765,-1.2321992138429567,-0.036695976348161685,109.09090909090908,0.0
1766,-1.2466591241836171,-0.05050336892992513,109.09090909090908,0.0
1767,-1.2743474172882399,-0.07460134623293385,109.09090909090908,0.0
1768,-1.3138240372981298,-0.10877736941071242,109.09090909090908,0.0
1769,-1.3617978716409398,-0.1513953812807708,109.09090909090908,0.0
1770,-1.4139857670903222,-0.19972905422939524,109.09090909090908,0.0
1771,-1.46602140784679,-0.2504027964932505,109.09090909090908,0.0
1772,-1.5141985841814267,-0.2998544393002705,109.09090909090908,0.0
1773,-1.5559037108778624,-0.3447470392662306,109.09090909090908,0.0
1774,-1.5896912489724437,-0.3822859207568591,109.09090909090908,0.0
1775,-1.61505841211295,-0.41043024896989255,109.09090909090908,0.0
1776,-1.6320575462284188,-0.4280148411406162,109.09090909090908,0.0
1777,-1.6409240580538822,-0.43480941086672176,109.09090909090908,0.0
1778,-1.6418806444653324,-0.4315364720494463,109.09090909090908,0.0
1779,-1.6352045633033816,-0.419849693317946,109.09090909090908,0.0
1780,-1.6215321791795823,-0.40225089277767784,109.09090909090908,0.0
1781,-1.6022604506824358,-0.3819077051658045,109.09090909090908,0.0
1782,-1.5798328532715342,-0.3623351822570992,109.09090909090908,0.0
1783,-1.5577018437952563,-0.3469277568662773,109.09090909090908,0.0
1784,-1.5398484091757372,-0.33837004356792,109.09090909090908,0.0
1785,-1.5298856404736767,-0.33800528997732004,109.09090909090908,0.0
1786,-1.529929023764679,-0.3452834541818306,109.09090909090908,0.0
1787,-1.539529513803615,-0.3574309288709687,109.09090909090908,0.0
1788,-1.5549997127901471,-0.3694694594140016,109.09090909090908,0.0
1789,-1.5694059167348424,-0.37465999683507445,109.09090909090908,0.0
1790,-1.573360500235564,-0.3653656922703899,109.09090909090908,0.0
1791,-1.5565598180652305,-0.33423394984041926,109.09090909090908,0.0
1792,-1.5098148415708557,-0.27551293706523655,109.09090909090908,0.0
1793,-1.4271634942112092,-0.18626560410277096,109.09090909090908,0.0
1794,-1.3075806794693376,-0.0672402539808073,109.09090909090908,0.0
1795,-1.1558455260699327,0.07679387590054937,109.09090909090908,0.0
1796,-0.9822903207656282,0.23734285679554712,109.09090909090908,0.0
