,PPG_Raw,PPG_Clean,PPG_Rate,PPG_Peaks
0,-0.13193533371369665,0.019168575003546334,102.06896551724138,0.0
1,-0.13651606738589953,0.015120473673778632,102.06896551724138,0.0
2,-0.14092196915963912,0.010847852417864842,102.06896551724138,0.0
3,-0.1450904927858186,0.0061422424359572885,102.06896551724138,0.0
4,-0.1491262434102131,0.0008828341162198591,102.06896551724138,0.0
5,-0.15326287765653376,-0.004909982404404722,102.06896551724138,0.0
6,-0.15774597269689794,-0.011026141191095514,102.06896551724138,0.0
7,-0.16266518210770886,-0.017036807442310183,102.06896551724138,0.0
8,-0.16779022481317368,-0.022301453625913095,102.06896551724138,0.0
9,-0.17247737666539195,-0.026024472867317832,102.06896551724138,0.0
10,-0.17570276916534563,-0.02736509357777777,102.06896551724138,0.0
11,-0.17624445750032192,-0.025590457141334882,102.06896551724138,0.0
12,-0.17298549902241736,-0.020247204121793656,102.06896551724138,0.0
13,-0.165262507498804,-0.011316234227574249,102.06896551724138,0.0
14,-0.15315766007184242,0.0006876976388450933,102.06896551724138,0.0
15,-0.1376392902921733,0.014703260410319788,102.06896551724138,0.0
16,-0.12049613793438259,0.02921283909457073,102.06896551724138,0.0
17,-0.10406895464809235,0.04243071985572363,102.06896551724138,0.0
18,-0.09083941956649073,0.05256209120317002,102.06896551724138,0.0
19,-0.08297157970640219,0.0580884796986226,102.06896551724138,0.0
20,-0.08190679890889213,0.05802686025969401,102.06896551724138,0.0
21,-0.0880929686523345,0.05211235389935934,102.06896551724138,0.0
22,-0.10089378849601056,0.04086767935182331,102.06896551724138,0.0
23,-0.11868659129949656,0.025543526699693,102.06896551724138,0.0
24,-0.13912555472844013,0.007938333611366321,102.06896551724138,0.0
25,-0.1595233932246068,-0.00987144127983166,102.06896551724138,0.0
26,-0.17728737604483646,-0.02584306516004807,102.06896551724138,0.0
27,-0.1903344778712751,-0.03826681371989351,102.06896551724138,0.0
28,-0.19740950057455212,-0.04600189683433988,102.06896551724138,0.0
29,-0.19824489359345154,-0.048611358616669126,102.06896551724138,0.0
30,-0.19353318107572834,-0.04637822438482282,102.06896551724138,0.0
31,-0.18472526746452197,-0.04020757613122923,102.06896551724138,0.0
32,-0.17370724150547656,-0.03143946907075091,102.06896551724138,0.0
33,-0.1624323253966159,-0.021611658408918974,102.06896551724138,0.0
34,-0.15258749312290792,-0.012216534999583398,102.06896551724138,0.0
35,-0.14535761210932796,-0.0044930633582779475,102.06896551724138,0.0
36,-0.14132041021065442,0.0007165112471692299,102.06896551724138,0.0
37,-0.14047192317405494,0.0030307622968167133,102.06896551724138,0.0
38,-0.14235292872710886,0.002515491487199823,102.06896551724138,0.0
39,-0.14622875492233003,-0.00039293256016164485,102.06896551724138,0.0
40,-0.1512711306376092,-0.005004660787222757,102.06896551724138,0.0
41,-0.15670134348731066,-0.010509034713161908,102.06896551724138,0.0
42,-0.16187478017663182,-0.016100878788835767,102.06896551724138,0.0
43,-0.16631000289402814,-0.021084581406760637,102.06896551724138,0.0
44,-0.16968226255356322,-0.024947311972052945,102.06896551724138,0.0
45,-0.17180662367893265,-0.027399051641398064,102.06896551724138,0.0
46,-0.17262952520354033,-0.028381484087395464,102.06896551724138,0.0
47,-0.1722336863243805,-0.028050026669585774,102.06896551724138,0.0
48,-0.17084650920005778,-0.026733958736103337,102.06896551724138,0.0
49,-0.16883364928164088,-0.02487963755772053,102.06896551724138,0.0
50,-0.16666170676150405,-0.022981983347943154,102.06896551724138,0.0
51,-0.16482634149068928,-0.021510130634989487,102.06896551724138,0.0
52,-0.163758431591161,-0.020834242364253328,102.06896551724138,0.0
53,-0.16373256612221807,-0.02116146735082485,102.06896551724138,0.0
54,-0.16480275491012192,-0.022489310663009708,102.06896551724138,0.0
55,-0.16677944064856,-0.024583867470746926,102.06896551724138,0.0
56,-0.16924614288469908,-0.026988317125648368,102.06896551724138,0.0
57,-0.17160287995047696,-0.02906391634825061,102.06896551724138,0.0
58,-0.17312329442310675,-0.030061753848255043,102.06896551724138,0.0
59,-0.17302167722116762,-0.02921910203029835,102.06896551724138,0.0
60,-0.17053614411695273,-0.0258697933390099,102.06896551724138,0.0
61,-0.1650353061854858,-0.019554300775863263,102.06896551724138,0.0
62,-0.15614442308197837,-0.010112951437066907,102.06896551724138,0.0
63,-0.14386895801194696,0.002254146961441175,102.06896551724138,0.0
64,-0.12867981912976273,0.01697365885964994,102.06896551724138,0.0
65,-0.11152457585073225,0.033138860803401726,102.06896551724138,0.0
66,-0.093744393502846,0.049600808920888646,102.06896551724138,0.0
67,-0.07690161196627589,0.06509934477673925,102.06896551724138,0.0
68,-0.06254853296033501,0.07841429986039977,102.06896551724138,0.0
69,-0.05198573788939896,0.08851257632264378,102.06896551724138,0.0
70,-0.046063170733223135,0.094666971066999,102.06896551724138,0.0
71,-0.04506815649352082,0.09652791148766181,102.06896551724138,1.0
72,-0.048723830785095124,0.0941386013366679,102.32830533222673,0.0
73,-0.05629433376731734,0.08789526153783087,102.58669354631134,0.0
74,-0.06676656167593828,0.07846449790949964,102.84400572456981,0.0
75,-0.07905947755747778,0.06667686159524264,103.10011531972984,0.0
76,-0.09220664395160438,0.05341783546390583,103.35489368679245,0.0
77,-0.10546826688372549,0.03953458852344863,103.60821010113813,0.0
78,-0.1183535125942602,0.02577009271721903,103.85993178024226,0.0
79,-0.13056475779725096,0.012727793522338415,104.10992390912196,0.0
80,-0.14190151004157683,0.000862460736341282,104.35804966963518,0.0
81,-0.15217225863148232,-0.009511883081061608,104.60417027375043,0.0
82,-0.16115290831094434,-0.018207045639316726,104.84814500090302,0.0
83,-0.16860545387422332,-0.02514647769944498,105.08983123955092,0.0
84,-0.17434216957699236,-0.03035522313844844,105.32908453303887,0.0
85,-0.1783016450734667,-0.03395301459708459,105.56575862987626,0.0
86,-0.18060057720417863,-0.03614662646502147,105.79970553852834,0.0
87,-0.18153794803733836,-0.037217011597019116,106.03077558681588,0.0
88,-0.18154847673307867,-0.0374983263175071,106.25881748601184,0.0
89,-0.18112100938090275,-0.03734878456879119,106.48367839971739,0.0
90,-0.18070835094240642,-0.03711616076066687,106.70520401759184,0.0
91,-0.18065540190178536,-0.03710265034933578,106.9232386340034,0.0
92,-0.1811632587329944,-0.037534198812559254,107.13762523165946,0.0
93,-0.1822919464386584,-0.03853844935672219,107.34820557026478,0.0
94,-0.18398972945721365,-0.04013372187133244,107.5548202802474,0.0
95,-0.18612910674751842,-0.04222964116552662,107.7573089615803,0.0
96,-0.18853251000131283,-0.04463871371064786,107.9555102877161,0.0
97,-0.1909824974533227,-0.04709746552597269,108.14926211464018,0.0
98,-0.19322442103294526,-0.04929549603110367,108.33840159503482,0.0
99,-0.19497564713130947,-0.0509105933192701,108.52276529753384,0.0
100,-0.19595089039792069,-0.05164757629599695,108.70218933103261,0.0
101,-0.19590205336362224,-0.05127768980390264,108.87650947400581,0.0
102,-0.19466134365676974,-0.04967435430952679,109.04556130876729,0.0
103,-0.1921743835120654,-0.04684021090441494,109.20918036059385,0.0
104,-0.18851537616805458,-0.042920095053906177,109.3672022416161,0.0
105,-0.18388409555182295,-0.03819514247905885,109.51946279936472,0.0
106,-0.17858914556470856,-0.033054881573701234,109.66579826984263,0.0
107,-0.17302154776776912,-0.027946955862761733,109.80604543497597,0.0
108,-0.16761889235474633,-0.0233079154380958,109.94004178428045,0.0
109,-0.1628163620244894,-0.019482925118384554,110.06762568055923,0.0
110,-0.15898005392743955,-0.01664653627734261,110.18863652943338,0.0
111,-0.15632233066523102,-0.014739811496278312,110.30291495248505,0.0
112,-0.1548089601103896,-0.013439855421747828,110.41030296377669,0.0
113,-0.15408124187828093,-0.01217511790737024,110.51064414949082,0.0
114,-0.1534272767301632,-0.010193208515142958,110.60378385041699,0.0
115,-0.1518371937657338,-0.006677908666258036,110.68956934699413,0.0
116,-0.14816184128937693,-0.000900311806588729,110.7678500465992,0.0
117,-0.14136380421143332,0.007621678027520534,110.83847767275593,0.0
118,-0.1308120523467252,0.01898772058405681,110.90130645591965,0.0
119,-0.11654114286696517,0.032835082333138615,110.95619332547948,0.0
120,-0.09938749951253534,0.048337675182871964,111.00299810260206,0.0
121,-0.08093789525127486,0.06429198948317894,111.04158369352743,0.0
122,-0.06327635630063874,0.07927875088518697,111.07181628291261,0.0
123,-0.0485797294473864,0.09187125176909705,111.09356552680693,0.0
124,-0.038665715124955494,0.10084959504213017,111.1067047448297,0.0
125,-0.034619008855638254,0.10537808720880557,111.1111111111111,1.0
126,-0.03660147237358402,0.10511160768880706,111.10889391270078,0.0
127,-0.04389645553369597,0.10021374913674161,111.10230865530362,0.0
128,-0.05516403940180377,0.09129015697604631,111.09145558322554,0.0
129,-0.06881822166458697,0.07925903756355437,111.07643586226123,0.0
130,-0.08340239885558953,0.06519227862539508,111.05735150338542,0.0
131,-0.09784920218497893,0.05016240857329181,111.03430528782519,0.0
132,-0.11156151243872843,0.035123187214983156,111.00740069359604,0.0
133,-0.12432287277669647,0.020838209282767927,110.97674182357746,0.0
134,-0.13610772194382867,0.007857250203155558,110.9424333352008,0.0
135,-0.14688936005070533,-0.0034712864172223926,110.90458037181486,0.0
136,-0.15652745733858925,-0.012968732772019185,110.86328849579087,0.0
137,-0.16476880402971736,-0.020591052293534768,110.81866362342264,0.0
138,-0.1713399761222171,-0.026400179172866876,110.77081196167302,0.0
139,-0.17607380195015307,-0.030544362717631543,110.71983994681277,0.0
140,-0.1790060173181669,-0.03324416873367104,110.66585418499298,0.0
141,-0.18040099838536014,-0.03477817112689475,110.60896139478757,0.0
142,-0.1807009462603453,-0.035463289497926855,110.54926835173792,0.0
143,-0.18042388090159248,-0.035628072769052936,110.486881834927,0.0
144,-0.18005056090458535,-0.035581191291343246,110.4219085756059,0.0
145,-0.1799367630361245,-0.03558029519823606,110.35445520789251,0.0
146,-0.18027116695962353,-0.03580724901727654,110.28462822155616,0.0
147,-0.1810797711802367,-0.03635450077493459,110.21253391690036,0.0
148,-0.18226325043581845,-0.03722467423740456,110.13827836175047,0.0
149,-0.18364789088318834,-0.03834242617789946,110.06196735055043,0.0
150,-0.18503346056926784,-0.03957515930803835,109.98370636556898,0.0
151,-0.18622910828288036,-0.04075793342143477,109.90360054021286,0.0
152,-0.187076139000719,-0.04171801043315087,109.82175462444125,0.0
153,-0.18746038327322057,-0.04229563750166455,109.73827295227329,0.0
154,-0.1873163670219204,-0.04235940717585201,109.65325941137709,0.0
155,-0.1866234947981512,-0.04181625828611556,109.56681741472731,0.0
156,-0.18539450422879486,-0.0406173965414028,109.47904987431514,0.0
157,-0.1836594837465281,-0.03876179814025499,109.39005917689268,0.0
158,-0.1814523824922968,-0.03629843687012061,109.29994716173218,0.0
159,-0.17880760907358534,-0.03332714537664098,109.20881510037829,0.0
160,-0.1757702715389786,-0.029996538746345103,109.1167636783701,0.0
161,-0.17241634155579955,-0.026496303635642926,109.02389297890842,0.0
162,-0.1688722043499254,-0.023040983715118164,108.93030246844236,0.0
163,-0.16532022501499333,-0.01984354528531809,108.8360909841482,0.0
164,-0.16197982091757224,-0.017079465522081224,108.74135672327257,0.0
165,-0.15906155895944576,-0.014845370923537899,108.6461972343113,0.0
166,-0.15670248888814248,-0.013119507180848911,108.5507094099944,0.0
167,-0.1549001593670634,-0.011733521893720494,108.45498948204722,0.0
168,-0.1534661533159326,-0.01036529105541983,108.3591330176981,0.0
169,-0.15201558558846975,-0.008560319729887895,108.26323491790092,0.0
170,-0.14999938519049,-0.005784670671392774,108.1673894172434,0.0
171,-0.14677688051796706,-0.0015061020071366511,108.0716900855093,0.0
172,-0.14172106621749977,0.004706691449521395,107.97622983086518,0.0
173,-0.13434659734028032,0.013082663037295068,107.88110090464077,0.0
174,-0.12444608191811111,0.023564122435603775,107.78639490767424,0.0
175,-0.11221082614139777,0.03575858169829044,107.69220279819201,0.0
176,-0.09830177186175104,0.04894126489207147,107.59861490119555,0.0
177,-0.08383441624308992,0.06211447715644587,107.50572091932685,0.0
178,-0.07025611261636358,0.07411925952967607,107.41360994518541,0.0
179,-0.05912468736587675,0.0837838150426262,107.32237047507095,0.0
180,-0.05183264235951719,0.09008471392710223,107.23209042412634,0.0
181,-0.04934533437315576,0.09229313999834717,107.14285714285714,1.0
182,-0.05202251780945199,0.09008059849144023,107.05311376989967,0.0
183,-0.05956892001672577,0.08356619738663697,106.96128599032703,0.0
184,-0.07112011992749268,0.07329896745039657,106.86743447325887,0.0
185,-0.0854300390880196,0.06018087411720717,106.77161975313702,0.0
186,-0.10110067493558486,0.04534628329934923,106.67390220889467,0.0
187,-0.11679203953330201,0.030019544576623713,106.57434204384185,0.0
188,-0.13136961231360156,0.01537326580612495,106.47299926626806,0.0
189,-0.1439775711316427,0.002406400969952583,106.36993367076255,0.0
190,-0.1540537964916554,-0.008144911464547391,106.26520482025133,0.0
191,-0.161315434902924,-0.015857783731480356,106.15887202874958,0.0
192,-0.16573890003252506,-0.0206344254500208,106.05099434482734,0.0
193,-0.16754233352449335,-0.022679906648678614,105.94163053578487,0.0
194,-0.16716315226668038,-0.02245282387448904,105.83083907253481,0.0
195,-0.16521749620600915,-0.02059683179100162,105.71867811518568,0.0
196,-0.1624342302190299,-0.017861021218967852,105.60520549932235,0.0
197,-0.15956861876094378,-0.01501663777102872,105.49047872297744,0.0
198,-0.15731176213135506,-0.012776900801573274,105.37455493428712,0.0
199,-0.15621513710238344,-0.011725816232669509,105.25749091982478,0.0
200,-0.15664376536053864,-0.012260955570188248,105.1393430936051,0.0
201,-0.15876006267637374,-0.014554285558070514,105.0201674867503,0.0
202,-0.16252931305182536,-0.018534335961616848,104.90001973781067,0.0
203,-0.1677327298612608,-0.023892214803204907,104.77895508373055,0.0
204,-0.17397811706814717,-0.030112955022535956,104.65702835145005,0.0
205,-0.18070947944769408,-0.03653199946184717,104.53429395013424,0.0
206,-0.1872291837877501,-0.04241395614058031,104.41080586401864,0.0
207,-0.1927513068676678,-0.047047066804584904,104.28661764586207,0.0
208,-0.19649756889639558,-0.04984265403703769,104.16178241099564,0.0
209,-0.1978295010079818,-0.050425225605651776,104.03635283195806,0.0
210,-0.19639031325534942,-0.048697301296756916,103.91038113370601,0.0
211,-0.1922170974190224,-0.04486460657748965,103.78391908938868,0.0
212,-0.1857846893265755,-0.039412588308316135,103.65701801667582,0.0
213,-0.17795691605761715,-0.033033744660544144,103.52972877462759,0.0
214,-0.169844450368333,-0.02651542332124711,103.40210176109501,0.0
215,-0.16259423466431996,-0.020607151224956995,103.2741869106402,0.0
216,-0.15715624485584564,-0.015892674350989358,103.14603369296408,0.0
217,-0.1540830557554622,-0.012692735286515664,103.0176911118311,0.0
218,-0.15341267039252615,-0.011019426089921482,102.88920770447866,0.0
219,-0.15466603182306732,-0.01059248164012719,102.76063154150047,0.0
220,-0.15696258421841935,-0.010914329476481688,102.63201022719221,0.0
221,-0.15922782947941858,-0.011387247777913768,102.5033909003482,0.0
222,-0.1604437188190466,-0.01144594138108438,102.37482023549785,0.0
223,-0.15988170227702786,-0.010674876512849079,102.2463444445708,0.0
224,-0.15726206538654813,-0.008883062007706138,102.11800927897947,0.0
225,-0.1528008338764575,-0.006119085558752065,101.98986003210875,0.0
226,-0.1471324511541534,-0.0026238420395127016,101.86194154220112,0.0
227,-0.14112592447185396,0.001265961767786936,101.73429819562755,0.0
228,-0.13563768152919795,0.005237663209528879,101.60697393053296,0.0
229,-0.13126123697298886,0.009113417749426724,101.48001224084638,0.0
230,-0.12813878014312227,0.01292097457453252,101.35345618064589,0.0
231,-0.12589045096487847,0.01690309832379081,101.22734836886781,0.0
232,-0.12369198514543475,0.021459730078622105,101.10173099435146,0.0
233,-0.1204929777928806,0.027034532397454337,100.97664582120883,0.0
234,-0.11532507115604278,0.03397260404952867,100.85213419451141,0.0
235,-0.10761631767247273,0.04238482205356562,100.7282370462838,0.0
236,-0.09741903666391538,0.052054015229653625,100.60499490179649,0.0
237,-0.08548007512484963,0.062408895945824855,100.48244788614869,0.0
238,-0.07312866152717663,0.07257573011216745,100.36063573113337,0.0
239,-0.062011889698235366,0.08149928216974323,100.23959778237646,0.0
240,-0.05375197049401581,0.08810842736869527,100.11937300674259,0.0
241,-0.04961825572193443,0.09149201945838202,100.0,1.0
242,-0.05029613976884006,0.09104930818900189,99.88040234145068,0.0
243,-0.05580033760430864,0.08658620843233086,99.75952639582725,0.0
244,-0.06553515532346182,0.07834167434235416,99.63744426578516,0.0
245,-0.07846471292578162,0.06694367157386953,99.51422751146032,0.0
246,-0.09333374214895641,0.05330795781964612,99.38994713602565,0.0
247,-0.10887927241857506,0.03850216498179751,99.26467357235403,0.0
248,-0.12399140447682235,0.023601154361483006,99.13847667077081,0.0
249,-0.13780736442326877,0.009557550046800013,99.01142568787691,0.0
250,-0.1497457168397761,-0.0028947608030677023,98.88358927642366,0.0
251,-0.1594995032688069,-0.013294479880806183,98.75503547621963,0.0
252,-0.16700730119272084,-0.021462563671635137,98.62583170604977,0.0
253,-0.17241429663315855,-0.027472941200478683,98.49604475658548,0.0
254,-0.17602745634427008,-0.031594231299305234,98.3657407842659,0.0
255,-0.17826383150255365,-0.034214938546121246,98.23498530612831,0.0
256,-0.17959013774919652,-0.03576518249673751,98.10384319556717,0.0
257,-0.18045460068191935,-0.036646946792883814,97.97237867899928,0.0
258,-0.1812176255898205,-0.0371823910603169,97.84065533341472,0.0
259,-0.18209428295762045,-0.03758618243389379,97.70873608479062,0.0
260,-0.18312552415556815,-0.03796339038354892,97.57668320734726,0.0
261,-0.1841924472528583,-0.03832977971654766,97.44455832362371,0.0
262,-0.18507690956918224,-0.038647126575795034,97.31242240535283,0.0
263,-0.18555506046529444,-0.038863415350783866,97.18033577511281,0.0
264,-0.18549509663987568,-0.038947274037292694,97.0483581087353,0.0
265,-0.18492477012852687,-0.03890813470839908,96.9165484384482,0.0
266,-0.1840421991282385,-0.038798008910776574,96.784965156733,0.0
267,-0.183163215174367,-0.038696337638985195,96.65366602087575,0.0
268,-0.18262214374415553,-0.038684508470342834,96.52270815819197,0.0
269,-0.18266091422850975,-0.038819716290261784,96.39214807190528,0.0
270,-0.1833464022284006,-0.03911781270899128,96.2620416476608,0.0
271,-0.184545968690236,-0.03955153525300039,96.13244416065392,0.0
272,-0.18597032537596941,-0.04006498512485174,96.0034102833566,0.0
273,-0.18726918117194927,-0.04059918680585661,95.87499409382194,0.0
274,-0.18814715363236897,-0.041119022753207606,95.74724908455087,0.0
275,-0.18846100400727228,-0.04163040438199286,95.62022817190277,0.0
276,-0.188265871182465,-0.042178896778182415,95.49398370603421,0.0
277,-0.18779495358048076,-0.04282665973447625,95.36856748134919,0.0
278,-0.18737793191399466,-0.04361193768043404,95.24403074744609,0.0
279,-0.18732136657859197,-0.04450223310851864,95.12042422054596,0.0
280,-0.18778434719953066,-0.045356531861277624,94.99779809538832,0.0
281,-0.18868360397880118,-0.04591193472019842,94.87620205758039,0.0
282,-0.18965600138346492,-0.04580530058816963,94.75568529638717,0.0
283,-0.19009532128711923,-0.04463182838162693,94.63629651794975,0.0
284,-0.18926570407776974,-0.04203188488023219,94.51808395892002,0.0
285,-0.18647636406195864,-0.037787580886155116,94.40109540050098,0.0
286,-0.18128276927946618,-0.031904489889353155,94.28537818288198,0.0
287,-0.17366291233964598,-0.024653739094167137,94.17097922005941,0.0
288,-0.16411088580395336,-0.01655638629991616,94.05794501503325,0.0
289,-0.15360098416619986,-0.008304633672013874,93.94632167537176,0.0
290,-0.1434066423762286,-0.0006303140867518313,93.83615492913638,0.0
291,-0.13480356531870347,0.0058537758105701755,93.72749014115954,0.0
292,-0.12873027983386656,0.010804002718452374,93.62037232966958,0.0
293,-0.12550371067185903,0.014250005089512598,93.51484618325708,0.0
294,-0.12467995552253873,0.016623113960413174,93.41095607817759,0.0
295,-0.125111677979387,0.018695477173631993,93.30874609598713,0.0
296,-0.12519648549083442,0.021436848274084576,93.20826004150646,0.0
297,-0.12325477253178256,0.02581591709564464,93.10954146111206,0.0
298,-0.1179388528476663,0.03258716636100865,93.01263366135186,0.0
299,-0.10856846106234559,0.04210885077325814,92.91757972788437,0.0
300,-0.09531129228970914,0.054231613083385526,92.82442254474118,0.0
301,-0.07917183143823404,0.0682820479807893,92.73320481391306,0.0
302,-0.061802082498242185,0.08314503572662281,92.64396907526108,0.0
303,-0.045188823363102835,0.09742788838953224,92.55675772675473,0.0
304,-0.03129397472161895,0.10967309291053015,92.47161304503962,0.0
305,-0.02172543198699656,0.11857813472168725,92.38857720633887,0.0
306,-0.01749937567260167,0.1231818777319491,92.3076923076923,1.0
307,-0.01892892135475605,0.12298635567042948,92.22755921523851,0.0
308,-0.025645421755917545,0.11799786673458644,92.14679258141155,0.0
309,-0.03673344850406455,0.10868820215694716,92.06545484088481,0.0
310,-0.05094175058846133,0.09589184277055095,91.98360802894534,0.0
311,-0.06692177670442517,0.08066497775899142,91.90131377521789,0.0
312,-0.08344340087229721,0.06413559584865927,91.818633298252,0.0
313,-0.09954502476824655,0.04737070046172311,91.73562740095899,0.0
314,-0.11459246316188249,0.03127847762325203,91.65235646688447,0.0
315,-0.12824607388196615,0.016552627395880128,91.56888045730236,0.0
316,-0.14036290125601295,0.0036560095349421687,91.4852589091166,0.0
317,-0.1508809717799306,-0.007166279708060611,91.40155093355568,0.0
318,-0.15973660546087795,-0.01585697319002996,91.31781521564598,0.0
319,-0.16684812899050977,-0.022510909165659253,91.23411001444951,0.0
320,-0.17216613433295774,-0.02734033346652768,91.15049316405162,0.0
321,-0.1757563382570494,-0.030643184189354945,91.06702207528477,0.0
322,-0.17786338400831003,-0.03277285185195289,90.98375373817375,0.0
323,-0.1789123154157998,-0.03410695605107605,90.90074472508896,0.0
324,-0.1794352154220466,-0.03501412734205489,90.81805119459369,0.0
325,-0.17994806390337925,-0.03582047740815461,90.73572889597183,0.0
326,-0.1808279977358153,-0.036779807428141624,90.6538331744231,0.0
327,-0.18224111996529524,-0.038052400919170344,90.57241897691256,0.0
328,-0.1841462847976371,-0.03969609442109922,90.49154085866195,0.0
329,-0.18636417447017514,-0.0416707823687438,90.41125299027064,0.0
330,-0.18867231259382566,-0.043854724273243544,90.33160916545408,0.0
331,-0.19087967841639095,-0.046069072342588564,90.25266280938872,0.0
332,-0.19285158980022796,-0.04810645010086333,90.17446698765215,0.0
333,-0.19448613344806143,-0.049759971540350945,90.09707441574794,0.0
334,-0.1956706833997621,-0.050850073678116836,90.02053746920528,0.0
335,-0.19625664870782378,-0.05124720028944389,89.944908194244,0.0
336,-0.19607810720336016,-0.05088841295878878,89.87023831899552,0.0
337,-0.19501264414817135,-0.04978571558541784,89.79657926527221,0.0
338,-0.19305531943003582,-0.04802396161948362,89.72398216087646,0.0
339,-0.1903640800509789,-0.04574731373011455,89.65249785244293,0.0
340,-0.18724462509213138,-0.043135470786160514,89.5821769188071,0.0
341,-0.18407086689780316,-0.040373683201170754,89.51306968489419,0.0
342,-0.18116984629773475,-0.03762284683752049,89.4452262361237,0.0
343,-0.1787200622551253,-0.03499659323091513,89.37869643332414,0.0
344,-0.17670834466275406,-0.03255073560844206,89.313529928155,0.0
345,-0.17496382152725623,-0.030287033189905534,89.24977617903262,0.0
346,-0.17325174043026625,-0.028169151512318354,89.18748446755706,0.0
347,-0.17138338952325172,-0.026145399827176206,89.12670391543922,0.0
348,-0.16929416182774476,-0.024171476000771436,89.06748350192719,0.0
349,-0.16706046099221913,-0.022227388474777707,89.00987208173113,0.0
350,-0.16485633653911938,-0.020325365985340772,88.953918403449,0.0
351,-0.16287662669317454,-0.018508693772160703,88.89967112849317,0.0
352,-0.16126347752807144,-0.016843751749831624,88.84717885052207,0.0
353,-0.16006530049127426,-0.015408287726848319,88.79649011537923,0.0
354,-0.15923815361255242,-0.014278138562269196,88.7476534415447,0.0
355,-0.1586797372908416,-0.0135129418034921,88.70071734110415,0.0
356,-0.15827446066202489,-0.013139949738272913,88.65573034124166,0.0
357,-0.15792756599636038,-0.013134831181709626,88.61274100626422,0.0
358,-0.15757432217529943,-0.013399752498398042,88.57179796016537,0.0
359,-0.1571609521158331,-0.013741771437039465,88.53294990973833,0.0
360,-0.15660263464881913,-0.013857704529825952,88.4962456682483,0.0
361,-0.15572991496613245,-0.013333825114979799,88.46173417967633,0.0
362,-0.15424009943737493,-0.011668746298991176,88.42946454354664,0.0
363,-0.15167524950574465,-0.008324853192573563,88.39948604035243,0.0
364,-0.14744979705463707,-0.002807711290090562,88.37184815759417,0.0
365,-0.14094316932438622,0.005234976570962318,88.34660061644787,0.0
366,-0.13165397537212103,0.015911150838387025,88.32379339908043,0.0
367,-0.11938701824490419,0.029000682302443098,88.30347677663143,0.0
368,-0.1044228678615413,0.043912855957918225,88.28570133788176,0.0
369,-0.08761215070357284,0.05970285192538803,88.27051801863139,0.0
370,-0.07034805208982581,0.07515458107616098,88.25797813180914,0.0
371,-0.05439888903322753,0.08892318588102173,88.24813339834019,0.0
372,-0.041620851496269935,0.09971615926092896,88.24103597879743,0.0
373,-0.03360906240626378,0.10648118104291379,88.23673850586549,0.0
374,-0.03137158372236602,0.10856466419898253,88.23529411764706,1.0
375,-0.035115150495680626,0.10580927121625282,88.23620142260914,0.0
376,-0.04420711744260568,0.09857069312028008,88.23890427681312,0.0
377,-0.05732888670376576,0.0876509566121492,88.24337424840162,0.0
378,-0.07277727722423341,0.07416314462743683,88.24958310856051,0.0
379,-0.08882449463572369,0.059356170785527324,88.25750282024802,0.0
380,-0.10403392510588735,0.04443476737875486,88.26710552715976,0.0
381,-0.11745333446786214,0.030407888611117904,88.27836354292347,0.0
382,-0.12865703093235606,0.01798945618896156,88.29124934051683,0.0
383,-0.13766083674865337,0.007561822803659158,88.30573554190285,0.0
384,-0.14476666918326064,-0.0008016643282207359,88.32179490787686,0.0
385,-0.1503980681123643,-0.007269636247188651,88.33940032812019,0.0
386,-0.15497000054100835,-0.01216180200345007,88.35852481145501,0.0
387,-0.15881021299542014,-0.015855238039518462,88.37914147629608,0.0
388,-0.1621286963217255,-0.018704947582176782,88.40122354129437,0.0
389,-0.1650221750859148,-0.020989212525748147,88.42474431616891,0.0
390,-0.16749964726067573,-0.02288316925621414,88.44967719272235,0.0
391,-0.16951730390255443,-0.024458071890185517,88.47599563603677,0.0
392,-0.17101306777684538,-0.025699830273795753,88.50367317584613,0.0
393,-0.1719327353790531,-0.02653885662939293,88.53268339808217,0.0
394,-0.17224319790455161,-0.026883654650302416,88.5629999365905,0.0
395,-0.17193384657930638,-0.026652214803944686,88.59459646501438,0.0
396,-0.17101276583961803,-0.025797340385569596,88.62744668884318,0.0
397,-0.16950630807440548,-0.02432388640092495,88.66152433762333,0.0
398,-0.16746736623897743,-0.022297224221165486,88.69680315732964,0.0
399,-0.16499068597480523,-0.019843052102021003,88.73325690289457,0.0
400,-0.16222703120022605,-0.01713917795816959,88.77085933089418,0.0
401,-0.15938586810494912,-0.01440037397433923,88.80958419238856,0.0
402,-0.15671969530536362,-0.011857992574113617,88.84940522591572,0.0
403,-0.154490498855097,-0.009736693575583263,88.8902961506375,0.0
404,-0.15292680417010365,-0.008231156116643459,88.93223065963622,0.0
405,-0.15218502385480462,-0.007485792432283839,88.97518241336167,0.0
406,-0.1523285353667687,-0.0075801071639165635,89.01912503322687,0.0
407,-0.15333127685028478,-0.008521512673942268,89.06403209535296,0.0
408,-0.15510189945351743,-0.010246349449874584,89.1098771244618,0.0
409,-0.1575149941038985,-0.012628858364654,89.15663358791701,0.0
410,-0.16043341966285438,-0.015497095881159505,89.20427488991238,0.0
411,-0.16371269801697652,-0.018654262068131054,89.25277436580826,0.0
412,-0.16719145158874554,-0.02190343772354021,89.30210527661599,0.0
413,-0.17068310817649618,-0.025073091695542702,89.35224080363056,0.0
414,-0.1739859455513408,-0.02803989132423106,89.40315404321215,0.0
415,-0.1769187127844621,-0.030744599762125485,89.45481800171675,0.0
416,-0.17937254074406087,-0.03319670074591771,89.50720559057712,0.0
417,-0.1813559235155808,-0.035464404449570476,89.56028962153455,0.0
418,-0.18300619427934622,-0.037649112277353354,89.61404280202258,0.0
419,-0.1845507846770844,-0.039846968381341503,89.66843773070352,0.0
420,-0.18622133850441736,-0.042103946993839396,89.72344689315948,0.0
421,-0.1881455843608634,-0.0443738315565163,89.77904265773874,0.0
422,-0.1902557269936137,-0.046489342814395096,89.83519727155925,0.0
423,-0.19224992414460226,-0.04815501065217474,89.89188285667059,0.0
424,-0.1936242262615751,-0.04896638939057266,89.94907140637625,0.0
425,-0.19376462646614206,-0.04845485723935668,90.0067347817179,0.0
426,-0.19206661818615103,-0.04615188355636614,90.06484470812343,0.0
427,-0.18804419906200517,-0.04166258001177068,90.12337277222112,0.0
428,-0.18140311882531665,-0.03473638782191574,90.18229041882124,0.0
429,-0.17207515637617793,-0.025323082097777862,90.24156894806812,0.0
430,-0.16022733376956197,-0.01360457623994122,90.30117951276434,0.0
431,-0.14626232083647311,3.281093890618314e-06,90.36109311586922,0.0
432,-0.1308141021743695,0.014880188956112282,90.4212806081749,0.0
433,-0.11472618973794879,0.030258603642404125,90.48171268616112,0.0
434,-0.0989914423813541,0.04530058393377812,90.54235989003242,0.0
435,-0.08464110225030813,0.05918267334095845,90.60319260193968,0.0
436,-0.07259397744319464,0.07117561779559285,90.6641810443889,0.0
437,-0.06350318483626677,0.08070677050073105,90.72529527883975,0.0
438,-0.05765231582891519,0.08739695698665398,90.78650520449688,0.0
439,-0.05494459769941225,0.09106967995584905,90.8477805572964,0.0
440,-0.054997357107876226,0.09173721131838354,90.9090909090909,1.0
441,-0.05731123482970159,0.0895731864539915,90.97395278258458,0.0
442,-0.061448089080517444,0.08488286402018046,91.0457463824491,0.0
443,-0.06714179220473863,0.07807943142236412,91.12423783925597,0.0
444,-0.07429079011120361,0.06966846682256153,91.20919453847995,0.0
445,-0.08283300948836629,0.060235329024675835,91.30038476804309,0.0
446,-0.09256057865444567,0.050425023094846144,91.39757737852564,0.0
447,-0.10296716919708866,0.04090367709107677,91.50054145556548,0.0
448,-0.11321621353429623,0.03229614337144675,91.60904600404004,0.0
449,-0.1222729903940707,0.025104031535578563,91.7228596436969,0.0
450,-0.1291749306608222,0.019619249721355213,91.84175031596638,0.0
451,-0.13335067751815144,0.015855562106404965,91.96548500175413,0.0
452,-0.1348670418553545,0.013521238621350719,92.093829450076,0.0
453,-0.13449949143477613,0.012048329292272621,92.22654791745587,0.0
454,-0.13358201331876393,0.010680150371689113,92.36340291806675,0.0
455,-0.13367281303963544,0.008602449201294503,92.504154984651,0.0
456,-0.13614077294982488,0.005090719344398826,92.64856244031046,0.0
457,-0.1418066000999319,-0.0003592711006674375,92.79638118130909,0.0
458,-0.15075179799428298,-0.007946518440087834,92.94736447108143,0.0
459,-0.16234772326039754,-0.017541699163220924,93.10126274568958,0.0
460,-0.1754804015431677,-0.028725531886053722,93.25782343101771,0.0
461,-0.18888307172622312,-0.04087254002040439,93.41679077203777,0.0
462,-0.20145951519687105,-0.05325452502674624,93.57790567452427,0.0
463,-0.21249483371812325,-0.06513702624036483,93.74090555963554,0.0
464,-0.2216984781121116,-0.0758492382003466,93.90552423181796,0.0
465,-0.22908776272981343,-0.08482015131251681,94.07149176052647,0.0
466,-0.23477615345411737,-0.09158642812462446,94.2385343762865,0.0
467,-0.23876081844349042,-0.09578626097421407,94.40637438165557,0.0
468,-0.2407991723455491,-0.09715545483528776,94.57473007766826,0.0
469,-0.2404268294676935,-0.09553713007047783,94.74331570637399,0.0
470,-0.23711279292142243,-0.0909071401710721,94.9118414100978,0.0
471,-0.23049245758610745,-0.08340745255235527,95.08001320807041,0.0
472,-0.22058635706743496,-0.0733732453196929,95.24753299108778,0.0
473,-0.20791603968481462,-0.06133877535278774,95.41409853486802,0.0
474,-0.1934672974617688,-0.04801231387982956,95.5794035327771,0.0
475,-0.1785096231497728,-0.03421951195876412,95.74313764859359,0.0
476,-0.16433502569059416,-0.02082398981441104,95.90498658997502,0.0
477,-0.15200678412211177,-0.008640316149597045,96.06463220327613,0.0
478,-0.14219869984238137,0.001644231703226598,96.22175259034974,0.0
479,-0.1351638433652238,0.009526697334970156,96.3760222479359,0.0
480,-0.13081834523578575,0.014719097347798287,96.52711223021237,0.0
481,-0.12888432296758753,0.01715514476779552,96.67469033503987,0.0
482,-0.12902316302134526,0.016980659377765946,96.81842131439022,0.0
483,-0.13090801430149396,0.014536388530738773,96.9579671093888,0.0
484,-0.1342202857715907,0.01033909310782224,97.09298711034342,0.0
485,-0.1385905336024987,0.0050614978727942204,97.22313844205924,0.0
486,-0.14352432928385347,-0.0004935509436130286,97.34807627466368,0.0
487,-0.1483536883012616,-0.005432366162884779,97.46745416007694,0.0
488,-0.1522399500729663,-0.008830113012727259,97.58092439417155,0.0
489,-0.1542352477844979,-0.009813438843674333,97.68813840456085,0.0
490,-0.1533955379286092,-0.00766144808918344,97.78874716384715,0.0
491,-0.14893060300393526,-0.00191265193148564,97.88240162804244,0.0
492,-0.14037128168626872,0.007540581214901105,97.96875319975013,0.0
493,-0.127726144564384,0.020390884811437936,98.0474542155639,0.0
494,-0.11158907766607738,0.03590615386803043,98.11815845700343,0.0
495,-0.09315382629409108,0.05298145756126094,98.1805216841615,0.0
496,-0.07410263238217737,0.07025124887088723,98.2342021910898,0.0
497,-0.05636824136463649,0.086247729077895,98.27886138179794,0.0
498,-0.04181285106302323,0.09958051088205336,98.3141643655838,0.0
499,-0.031904053397193786,0.10910708297935169,98.33978057025692,0.0
500,-0.027476688784874186,0.11406479717647029,98.35538437165602,0.0
501,-0.028643647486705247,0.1141430829200949,98.36065573770492,1.0
502,-0.03486849209185242,0.10948730275618274,98.35612312306344,0.0
503,-0.045160691857914395,0.10063971181058037,98.3427156053999,0.0
504,-0.05832208062162385,0.08843471946607975,98.3207220461403,0.0
505,-0.07317110900785696,0.0738722839351509,98.29043539665403,0.0
506,-0.08869476974729325,0.0579936683408173,98.25215220064845,0.0
507,-0.10411210935342022,0.04177865840614764,98.20617210966168,0.0
508,-0.11886290204267821,0.02607481458853963,98.15279741280484,0.0
509,-0.13255187759318685,0.011560146695769543,98.09233258179317,0.0
510,-0.14488220865098558,-0.0012667609577113464,98.02508383219391,0.0
511,-0.1556055896540707,-0.012079114782147599,97.95135870170981,0.0
512,-0.16450461881778228,-0.02070692230659047,97.87146564620976,0.0
513,-0.17140976457309168,-0.027122000479606535,97.78571365411399,0.0
514,-0.1762407576460797,-0.031425973085163435,97.69441187964048,0.0
515,-0.17905358515247077,-0.033839980200406954,97.59786929532235,0.0
516,-0.18007183921554143,-0.034692001899460805,97.49639436411375,0.0
517,-0.17968600681778554,-0.03439704198852476,97.39029473131362,0.0
518,-0.17841497289182376,-0.03342689434601177,97.27987693645402,0.0
519,-0.17683680218813577,-0.03226916632919855,97.16544614522225,0.0
520,-0.17550596418427233,-0.031378661439439695,97.04730590141266,0.0
521,-0.17487758342296128,-0.031127125696574963,96.92575789883898,0.0
522,-0.1752546596128066,-0.03175900977376526,96.80110177307425,0.0
523,-0.17676380944984504,-0.033360963579858474,96.67363491283182,0.0
524,-0.17935441153363668,-0.035851305333272375,96.543652290749,0.0
525,-0.18281113027233054,-0.03899298038361033,96.41144631329124,0.0
526,-0.1867734834677004,-0.04242994445310045,96.27730668945419,0.0
527,-0.19076552673899505,-0.04574292468920599,96.14152031790796,0.0
528,-0.1942463303378217,-0.04851667073120486,96.00437119219805,0.0
529,-0.1966901027629581,-0.050407792209220904,95.86614032359381,0.0
530,-0.19769126863579103,-0.05120089220909743,95.72710568115609,0.0
531,-0.19707024097367393,-0.05084168485586888,95.58754214858054,0.0
532,-0.1949415691753415,-0.049439477885046774,95.44772149736404,0.0
533,-0.19170854844046936,-0.04723744704297353,95.30791237583438,0.0
534,-0.18797047692069935,-0.044556328319743016,95.16838031358235,0.0
535,-0.18436270630922771,-0.0417236713699928,95.029387740837,0.0
536,-0.18137970156170166,-0.03900469745531331,94.89119402232987,0.0
537,-0.17924215012456945,-0.0365507379501374,94.75405550520344,0.0
538,-0.17785431948555533,-0.03437698360419677,94.6182255805304,0.0
539,-0.17686347804324978,-0.0323739395471289,94.48395475802617,0.0
540,-0.17579467881461303,-0.030348618181233224,94.3514907535539,0.0
541,-0.1742083860309886,-0.028084445736935814,94.22107858904256,0.0
542,-0.171825551749137,-0.025404927033423542,94.09296070446119,0.0
543,-0.16858423479326337,-0.02222605444375769,93.96737708151784,0.0
544,-0.16462324170023546,-0.018585821850901352,93.84456537877922,0.0
545,-0.16021650808112145,-0.014644715917948846,93.72476107793685,0.0
546,-0.1556945156398697,-0.010657138189979936,93.60819764097684,0.0
547,-0.15138196370849322,-0.006919085322531299,93.4951066780444,0.0
548,-0.14756064909228336,-0.0037013901192357816,93.38571812582924,0.0
549,-0.14444626355357548,-0.0011802476131732888,93.28026043633594,0.0
550,-0.14215973628091846,0.0006222969256553558,93.1789607759411,0.0
551,-0.14068182440215066,0.001875732487015197,93.08204523468228,0.0
552,-0.13979813857351836,0.002946357665004739,92.98973904576359,0.0
553,-0.13905956595572458,0.004364600644545587,92.90226681531028,0.0
554,-0.13779009609945939,0.006754629949161293,92.81985276244893,0.0
555,-0.1351657620618033,0.01073393737746502,92.7427209698398,0.0
556,-0.13036659361857408,0.01679799073575857,92.67109564483813,0.0
557,-0.12277531569820407,0.025210557976771526,92.60520139151433,0.0
558,-0.11217251006370912,0.03592201139710782,92.54526349381833,0.0
559,-0.09886865582935817,0.04853463855872284,92.49150821023164,0.0
560,-0.08372497538589507,0.06232578227879991,92.44416308031188,0.0
561,-0.06804515119370348,0.07632803237648658,92.40345724359828,0.0
562,-0.05335826887446229,0.08945339647057406,92.36962177141474,0.0
563,-0.04114575204304657,0.10063853768178097,92.34289001217844,0.0
564,-0.03258058811936882,0.10898345844450663,92.3234979508974,0.0
565,-0.028342024424567323,0.11385780149383694,92.31168458362094,0.0
566,-0.0285465033627453,0.11495684627520632,92.3076923076923,1.0
567,-0.03280357610707578,0.11230123818417705,92.30895335057967,0.0
568,-0.04037288265309062,0.10618733567982848,92.31270149372489,0.0
569,-0.05037337963774468,0.09710543211416922,92.31888454761838,0.0
570,-0.06198514860286627,0.08564839035023404,92.32745068554176,0.0
571,-0.07459010957997035,0.07243227761176496,92.33834841638642,0.0
572,-0.0878189965105444,0.05804402871025004,92.35152655817977,0.0
573,-0.1015018591828998,0.043021164944222146,92.36693421229977,0.0
574,-0.11554923386000777,0.0278582023596593,92.38452073835815,0.0
575,-0.12981181896987434,0.013026622023092493,92.40423572973523,0.0
576,-0.14397147823707065,-0.0010077297487702253,92.4260289897496,0.0
577,-0.15750422546989676,-0.013783559750959962,92.44985050844747,0.0
578,-0.16973087589704194,-0.0248663327827435,92.4756504399978,0.0
579,-0.17994176605778003,-0.0338918108979475,92.50337908067978,0.0
580,-0.18755786136358688,-0.040620717729525864,92.53298684745103,0.0
581,-0.19227916821861352,-0.04498921752058067,92.56442425708552,0.0
582,-0.19417582016533563,-0.04713941486425767,92.59764190587101,0.0
583,-0.19369529206917982,-0.04741826721172789,92.63259044985722,0.0
584,-0.19158411875512701,-0.046340862061389376,92.66922058564654,0.0
585,-0.18874576623733813,-0.04452275270768317,92.70748303172017,0.0
586,-0.18607121484285258,-0.04259356256793647,92.74732851029312,0.0
587,-0.18428249088352724,-0.04110842239922715,92.78870772969286,0.0
588,-0.18382270114663246,-0.040474030567924105,92.83157136725687,0.0
589,-0.18481229000622992,-0.040902411718772035,92.87587005274473,0.0
590,-0.18707427857695552,-0.04239898862723931,92.92155435226256,0.0
591,-0.19021507082232883,-0.044784171740863576,92.96857475269633,0.0
592,-0.1937354660706171,-0.047741177281473555,93.0168816466532,0.0
593,-0.1971415453693968,-0.05087864259610724,93.06642531790938,0.0
594,-0.20002856709325112,-0.05379548113376778,93.11715592736455,0.0
595,-0.2021222193920542,-0.056137110202248416,93.16902349950283,0.0
596,-0.2032771626090275,-0.05763579488748895,93.22197790936157,0.0
597,-0.20344729050825736,-0.05813214092723642,93.27596887000927,0.0
598,-0.2026498004234579,-0.05757857756451691,93.33094592053494,0.0
599,-0.2009425096559511,-0.05602825960608309,93.38685841455181,0.0
600,-0.1984219571913664,-0.053614012720912055,93.44365550921789,0.0
601,-0.19523478063586142,-0.05052204803091999,93.5012861547783,0.0
602,-0.19158514194203238,-0.046964689781627156,93.55969908463267,0.0
603,-0.18772244097594706,-0.04315570616759942,93.61884280593291,0.0
604,-0.18390533184844432,-0.039291134146575854,93.67866559071642,0.0
605,-0.18035284561351528,-0.03553759282574587,93.73911546758043,0.0
606,-0.1772023224798164,-0.03202874927633737,93.80014021390356,0.0
607,-0.17449209342083627,-0.02886877031625932,93.86168734862096,0.0
608,-0.17217619628414774,-0.026139548108091906,93.92370412556022,0.0
609,-0.17016501563264072,-0.02390685176616157,93.98613752734465,0.0
610,-0.16837574757035387,-0.02222009479067582,94.04893425987196,0.0
611,-0.16677308334469867,-0.02110170248951232,94.11204074737611,0.0
612,-0.165383321286602,-0.020525214852189312,94.1754031280799,0.0
613,-0.1642725413657925,-0.020385717250065914,94.23896725044727,0.0
614,-0.16348971450112193,-0.020470790624141394,94.30267867004345,0.0
615,-0.1629871087299566,-0.020443396982938723,94.36648264701172,0.0
616,-0.16254122445796138,-0.019848517306756082,94.43032414417583,0.0
617,-0.16170485831677706,-0.018152047761960725,94.494147825777,0.0
618,-0.1598208246301103,-0.014813521332536852,94.55789805685448,0.0
619,-0.15611678787579758,-0.009384913125897374,94.62151890327928,0.0
620,-0.14987811676909787,-0.0016184032688538325,94.68495413244969,0.0
621,-0.14066658248520858,0.008440663880302325,94.74814721465842,0.0
622,-0.1285270120821625,0.020400713235466217,94.8110413251402,0.0
623,-0.11411301916307663,0.03353046081663088,94.87357934680907,0.0
624,-0.09867434619232783,0.04683300693585593,94.93570387369462,0.0
625,-0.0838821505578929,0.059179857360022,94.99735721508566,0.0
626,-0.07151607054354459,0.06948164746832734,95.05848140039052,0.0
627,-0.06308344147120018,0.07686128164241707,95.11901818472232,0.0
628,-0.05947099460856258,0.08079228904578573,95.17890905521742,0.0
629,-0.060731307234621695,0.08117197413342267,95.23809523809524,1.0
630,-0.06607616776411405,0.07831413329087716,95.29772971136062,0.0
631,-0.07409186050636551,0.07286577576096012,95.35897459077964,0.0
632,-0.08312162798591438,0.06567085973639847,95.42178454866537,0.0
633,-0.09170066962580593,0.05761603265463153,95.48611415193191,0.0
634,-0.0989035403276167,0.04949513537497199,95.55191784646432,0.0
635,-0.1044888202917261,0.041920378999406524,95.61914994188989,0.0
636,-0.1087982553161559,0.03529168909429676,95.68776459674997,0.0
637,-0.11246139243132976,0.02981730761680168,95.75771580407317,0.0
638,-0.11603266432366835,0.025564513584546724,95.82895737734995,0.0
639,-0.11971150961747595,0.022513824187499577,95.90144293691057,0.0
640,-0.12325602974586702,0.02059457057916417,95.97512589670826,0.0
641,-0.1261150172237438,0.019691935496259465,96.0499594515101,0.0
642,-0.1277107183933112,0.01963032728235056,96.12589656449828,0.0
643,-0.12774555442122457,0.020149571768982914,96.20288995528632,0.0
644,-0.12640296263044418,0.02089453560143867,96.28089208835334,0.0
645,-0.12436222254923743,0.02143417109319677,96.35985516190168,0.0
646,-0.12262462445660899,0.021314639876842924,96.43973109714253,0.0
647,-0.12222024040786017,0.02013755467733952,96.52047152801583,0.0
648,-0.12390363624408601,0.017643517495690066,96.60202779134957,0.0
649,-0.12794181129796187,0.01377684400509532,96.68435091746603,0.0
650,-0.13405553678381876,0.008710996419669131,96.76739162124093,0.0
651,-0.1415168528473833,0.002824429675685849,96.85110029362355,0.0
652,-0.14935539513757679,-0.003370093258217072,96.9354269936254,0.0
653,-0.15660179379655548,-0.009327242719497399,97.02032144078537,0.0
654,-0.16250078559668338,-0.01457843521468236,97.10573300812007,0.0
655,-0.166650125051724,-0.01882353481431508,97.1916107155682,0.0
656,-0.16904916301066686,-0.021984393718853818,97.27790322393813,0.0
657,-0.17006228502346257,-0.02420904842095015,97.36455882936825,0.0
658,-0.17031444383166136,-0.025826907514607027,97.45152545830973,0.0
659,-0.17054201928075205,-0.027266129203297473,97.53875066304187,0.0
660,-0.17142655913543609,-0.028952197688071696,97.62618161773045,0.0
661,-0.17344298288933258,-0.031209946981261665,97.71376511503944,0.0
662,-0.1767548579296994,-0.03418952885706833,97.80144756330708,0.0
663,-0.18118260083091917,-0.037830767006938756,97.88917498429676,0.0
664,-0.1862531871293953,-0.041871569567093016,97.97689301153461,0.0
665,-0.19131554047789742,-0.04589667433165639,98.06454688924416,0.0
666,-0.19568433393309553,-0.04941504360566058,98.15208147189003,0.0
667,-0.1987682662978071,-0.05194925334125188,98.23944122434173,0.0
668,-0.2001518443328836,-0.05311892467007092,98.32657022266905,0.0
669,-0.19962501232651728,-0.05270242244758047,98.41341215558067,0.0
670,-0.19717703225342,-0.05066584412093097,98.49991032651737,0.0
671,-0.19297688747014255,-0.04715463425969389,98.58600765641093,0.0
672,-0.18735101072535093,-0.042449948224619574,98.67164668712083,0.0
673,-0.18075104321709773,-0.03689830680892224,98.7567695855589,0.0
674,-0.1736940993713028,-0.030828385839219204,98.84131814851409,0.0
675,-0.16666448489750926,-0.02447216642586895,98.92523380818731,0.0
676,-0.15998740484868326,-0.017908246218595637,99.00845763844765,0.0
677,-0.15371094415352687,-0.011042136432761999,99.09093036182,0.0
678,-0.1475473631746019,-0.0036316680369130813,99.17259235721453,0.0
679,-0.14091657556241896,0.004643993884809319,99.25338366840727,0.0
680,-0.13310210206825773,0.014083866678010294,99.33324401328181,0.0
681,-0.12348504822083917,0.024854303393902787,99.41211279384058,0.0
682,-0.11178576619996147,0.03689348161085843,99.48992910699465,0.0
683,-0.09823383614324822,0.049855358396374255,99.56663175613942,0.0
684,-0.08360903502953093,0.06310935232407257,99.64215926352446,0.0
685,-0.06913799750204164,0.07579956155953578,99.71644988342378,0.0
686,-0.056275144601154195,0.08695344872155596,99.78944161611292,0.0
687,-0.0464270818371456,0.09561829161988714,99.86107222265838,0.0
688,-0.04069028083800282,0.10099741081300954,99.93127924052425,0.0
689,-0.03966335025147735,0.10255885698425476,100.0,1.0
690,-0.043372837094482704,0.1000965687703249,100.0671808517397,0.0
691,-0.05132200556723398,0.09373589453073312,100.13285079611812,0.0
692,-0.06264211243504215,0.08388853862546994,100.19707135523177,0.0
693,-0.07630160344217665,0.07117293041390967,100.25990451994731,0.0
694,-0.09131593312408497,0.05632193581529465,100.3214127325167,0.0
695,-0.10690309306915045,0.04009942917144213,100.38165886986829,0.0
696,-0.1225476464750209,0.02324102312259793,100.4407062275926,0.0
697,-0.1379647569446652,0.006424361377769864,100.49861850464004,0.0
698,-0.1529871448752255,-0.009736041642284938,100.5554597887478,0.0
699,-0.16742243796877979,-0.02468216566002092,100.6112945426123,0.0
700,-0.18093794679231953,-0.0379095288693676,100.66618759082199,0.0
701,-0.19302068567866226,-0.04898035820475662,100.7202041075659,0.0
702,-0.20303456681555815,-0.057557620757992506,100.77340960513222,0.0
703,-0.21036219577803816,-0.06345480829153048,100.82586992320952,0.0
704,-0.21458744655190884,-0.06668763643478856,100.8776512190048,0.0
705,-0.2156582865643876,-0.06750913749283213,100.9288199581897,0.0
706,-0.21397320216180712,-0.06641070981164571,100.97944290668754,0.0
707,-0.21035735772901018,-0.06407851724812905,101.02958712331242,0.0
708,-0.20592789915515175,-0.061305465743628815,101.07931995327135,0.0
709,-0.20188009364763657,-0.05887088432662982,101.12870902254024,0.0
710,-0.19924704401865714,-0.05740973828194057,101.17782223312435,0.0
711,-0.19869000780243293,-0.05729801980576701,101.22672775921272,0.0
712,-0.2003647707416281,-0.05857949726327487,101.27549404423733,0.0
713,-0.20388849425512393,-0.06095145565564742,101.32418979884585,0.0
714,-0.20840943551996488,-0.06381510995162258,101.3728839997984,0.0
715,-0.21276485116102875,-0.0663827336360077,101.42164588979718,0.0
716,-0.2157009313405995,-0.06782132074627095,101.47054497825896,0.0
717,-0.21611950971992847,-0.067404601165477,101.51965104303977,0.0
718,-0.21330702435079751,-0.06464336544671509,101.56903413312152,0.0
719,-0.20709458156487923,-0.059368886416389585,101.61876457227021,0.0
720,-0.19790232755701334,-0.051754749408628946,101.66891296367601,0.0
721,-0.1866444647588586,-0.04227617629705552,101.71955019558511,0.0
722,-0.17451185083175225,-0.031619564570998376,101.77074744793434,0.0
723,-0.16269293737003487,-0.020564985598961295,101.8225761999989,0.0
724,-0.15211953967925446,-0.00986823489556448,101.87510823906545,0.0
725,-0.14331609950712126,-0.00016588770363520564,101.92841567014165,0.0
726,-0.13639071841927486,0.008082060923709743,101.98257092671498,0.0
727,-0.13115112239040175,0.01460905504208004,102.03764678257417,0.0
728,-0.1272835169227955,0.01932621266266728,102.09371636470657,0.0
729,-0.12451567201064027,0.02228860193287627,102.15085316728627,0.0
730,-0.1227022891915954,0.023659410529148925,102.20913106676853,0.0
731,-0.12181104416244148,0.0236838041499135,102.26862433810659,0.0
732,-0.12183267228827584,0.02267698038886029,102.32940767210822,0.0
733,-0.12266817269402308,0.021023198943745613,102.39155619395056,0.0
734,-0.12404880203574749,0.01917696273186106,102.45514548287258,0.0
735,-0.12552188986522936,0.017655555581253337,102.52025159306609,0.0
736,-0.12650196193417895,0.01701400144209133,102.58695107578701,0.0
737,-0.12636068286863664,0.01779828319057555,102.65532100271089,0.0
738,-0.12452276160506329,0.020478856236918738,102.72543899055707,0.0
739,-0.12054742193640039,0.02537258765128025,102.7973832270085,0.0
740,-0.11419430710251306,0.03256601158161461,102.87123249795489,0.0
741,-0.10548375248099541,0.04185534464311955,102.94706621608988,0.0
742,-0.0947559539046599,0.052718475179394785,103.0249644508934,0.0
743,-0.08271545334749966,0.06433082533807181,103.10500796003355,0.0
744,-0.07043005947044281,0.07563067631468127,103.18727822222392,0.0
745,-0.05925148281494442,0.0854309431680212,103.27185747157466,0.0
746,-0.05064482516779087,0.0925649192456683,103.35882873347758,0.0
747,-0.04594880889742532,0.09604520895997877,103.44827586206897,1.0
748,-0.046121748071283324,0.09521008594702146,103.54509330498801,0.0
749,-0.05154264860806899,0.08983146582204371,103.65381460263768,0.0
750,-0.06192414863238258,0.0801640429709973,103.77398585980315,0.0
751,-0.07635917362572764,0.06692498415207919,103.90515628178565,0.0
752,-0.09348178160634288,0.051205792033302,104.0468771420535,0.0
753,-0.11169283134773346,0.03432988071360171,104.19870079160133,0.0
754,-0.129393921465574,0.017678580479351436,104.36017970800008,0.0
755,-0.14518714018242287,0.0025130732043858878,104.53086558248889,0.0
756,-0.15802163421471452,-0.010180392101834017,104.71030844380795,0.0
757,-0.1672864167641631,-0.019799297458253692,104.89805581780617,0.0
758,-0.17285399450069724,-0.026172989328340657,105.09365192217616,0.0
759,-0.17507351364675053,-0.029545457134329666,105.29663689597602,0.0
760,-0.1747051801720488,-0.030498498969564712,105.50654606389301,0.0
761,-0.17279000221285126,-0.029830375501239327,105.72290923548903,0.0
762,-0.1704637992625268,-0.028411883223010706,105.94525003994255,0.0
763,-0.1687459844497688,-0.02704483834111782,106.17308529706776,0.0
764,-0.16835036150335578,-0.02634650510519276,106.40592442564724,0.0
765,-0.16956692585028862,-0.026677595087834738,106.64326889036154,0.0
766,-0.17224712004938741,-0.028122182662481225,106.88461168883512,0.0
767,-0.17589517139150523,-0.03051721536844946,107.12943688054516,0.0
768,-0.17983579229207539,-0.03351971216329475,107.3772191595531,0.0
769,-0.18340553435466206,-0.03669350712555197,107.62742347322212,0.0
770,-0.18610995038197742,-0.0395958936589546,107.87950468927097,0.0
771,-0.18770356659021917,-0.04184780276418746,108.13290731368825,0.0
772,-0.18817929122359048,-0.043177900201218804,108.38706526218579,0.0
773,-0.1876870464520168,-0.043438980481189486,108.6414016880071,0.0
774,-0.18642484208245705,-0.042601861434838455,108.89532886902072,0.0
775,-0.18454985689997536,-0.04073584043112417,109.1482481571208,0.0
776,-0.1821417441151244,-0.03798501016475811,109.39954999302093,0.0
777,-0.17922369962261372,-0.0345469525116193,109.64861398956432,0.0
778,-0.1758213610963544,-0.0306560519305974,109.89480908667771,0.0
779,-0.17202558294967532,-0.02656969769972788,110.13749378106685,0.0
780,-0.16802652727112755,-0.022553402944535242,110.3760164336844,0.0
781,-0.1641009022788942,-0.018860964517979695,110.60971565789494,0.0
782,-0.1605548894311692,-0.01570791937534666,110.83792079111203,0.0
783,-0.15764389103728738,-0.01323975956577204,111.05995245248884,0.0
784,-0.15549907869688392,-0.011499474280483101,111.2751231890021,0.0
785,-0.15408601144354647,-0.01040103927776026,111.48273821197749,0.0
786,-0.15320473901088397,-0.009715991601103549,111.68209622576452,0.0
787,-0.15252218266902623,-0.009079207816231512,111.87249034987215,0.0
788,-0.15161652135424963,-0.008017730570832354,112.0532091354307,0.0
789,-0.15001614514605308,-0.006003298669263209,112.22353767634405,0.0
790,-0.14723056207650484,-0.0025254039664625635,112.38275881494222,0.0
791,-0.1427876573445262,0.0028224964019379645,112.53015444133891,0.0
792,-0.13629851373198174,0.01025506296468437,112.66500688504406,0.0
793,-0.1275602170156687,0.019720036036754072,112.78660039667793,0.0
794,-0.11668175409081193,0.030851732255676452,112.89422271688987,0.0
795,-0.1041913072253088,0.042966682851373304,112.9871667288002,0.0
796,-0.09107118942332,0.05510938050334096,113.0647321894684,0.0
797,-0.07867952535083103,0.06614743222559201,113.12622753504883,0.0
798,-0.0685534987254792,0.07490543154422255,113.17097175343616,0.0
799,-0.06213359143393982,0.08031805855857087,113.198296317334,0.0
800,-0.06048221642471167,0.0815777887666354,113.20754716981132,1.0
801,-0.06407753440484108,0.07825274635375813,113.19975081258427,0.0
802,-0.07273932331119691,0.07035575310045432,113.17673706426659,0.0
803,-0.08569788102314577,0.05835496744895419,113.13907743569018,0.0
804,-0.10176876976828642,0.043127068347820395,113.08735361417412,0.0
805,-0.119566590021739,0.02586296673594419,113.0221560075957,0.0
806,-0.13769149347291287,0.007941597713340649,112.94408233276158,0.0
807,-0.15484946104672975,-0.00921106531464359,112.85373625292135,0.0
808,-0.16990581434160298,-0.02426217188575225,112.75172606870343,0.0
809,-0.18190207307284434,-0.03609873825307936,112.63866346619662,0.0
810,-0.19007639572900248,-0.043931249451766394,112.5151623253567,0.0
811,-0.19391553287749919,-0.04736627703613218,112.38183759138576,0.0
812,-0.19323927928176485,-0.046441377112786966,112.23930421122392,0.0
813,-0.1882899555904617,-0.04161689765033415,112.08817613680438,0.0
814,-0.17978265214592198,-0.03372215932011606,111.92906539626271,0.0
815,-0.16887503014724364,-0.02385844384276148,111.76258123385844,0.0
816,-0.15703809276281255,-0.013267943451714243,111.58932931896504,0.0
817,-0.14584250608691693,-0.003184822351223279,111.40991102411253,0.0
818,-0.13670522671267266,0.005310297968741302,111.22492277173134,0.0
819,-0.13065690480514766,0.01140978819598315,111.03495544893762,0.0
820,-0.12818724249646785,0.014653352039860701,110.84059388943193,0.0
821,-0.12920587321299298,0.01494643286891605,110.64241642134128,0.0
822,-0.1331270109878622,0.012522947540551473,110.44099447963,0.0
823,-0.13905441226576487,0.007863820137293039,110.23689228152863,0.0
824,-0.14601620514532862,0.0015911841162325182,110.0306665632862,0.0
825,-0.15318434408336415,-0.005638532934504179,109.82286637643683,0.0
826,-0.16001768949070228,-0.013221946432241144,109.61403294168247,0.0
827,-0.16629310711473694,-0.020663267220365468,109.40469955843609,0.0
828,-0.17202850879562723,-0.02759297584679249,109.19539156803216,0.0
829,-0.17733993676489618,-0.03375720614793151,108.98662636860037,0.0
830,-0.18229521621560668,-0.03899089251217472,108.77891347960892,0.0
831,-0.18682127399293386,-0.04318936738291111,108.57275465411402,0.0
832,-0.19069507449562337,-0.04628990185632914,108.36864403680266,0.0
833,-0.19361223790624718,-0.0482681943057534,108.1670683659818,0.0
834,-0.19529779751692253,-0.049147467434857886,107.96850721775182,0.0
835,-0.1956112223217463,-0.049012105242218246,107.77343329069889,0.0
836,-0.19460589149806776,-0.04801536053304533,107.58231272955418,0.0
837,-0.19252574553528862,-0.046372095258580326,107.39560548639086,0.0
838,-0.18974680438967098,-0.044332080676494086,107.2137657180675,0.0
839,-0.18668712355639752,-0.04213555756897627,107.03724221877171,0.0
840,-0.1837111067542473,-0.039958740125535464,106.86647888667696,0.0
841,-0.18104698653630358,-0.037861173451841555,106.70191522389092,0.0
842,-0.17872779099166727,-0.035748308241857166,106.54398686905039,0.0
843,-0.17656188741363596,-0.033360985438987786,106.39312616210304,0.0
844,-0.17413923630576042,-0.03029900921401118,106.24976274101093,0.0
845,-0.17087967719180566,-0.026079441583862287,106.11432417031307,0.0
846,-0.16612558979961567,-0.020222895539941447,105.9872366016987,0.0
847,-0.15927174433520758,-0.012354395945294288,105.86892546696468,0.0
848,-0.14991242586417047,-0.0023007909032647846,105.75981620396428,0.0
849,-0.13797499016903267,0.009834579912667497,105.66033501639977,0.0
850,-0.12380534617166433,0.023636621856148538,105.57090966856875,0.0
851,-0.10817779202684953,0.03839297202839945,105.49197031644516,0.0
852,-0.09221837222453695,0.05315967196791288,105.42395037676351,0.0
853,-0.0772524445938949,0.06686973841236962,105.36728743607861,0.0
854,-0.064606256237245,0.07846787692606712,105.32242420209704,0.0
855,-0.05540292731706045,0.08704923443020221,105.28980949992179,0.0
856,-0.050392982447016926,0.09197904523312561,105.26989931622191,0.0
857,-0.04985030089987664,0.09297351288701966,105.26315789473685,1.0
858,-0.05355007209735682,0.09012949771437995,105.2732719182679,0.0
859,-0.06082938306278807,0.08389995354106367,105.30309989894674,0.0
860,-0.0707152345358156,0.07502157352267429,105.35188599866181,0.0
861,-0.08209102543075184,0.06440882831112135,105.41889254982246,0.0
862,-0.09386463078840974,0.053033086514039665,105.50339740128253,0.0
863,-0.10510346397322008,0.04180618715544443,105.60469140549895,0.0
864,-0.11511541356833137,0.031484969722152645,105.72207603486073,0.0
865,-0.12347429814984426,0.02260787326614365,105.8548611166877,0.0
866,-0.13000514599623905,0.015468188409441894,106.00236267783222,0.0
867,-0.13475013390808901,0.01012225687350973,106.16390089114216,0.0
868,-0.13792917850307113,0.006425892067718592,106.33879811727006,0.0
869,-0.13989658184373302,0.004089100680449138,106.52637703646238,0.0
870,-0.14108686081914332,0.0027379688463965626,106.72595886603669,0.0
871,-0.14194569087953127,0.001973230664452626,106.93686166027145,0.0
872,-0.1428544968149512,0.001417315354515395,107.15839869039463,0.0
873,-0.14407062030461715,0.0007451906284531642,107.38987690327417,0.0
874,-0.145707936653655,-0.0003015114435653502,107.63059545828813,0.0
875,-0.147769607283209,-0.001913637370676827,107.87984434269158,0.0
876,-0.15022029323822855,-0.004220720058264146,108.13690306660142,0.0
877,-0.15306324991796913,-0.007297350359423475,108.40103943949212,0.0
878,-0.15638212473079113,-0.011164494772940535,108.67150843083715,0.0
879,-0.16032283716061266,-0.015784140380934713,108.94755111823727,0.0
880,-0.16502015668549316,-0.021049943813850936,109.22839372705279,0.0
881,-0.17050135835429087,-0.02677996141309231,109.51324676619396,0.0
882,-0.17661169558521728,-0.03271866661481962,109.80130426532192,0.0
883,-0.1829978833384332,-0.038553710082509345,110.09174311926607,0.0
884,-0.18916119986663166,-0.0439486770814633,110.38372254596639,0.0
885,-0.19456315165093818,-0.04858777450615353,110.6763836646964,0.0
886,-0.19874681785458698,-0.0522236877232851,110.96884920170375,0.0
887,-0.20143383815283947,-0.054717340590499895,111.26022333071684,0.0
888,-0.20256998418717573,-0.056058825478305645,111.54959165599408,0.0
889,-0.20231331547579748,-0.056362280552986005,111.83602134573128,0.0
890,-0.20097725918561693,-0.055833104522737494,112.11856142368121,0.0
891,-0.19894910095637777,-0.054712260840929845,112.39624322676636,0.0
892,-0.19660202709697164,-0.05320809269784664,112.66808103627369,0.0
893,-0.19421196650446607,-0.05142982918287677,112.9330728898941,0.0
894,-0.19188630814140115,-0.049337993428101426,113.19020158140631,0.0
895,-0.18951332057624404,-0.04672487819805245,113.43843585418746,0.0
896,-0.18674593725478125,-0.043233288623416945,113.67673179396093,0.0
897,-0.18303518661261095,-0.03841454818833065,113.9040344252521,0.0
898,-0.17772195682377542,-0.031818523406319604,114.11927951491515,0.0
899,-0.17018075555221396,-0.023100753142670162,114.32139558481092,0.0
900,-0.1599903896215703,-0.012126421586606677,114.50930613426036,0.0
901,-0.14709148357197604,0.0009506192400163694,114.68193207126947,0.0
902,-0.13188646050290706,0.01565250166491033,114.83819434972692,0.0
903,-0.11524764363870856,0.031196962023857987,114.97701680782212,0.0
904,-0.09842189334526237,0.04657277168610935,115.09732920083397,0.0
905,-0.08284874159203268,0.06066055296050782,115.1980704192119,0.0
906,-0.06993320464643488,0.07237898407792892,115.27819188053725,0.0
907,-0.06082515585496749,0.08083073242876652,115.33666108153274,0.0
908,-0.05625077233705085,0.08542201506230264,115.37246529381791,0.0
909,-0.05642270939129051,0.08593459790573683,115.38461538461539,1.0
910,-0.06103457833185978,0.08253825945909644,115.37891087032955,0.0
911,-0.06933118772869368,0.07574332255652881,115.36200968515926,0.0
912,-0.08024069751697807,0.06630441658575245,115.33423497761892,0.0
913,-0.09255251676582861,0.055095813943511894,115.2959155561639,0.0
914,-0.105118111354508,0.042983575417818824,115.24738528634937,0.0
915,-0.1170395567556545,0.03071922890748054,115.18898250005101,0.0
916,-0.1278001809684195,0.018873767243569525,115.12104941828947,0.0
917,-0.1372949411803335,0.007820584997164245,115.04393158907341,0.0
918,-0.14574266185156692,-0.0022360929167592972,114.95797734154787,0.0
919,-0.15350309421146083,-0.011201701365997439,114.86353725760891,0.0
920,-0.16086139780761288,-0.01902209634158735,114.76096366201644,0.0
921,-0.1678596613409395,-0.025626920457900944,114.65061013191539,0.0
922,-0.17423777494348647,-0.030902651793168034,114.53283102655183,0.0
923,-0.17950132021088722,-0.03470250230175667,114.40798103785247,0.0
924,-0.18308440425329797,-0.03688872704576664,114.27641476242202,0.0
925,-0.18454393894040946,-0.03739301875477539,114.1384862954016,0.0
926,-0.1837193807067197,-0.03627526230715042,113.99454884652654,0.0
927,-0.1808128412788243,-0.03376132030462016,113.84495437862194,0.0
928,-0.1763746116641568,-0.030246281657573808,113.6900532686789,0.0
929,-0.17120594881650106,-0.02625884029522542,113.53019399156668,0.0
930,-0.16620840241673282,-0.022392513734890224,113.3657228263516,0.0
931,-0.16221639478538794,-0.019217623557970152,113.19698358511836,0.0
932,-0.15984898549830484,-0.017192417662234248,113.02431736411691,0.0
933,-0.15940992288689684,-0.016591611050776812,112.84806231699582,0.0
934,-0.16085397999906112,-0.01746634215602742,112.66855344982208,0.0
935,-0.16382342420181475,-0.019642436717836585,112.4861224375374,0.0
936,-0.1677427434011519,-0.022755829061306784,112.30109746145347,0.0
937,-0.17194562549466727,-0.026316916935634798,112.11380306734829,0.0
938,-0.1758007847728054,-0.029790966218110677,111.92456004369183,0.0
939,-0.17880688928504349,-0.03268010419748654,111.73368531949868,0.0
940,-0.18064101305993244,-0.034593764618646806,111.54149188128304,0.0
941,-0.18116306053017994,-0.03529783140925491,111.34828870857098,0.0
942,-0.1803916205516726,-0.03473703443777364,111.15438072741212,0.0
943,-0.178469570028193,-0.033029356960496185,110.9600687813227,0.0
944,-0.17563177596433266,-0.03043470265367692,110.76564961908753,0.0
945,-0.1721778591322873,-0.0273027032713715,110.57141589884688,0.0
946,-0.16844534342444095,-0.02400652938313915,110.3776562078978,0.0
947,-0.16477515143129576,-0.02087117056289918,110.18465509764543,0.0
948,-0.1614628188548579,-0.01810595582968674,109.99269313314993,0.0
949,-0.15869486665557728,-0.015751827343830453,109.80204695672836,0.0
950,-0.15647962015203923,-0.013653502307671985,109.61298936508543,0.0
951,-0.15459233627958807,-0.011464536088574,109.42578939946705,0.0
952,-0.1525602690564344,-0.00868907943872661,109.24071244835118,0.0
953,-0.14970891140369946,-0.004758027577082201,109.0580203622139,0.0
954,-0.14527497231072706,0.0008697699497980001,108.87797157993431,0.0
955,-0.1385697233626788,0.00859699414020109,108.70082126642978,0.0
956,-0.12915710928959126,0.018587856770434175,108.52682146114172,0.0
957,-0.11700232238611784,0.030698700988403785,108.35622123702403,0.0
958,-0.10255122445856941,0.044455124800727885,108.18926686971815,0.0
959,-0.08671647693583263,0.05908344587500215,108.02620201663369,0.0
960,-0.07076715965863259,0.07359385734656589,107.86726790568842,0.0
961,-0.05613995460627097,0.08690211788843889,107.71270353349854,0.0
962,-0.04420802134687612,0.09796857654795081,107.56274587284881,0.0
963,-0.03605552428155425,0.10592977217844829,107.41763008931093,0.0
964,-0.032308095556953485,0.11019973821965982,107.27758976691943,0.0
965,-0.0330593191515369,0.11052509042179577,107.14285714285714,1.0
966,-0.03791020302188296,0.10698825800746052,107.00907943322618,0.0
967,-0.04610729639763537,0.0999642149842103,106.8719043614512,0.0
968,-0.056735729060277885,0.09004496624734008,106.73156291777318,0.0
969,-0.06890791564950455,0.07795065344878624,106.58828446477041,0.0
970,-0.08189442696612943,0.0644455535784316,106.44229661674312,0.0
971,-0.09516867857878684,0.05027207292608423,106.29382512954612,0.0
972,-0.1083707199351207,0.03610802408775671,106.14309380072156,0.0
973,-0.1212233064110258,0.02254460516661878,105.9903243797657,0.0
974,-0.13344531530906176,0.010076982313336542,105.83573648834802,0.0
975,-0.14470135623042618,-0.0009023165437263593,105.67954755028691,0.0
976,-0.15460764928366047,-0.01011470969137725,105.52197273107453,0.0
977,-0.16279187430826836,-0.01741395820854354,105.36322488673244,0.0
978,-0.1689865766376718,-0.02280802119652738,105.20351452177219,0.0
979,-0.17312598796343143,-0.02647596281170921,105.04304975602783,0.0
980,-0.17541522307124252,-0.02876962149083013,104.88203630012191,0.0
981,-0.1763471302998051,-0.03019147877088791,104.72067743932442,0.0
982,-0.17665370987123807,-0.03134511082457526,104.55917402556048,0.0
983,-0.1771944412636242,-0.0328614176045819,104.39772447732283,0.0
984,-0.17880103853726143,-0.03531059012176344,104.23652478724665,0.0
985,-0.18211306271013025,-0.03911457160670561,104.07576853710478,0.0
986,-0.18744549767471785,-0.04447620355319388,103.91564691998575,0.0
987,-0.19472288128837648,-0.05133886084758581,103.75634876942144,0.0
988,-0.2034952665370754,-0.05938475523078966,103.59806059523551,0.0
989,-0.21302657308397324,-0.0680726555503032,103.44096662589183,0.0
990,-0.22242656113646603,-0.07670836954013005,103.28524885712773,0.0
991,-0.23079124418991995,-0.08453564831393397,103.1310871066662,0.0
992,-0.23732313450583045,-0.09083231991387139,102.97865907481025,0.0
993,-0.24141623876937637,-0.09499674444327207,102.82814041073091,0.0
994,-0.24270374439829584,-0.09661267990338718,102.67970478427301,0.0
995,-0.24107396124145386,-0.09548542629706286,102.53352396311178,0.0
996,-0.23666127154956895,-0.09164755820428525,102.38976789510654,0.0
997,-0.2298158866175928,-0.08533761351295914,102.24860479570931,0.0
998,-0.22105329918207106,-0.0769589483015106,102.11020124029885,0.0
999,-0.21098531626711137,-0.06702804325729386,101.9747222613246,0.0
1000,-0.20024047527079955,-0.056121603011799984,101.84233145015811,0.0
1001,-0.18938937397168196,-0.0448299039934559,101.71319106356452,0.0
1002,-0.17889412679872183,-0.033720469209380086,101.58746213472024,0.0
1003,-0.1690960000378799,-0.023312107489030703,101.4653045887198,0.0
1004,-0.16024134458693498,-0.014055751583476831,101.34687736252937,0.0
1005,-0.15252900571789257,-0.006316491187746378,101.23233852936046,0.0
1006,-0.1461509275669704,-0.0003515245459310215,101.12184542745491,0.0
1007,-0.1412981692379477,0.0037184147784061344,101.01555479328822,0.0
1008,-0.13811812094874643,0.005941952316590986,100.91362289921645,0.0
1009,-0.1366305304128911,0.0065670383166798706,100.81620569561017,0.0
1010,-0.13663114431992027,0.006057039107190333,100.72345895753682,0.0
1011,-0.13762292717932512,0.005081193030266891,100.63553843607296,0.0
1012,-0.13881031822161374,0.004470511412723987,100.55260001434704,0.0
1013,-0.13917325365865119,0.005136422064715776,100.47479986843459,0.0
1014,-0.13761283620749235,0.00795773290801885,100.40229463324857,0.0
1015,-0.1331397946563919,0.0136498478830584,100.33524157358971,0.0
1016,-0.1250668074872353,0.022636480422440527,100.27379876054508,0.0
1017,-0.1131667708157084,0.034946698471913354,100.21812525344714,0.0
1018,-0.09776744799263469,0.050158158267921776,100.16838128763011,0.0
1019,-0.07976452067077205,0.06740101510196614,100.12472846824728,0.0
1020,-0.060547425971682826,0.08542735780845866,100.08732997044,0.0
1021,-0.04184464442635338,0.10273991029988126,100.05635074617837,0.0
1022,-0.025507128145874844,0.11776330838114905,100.03195773812405,0.0
1023,-0.013259995252014928,0.129033525067747,100.01432010089727,0.0
1024,-0.006461945194141441,0.1353775134034437,100.00360943016453,0.0
1025,-0.0059156409819844805,0.13605656855711132,100.0,1.0
1026,-0.011766267969515761,0.13085298756455588,100.00142015887114,0.0
1027,-0.023507720907646655,0.1200890690996649,100.00561594955644,0.0
1028,-0.04009009399130289,0.10457840168706381,100.01249066547977,0.0
1029,-0.0600974189741021,0.0855195711014895,100.02194798781433,0.0
1030,-0.08195086812246132,0.06435003026409945,100.0338919346531,0.0
1031,-0.1040950570691869,0.04258183053597514,100.048226812159,0.0
1032,-0.12514108745789412,0.021641071069920373,100.064857167659,0.0
1033,-0.14396081148348178,0.0027299660314428695,100.08368774465102,0.0
1034,-0.15974228326696505,-0.013274498399536337,100.10462343969604,0.0
1035,-0.17202026680439558,-0.025877079590793287,100.12756926117086,0.0
1036,-0.18068890854182593,-0.034973413359757836,100.15243028986137,0.0
1037,-0.18599306252011225,-0.04081440534004578,100.1791116413787,0.0
1038,-0.188488203751259,-0.04393305904004787,100.20751843038359,0.0
1039,-0.18896078488186102,-0.045044718367017324,100.23755573660824,0.0
1040,-0.18831064748556,-0.044934511319804506,100.26912857266655,0.0
1041,-0.1874103708478375,-0.044347168077791654,100.3021418536468,0.0
1042,-0.18696753190887874,-0.043893862823424445,100.33650036848366,0.0
1043,-0.18741987186359832,-0.04398800520382919,100.37210875310824,0.0
1044,-0.1888879618729505,-0.044817139023433004,100.40887146537712,0.0
1045,-0.19119613747669217,-0.04635200186402491,100.44669276178398,0.0
1046,-0.19395428898401862,-0.04838752830886705,100.4854766759587,0.0
1047,-0.19667645488224153,-0.05060547943082815,100.52512699896106,0.0
1048,-0.19890289134653572,-0.052645570469041336,100.56554726137743,0.0
1049,-0.2002938142689959,-0.05417199640660952,100.60664071723117,0.0
1050,-0.200674691928936,-0.054924925070614306,100.64831032971736,0.0
1051,-0.2000302658196823,-0.0547509643855068,100.69045875877576,0.0
1052,-0.19846096361652182,-0.05361155134323944,100.73298835051506,0.0
1053,-0.19612530133111095,-0.05157241234939204,100.77580112850345,0.0
1054,-0.19319214903888104,-0.048779862452311876,100.81879878694174,0.0
1055,-0.18981784099896895,-0.04543050614200925,100.86188268573449,0.0
1056,-0.186149033315946,-0.04174021739255531,100.9049538474766,0.0
1057,-0.182339149681261,-0.03791679839731361,100.94791295637235,0.0
1058,-0.17856014827558708,-0.03413913890120208,100.99066035910424,0.0
1059,-0.174995021217429,-0.0305444313537414,101.03309606766925,0.0
1060,-0.1718079794086251,-0.02722404894021805,101.07511976419956,0.0
1061,-0.16910285665296945,-0.024227768489937157,101.11663080778492,0.0
1062,-0.16688913427625535,-0.021574783593136863,101.15752824331315,0.0
1063,-0.16507466972310547,-0.019268326613235243,101.19771081234495,0.0
1064,-0.16349432849776419,-0.01730905488444652,101.23707696603752,0.0
1065,-0.1619680288263261,-0.015701392240046547,101.2755248801319,0.0
1066,-0.1603667392413939,-0.014447591909407576,101.31295247201668,0.0
1067,-0.1586575249042051,-0.013526934750940347,101.3492574198795,0.0
1068,-0.15690292682678605,-0.012862055020884085,101.38433718395709,0.0
1069,-0.15520512549340756,-0.012279914894250015,101.41808902989162,0.0
1070,-0.1536063204287458,-0.011479767792621047,101.45041005420052,0.0
1071,-0.15197630484650557,-0.010022677623460353,101.48119721186407,0.0
1072,-0.14992974905972165,-0.007355331740455502,101.51034734603287,0.0
1073,-0.14681476526491244,-0.0028745589888097955,101.5377572198552,0.0
1074,-0.14179911928827246,0.003970921070708927,101.56332355042144,0.0
1075,-0.13405281993883814,0.013556174206791935,101.58694304482023,0.0
1076,-0.12299242665063997,0.025957212475858783,101.60851243829707,0.0
1077,-0.10852427391884104,0.04085828574955875,101.62792853450476,0.0
1078,-0.09121253824420475,0.057515679360060745,101.64508824782953,0.0
1079,-0.07231033787256146,0.07479498513930297,101.65988864777535,0.0
1080,-0.053625819446413085,0.09128402080277297,101.67222700538322,0.0
1081,-0.037240403483480365,0.10546684662393521,101.68200084166054,0.0
1082,-0.0251392054188035,0.11592991599645432,101.68910797798954,0.0
1083,-0.018841216926045234,0.12156313685368737,101.69344658848136,0.0
1084,-0.019120442940402164,0.12171880357932495,101.69491525423729,1.0
1085,-0.025886490572469403,0.11630001333591992,101.68921049496309,0.0
1086,-0.038249441342370814,0.1057650370362441,101.67230354721443,0.0
1087,-0.05474204521672228,0.09105126983767776,101.64451065204028,0.0
1088,-0.07362944296951804,0.07343747086065007,101.60615450166829,0.0
1089,-0.09321778286785176,0.05437248354619596,101.55756356858058,0.0
1090,-0.11208447790526237,0.03530080940033079,101.49907144638082,0.0
1091,-0.12918873617412957,0.017510799388461187,101.43101620441112,0.0
1092,-0.14386641738445308,0.0020221809476805817,101.35373975792237,0.0
1093,-0.15575085534274108,-0.010480600103475568,101.26758725544536,0.0
1094,-0.16467821304898989,-0.019671202532571527,101.17290648485162,0.0
1095,-0.1706278972270315,-0.02556729430364678,101.07004729943644,0.0
1096,-0.17372048162122114,-0.028487770287219896,100.95936106520055,0.0
1097,-0.17425989456841573,-0.028988503098907995,100.84120013035404,0.0
1098,-0.17277906350475203,-0.027782437975473744,100.71591731791666,0.0
1099,-0.17004144512742236,-0.02564964826309423,100.58386544214446,0.0
1100,-0.16696821978324405,-0.02334454709020523,100.44539684937152,0.0
1101,-0.16449415556753716,-0.021510075922636263,100.30086298372349,0.0
1102,-0.16338851014485198,-0.02061070286266539,100.15061397803095,0.0
1103,-0.16409586740579102,-0.020895647524193012,99.9949982701508,0.0
1104,-0.16664869683016065,-0.022399800854664233,99.83436224479037,0.0
1105,-0.17068203482140212,-0.024982538427639756,99.66904990082298,0.0
1106,-0.17555063917000624,-0.02839566538579645,99.49940254398646,0.0
1107,-0.18052006270410226,-0.03236369458878084,99.32575850476482,0.0
1108,-0.18498170763603164,-0.03665531461083136,99.1484528811723,0.0
1109,-0.18863149329654905,-0.04112621927762145,98.96781730608323,0.0
1110,-0.1915550811030893,-0.045720837985883715,98.78417973868572,0.0
1111,-0.19418235925405355,-0.050432401222749,98.59786427957741,0.0
1112,-0.19711007162088043,-0.05523400003499871,98.40919100897045,0.0
1113,-0.20083722675387436,-0.06000380811823946,98.2184758474286,0.0
1114,-0.2054980671531042,-0.06447177158563355,98.02603043852184,0.0
1115,-0.21069292312678564,-0.06821083644746109,97.83216205275367,0.0
1116,-0.2154951777302479,-0.0706837215513185,97.63717351209249,0.0
1117,-0.2186551069847557,-0.07133954429603277,97.4413631344195,0.0
1118,-0.21894834943112712,-0.0697382775678253,97.2450246971949,0.0
1119,-0.21555802200628263,-0.06567033090695534,97.04844741963598,0.0
1120,-0.2083609587680711,-0.059237256970943064,96.85191596270006,0.0
1121,-0.19801921665403133,-0.05086855335142023,96.65571044616814,0.0
1122,-0.18584516803409912,-0.04126633477947311,96.46010648213219,0.0
1123,-0.17348437766298053,-0.03128929805875955,96.26537522420158,0.0
1124,-0.16251628198125842,-0.021803941017525065,96.07178343175877,0.0
1125,-0.15409147008613588,-0.013539447197081141,95.87959354861374,0.0
1126,-0.14870511453061677,-0.006980576187908528,95.68906379542842,0.0
1127,-0.14615973090779968,-0.0023211313961275515,95.50044827530769,0.0
1128,-0.14571303835683658,0.0005171414924948943,95.31399709198043,0.0
1129,-0.14635456351379697,0.001813605968703079,95.12995648002526,0.0
1130,-0.14712134242938685,0.0019524398072134977,94.94856894662595,0.0
1131,-0.1473568772559318,0.0013323238236630577,94.77007342437759,0.0
1132,-0.1468392559025217,0.0003083115980506007,94.5947054346989,0.0
1133,-0.1457471620904321,-0.000820912289009542,94.42269726144417,0.0
1134,-0.14448359180388337,-0.0017838036196767375,94.25427813434744,0.0
1135,-0.14342121404550512,-0.002283212095868851,94.08967442197138,0.0
1136,-0.14265717997598523,-0.0019473594371880142,93.92910983387543,0.0
1137,-0.1418616614494004,-0.000311624602535367,93.77280563176,0.0
1138,-0.14027498436337152,0.0031508746305981203,93.6209808493881,0.0
1139,-0.13686252243991834,0.008947248513717709,93.47385252113001,0.0
1140,-0.13058877448854458,0.01744572676595181,93.33163591902391,0.0
1141,-0.12073622010318434,0.02874753391084653,93.19454479829133,0.0
1142,-0.10718012971662165,0.04258406000982705,93.06279165129602,0.0
1143,-0.09054054321648644,0.058270498368090284,92.93658796998399,0.0
1144,-0.07216386056272606,0.07473528170096377,92.81614451689315,0.0
1145,-0.053930591964392226,0.09062722456268194,92.70167160487489,0.0
1146,-0.037931276333145914,0.10448390794647391,92.59337938572243,0.0
1147,-0.026087267274770964,0.11493036124420145,92.49147814795782,0.0
1148,-0.019807441852749304,0.12087020355906046,92.396178624087,0.0
1149,-0.01976163396633777,0.12163365646597016,92.3076923076923,1.0
1150,-0.025819052688730693,0.11705728137385954,92.22250694027743,0.0
1151,-0.03715385633839495,0.1074858273073253,92.13700507825877,0.0
1152,-0.052474056712139,0.09370292614940468,92.05124091480981,0.0
1153,-0.0702991409731173,0.07681037794028664,91.96526825595157,0.0
1154,-0.08920719965778964,0.058082563212469934,91.87914051871994,0.0
1155,-0.10799504870700191,0.0388222608053026,91.79291072997071,0.0
1156,-0.12573431472323812,0.02023806629797352,91.70663152581028,0.0
1157,-0.141745263030196,0.0033543877509281395,91.62035515164023,0.0
1158,-0.15553280214750723,-0.011044217546453915,91.53413346280448,0.0
1159,-0.16672953542737162,-0.02243925186462402,91.44801792582707,0.0
1160,-0.17507378994184816,-0.030582738063094514,91.36205962022885,0.0
1161,-0.18042735447142969,-0.03548683805816354,91.2763092409121,0.0
1162,-0.18281871990683848,-0.037402476594608484,91.19081710110159,0.0
1163,-0.1824882512909798,-0.03678739170256355,91.1056331358306,0.0
1164,-0.1799117611800718,-0.034261945507755596,91.02080690596163,0.0
1165,-0.17578540791143796,-0.03055126958221686,90.9363876027304,0.0
1166,-0.17096465187200383,-0.026414907885838182,90.8524240528033,0.0
1167,-0.16636113701595653,-0.0225691707369648,90.76896472383727,0.0
1168,-0.1628123929822905,-0.019611450764647455,90.68605773053321,0.0
1169,-0.16094849160960945,-0.017958186707025346,90.60375084117219,0.0
1170,-0.16108500381777086,-0.017807788788328963,90.52209148462589,0.0
1171,-0.1631705277473925,-0.01913624458933335,90.44112675783194,0.0
1172,-0.16680827603126325,-0.021726877839571983,90.36090343372567,0.0
1173,-0.17135485587920538,-0.025228313911293095,90.28146796961968,0.0
1174,-0.17607793645186492,-0.029228139941228908,90.20286651602403,0.0
1175,-0.18033366901727296,-0.03332602748379803,90.12514492589878,0.0
1176,-0.1837128758237373,-0.03719053150712918,90.04834876433237,0.0
1177,-0.18610975700733953,-0.04058853679948051,89.97252331863892,0.0
1178,-0.1876899605842575,-0.043384194704586876,89.89771360886859,0.0
1179,-0.18876946978614778,-0.045512915580472456,89.82396439872481,0.0
1180,-0.18964857827191398,-0.04694289892601946,89.75132020688363,0.0
1181,-0.19046255212726282,-0.0476396143269763,89.67982531871024,0.0
1182,-0.19110471125410144,-0.047546649830377215,89.60952379836814,0.0
1183,-0.1912503876271168,-0.04659007541683198,89.54045950131786,0.0
1184,-0.19047215037814358,-0.044704990021428664,89.4726760872013,0.0
1185,-0.18840291700633474,-0.04187501126562551,89.40621703310958,0.0
1186,-0.184887359348235,-0.038170685515857554,89.34112564723198,0.0
1187,-0.1800690899597802,-0.03377262712942898,89.27744508288457,0.0
1188,-0.17438712892778527,-0.028969593809785345,89.2152183529174,0.0
1189,-0.16848788522936103,-0.024129171103559326,89.15448834450018,0.0
1190,-0.1630845654966604,-0.01964687502643475,89.09529783428626,0.0
1191,-0.15880624408687738,-0.01588579154056729,89.03768950395599,0.0
1192,-0.15607428917583,-0.013121523803696772,88.98170595614103,0.0
1193,-0.155031218250075,-0.01150553817325542,88.92738973073152,0.0
1194,-0.1555332987027024,-0.011054586424344651,88.8747833215691,0.0
1195,-0.15720585352837163,-0.011666371220031845,88.82392919352893,0.0
1196,-0.15954798682819435,-0.01315420849780307,88.77486979999519,0.0
1197,-0.16206065442367268,-0.01528828076753801,88.72764760073494,0.0
1198,-0.16436210783834657,-0.017829710732417455,88.6823050801756,0.0
1199,-0.16625402684597704,-0.020546604250431418,88.63888476609253,0.0
1200,-0.1677143595809167,-0.023207670620591127,88.59742924871426,0.0
1201,-0.16881693790953964,-0.02555719841872461,88.5579812002524,0.0
1202,-0.16960481420339266,-0.027282614636868454,88.52058339486578,0.0
1203,-0.16996296449999634,-0.027990243303676575,88.48527872906782,0.0
1204,-0.16953847763895907,-0.02720466591960441,88.45211024258765,0.0
1205,-0.167741518528958,-0.02440201921862741,88.42112113969641,0.0
1206,-0.16383454783845441,-0.019078795466742345,88.39235481101065,0.0
1207,-0.15709075488866128,-0.010847479114472296,88.36585485578608,0.0
1208,-0.14698418659057108,0.0004586234340535206,88.34166510471579,0.0
1209,-0.133367170346563,0.014694273543615993,88.31982964324787,0.0
1210,-0.1165938563447477,0.03134783128218453,88.30039283543857,0.0
1211,-0.09755876785663543,0.049540831126626564,88.28339934835837,0.0
1212,-0.07763406403302135,0.06808903849577624,88.26889417706892,0.0
1213,-0.05850816204495576,0.08562017209092407,88.25692267019039,0.0
1214,-0.0419500074232323,0.10073168996818173,88.2475305560802,0.0
1215,-0.0295431806616978,0.11216339760718244,88.24076396964426,0.0
1216,-0.022445180782910728,0.11895611777588772,88.23666947980455,0.0
1217,-0.02122355644080883,0.12057004128141932,88.23529411764706,1.0
1218,-0.025801162864738502,0.11694404238052963,88.23710109178238,0.0
1219,-0.03551381979094588,0.10848836504575976,88.24246710048806,0.0
1220,-0.0492557988668974,0.09601512243104537,88.25131038913993,0.0
1221,-0.06567181851093173,0.08062141556384134,88.2635499722481,0.0
1222,-0.08335257563545857,0.06354657959835577,88.279105569951,0.0
1223,-0.10100108945954932,0.04602713161279108,88.2978975463901,0.0
1224,-0.11755193968732389,0.029170559643428816,88.3198468498957,0.0
1225,-0.1322381983133881,0.013863211635358887,88.34487495491898,0.0
1226,-0.14460872528676336,0.000719808455746429,88.37290380565086,0.0
1227,-0.1545027361353352,-0.009925768410093808,88.40385576127196,0.0
1228,-0.16199190481612127,-0.017995294234122716,88.43765354278332,0.0
1229,-0.16730407016355558,-0.023617678842668705,88.474220181371,0.0
1230,-0.17074551473036662,-0.02706955716836022,88.51347896826208,0.0
1231,-0.172638133619616,-0.028716236122860773,88.55535340603367,0.0
1232,-0.17328239521824057,-0.02896110756330107,88.59976716133957,0.0
1233,-0.17294841872696043,-0.028207589658508767,88.646644019024,0.0
1234,-0.17188894534776208,-0.026833795963999794,88.69590783759392,0.0
1235,-0.1703619626261309,-0.025177371830684685,88.7474825060262,0.0
1236,-0.16864820320400245,-0.023526794765605007,88.80129190188785,0.0
1237,-0.16705003877292482,-0.02211589347203801,88.85725985075209,0.0
1238,-0.165864128527622,-0.02111987823906719,88.91531008689421,0.0
1239,-0.16533079326471134,-0.020652945790270865,88.9753662152563,0.0
1240,-0.16557612646511138,-0.020768652657523617,89.03735167467077,0.0
1241,-0.1665723612903783,-0.021464185676771556,89.10118970233663,0.0
1242,-0.16814073065347956,-0.02268841072456871,89.16680329954451,0.0
1243,-0.17000570242750573,-0.02435178644959872,89.23411519864932,0.0
1244,-0.17188509366490254,-0.026334920140910358,89.30304783129165,0.0
1245,-0.17357957723080344,-0.028492694457911937,89.37352329787149,0.0
1246,-0.17502030823010822,-0.03065291884731946,89.44546333828036,0.0
1247,-0.1762495854405368,-0.03261187713815696,89.51878930390002,0.0
1248,-0.17733969211090872,-0.03413262214863831,89.59342213087778,0.0
1249,-0.17828470167012747,-0.03495368483978792,89.66928231469143,0.0
1250,-0.17891530429049096,-0.03481461981221547,89.74628988601728,0.0
1251,-0.17888146192418622,-0.03350011602100446,89.82436438791866,0.0
1252,-0.17772461101842651,-0.030897253096294514,89.90342485437213,0.0
1253,-0.1750285791477313,-0.02705309479113188,89.98338979015179,0.0
1254,-0.17060674022039932,-0.02221496239072865,90.06417715209285,0.0
1255,-0.16466228453538911,-0.016835805541555372,90.14570433175805,0.0
1256,-0.15785684147870815,-0.011533128732433074,90.22788813953086,0.0
1257,-0.15124353184320685,-0.007001060038527206,90.31064479016177,0.0
1258,-0.14606025182907592,-0.0038885916348085515,90.39388988979492,0.0
1259,-0.1434264431028531,-0.002668806091017323,90.4775384245032,0.0
1260,-0.1440258212515879,-0.0035300523500621343,90.56150475036138,0.0
1261,-0.14787317134651454,-0.006317908670125128,90.64570258508772,0.0
1262,-0.1542466664494604,-0.010546087384747216,90.73004500128526,0.0
1263,-0.16182046812547346,-0.015477611330651722,90.81444442131478,0.0
1264,-0.16896961840857902,-0.02025918188447128,90.89881261383177,0.0
1265,-0.17416228271609682,-0.024077056008633066,90.98306069202087,0.0
1266,-0.17632461179448963,-0.026296505053033395,91.06709911356086,0.0
1267,-0.17507207188838567,-0.02655125633680427,91.15083768235367,0.0
1268,-0.1707438649248249,-0.024763297984676302,91.23418555205127,0.0
1269,-0.1642373886502302,-0.02109317520002622,91.31705123141396,0.0
1270,-0.15669734512847824,-0.015840688874972256,91.39934259153301,0.0
1271,-0.1491535076019188,-0.009329842155159956,91.48096687495091,0.0
1272,-0.1422142739847476,-0.0018157031935661944,91.56183070671116,0.0
1273,-0.1359080930740691,0.0065567727720343034,91.6418401073695,0.0
1274,-0.12972440851685452,0.015728931359443202,91.72090050799672,0.0
1275,-0.12284799420662275,0.025648049583994213,91.79891676720304,0.0
1276,-0.11451977901571421,0.036158324713643476,91.87579319021181,0.0
1277,-0.10441197003417754,0.04690259017078937,91.9514335500098,0.0
1278,-0.09289227670153755,0.057273718626093775,92.0257411105985,0.0
1279,-0.08107939629186747,0.06644203341924242,92.09861865237023,0.0
1280,-0.07065430144269635,0.07346351048684432,92.16996849962982,0.0
1281,-0.06347036029018262,0.07744924809534394,92.23969255028074,0.0
1282,-0.06107290351472606,0.07775675452804875,92.3076923076923,1.0
1283,-0.06427074603230373,0.07415405808760955,92.37509948628448,0.0
1284,-0.07288682312743291,0.06691151851768429,92.44309832690439,0.0
1285,-0.0857593905760413,0.0567926753638884,92.5116687674118,0.0
1286,-0.10099039961100774,0.04494006923562969,92.58079063744223,0.0
1287,-0.11636900587271806,0.0326780347780246,92.65044365563534,0.0
1288,-0.12985530833956652,0.02127503353655366,92.72060742694065,0.0
1289,-0.14000132552314912,0.01171789763164484,92.79126144000273,0.0
1290,-0.14621116157330286,0.0045471686686485244,92.86238506462637,0.0
1291,-0.14879024439653996,-0.00021220244636495876,92.93395754932308,0.0
1292,-0.1487895376705765,-0.003012996232097819,93.00595801894045,0.0
1293,-0.14769925711127319,-0.004653104999115134,93.07836547237515,0.0
1294,-0.14707625124027768,-0.006080639289327809,93.15115878037146,0.0
1295,-0.14819504547568638,-0.008180825496110957,93.22431668340634,0.0
1296,-0.1517966327385798,-0.011589824054624217,93.29781778966256,0.0
1297,-0.1579780957388787,-0.016571781400533083,93.37164057309178,0.0
1298,-0.16622900604449062,-0.02297957137700711,93.44576337156843,0.0
1299,-0.17558684206193617,-0.03030090757673186,93.52016438513631,0.0
1300,-0.1848618340401439,-0.037774118405014254,93.59482167434993,0.0
1301,-0.1928762365054631,-0.044545355501846434,93.66971315871133,0.0
1302,-0.19867232555469555,-0.04983337164798556,93.74481661520493,0.0
1303,-0.20166003491062884,-0.053069602953198965,93.82010967693168,0.0
1304,-0.20169063407250845,-0.05398899285326089,93.89556983184437,0.0
1305,-0.19905324905469973,-0.052658653388552606,93.97117442158593,0.0
1306,-0.19439847392283185,-0.04944445265058319,94.04690064043247,0.0
1307,-0.18860221974184563,-0.04492737097858987,94.12272553434306,0.0
1308,-0.18259440830803003,-0.0397898745139293,94.19862600011795,0.0
1309,-0.1771870757570587,-0.034696286950567395,94.27457878466726,0.0
1310,-0.17293889829872938,-0.03018984808022538,94.35056048439189,0.0
1311,-0.17008499090619256,-0.026623495679462445,94.42654754467893,0.0
1312,-0.16854397825557854,-0.02413292426896463,94.50251625951324,0.0
1313,-0.16799415318722072,-0.022651207005058214,94.57844277120722,0.0
1314,-0.16799296221713558,-0.02195629599640541,94.65430307025085,0.0
1315,-0.16810389990680197,-0.021737650892366702,94.73007299528395,0.0
1316,-0.16799534646835693,-0.021666839666036004,94.80572823319274,0.0
1317,-0.16748777063271666,-0.021458965564166592,94.88124431933262,0.0
1318,-0.1665459168425968,-0.020916111016805475,94.95659663787926,0.0
1319,-0.16523334392909977,-0.019949121628540307,95.03176042230994,0.0
1320,-0.16365826074354156,-0.01857852797020029,95.10671075601729,0.0
1321,-0.16193611803729707,-0.016918294491303745,95.18142257305729,0.0
1322,-0.16017850235300987,-0.015147210985365828,95.25587065903369,0.0
1323,-0.15849964110740217,-0.013472574276591933,95.3300296521207,0.0
1324,-0.15702203789696095,-0.012090143292631736,95.40387404422596,0.0
1325,-0.15586571933802484,-0.011143907513753003,95.47737818229585,0.0
1326,-0.1551172670758106,-0.010689325495438294,95.55051626976491,0.0
1327,-0.1547869429546794,-0.010664238055022954,95.62326236815137,0.0
1328,-0.15476826471337407,-0.010872165610508442,95.69559039880075,0.0
1329,-0.15481311874287926,-0.010982581784103386,95.76747414477916,0.0
1330,-0.154530267742984,-0.010551575399676974,95.83888725291835,0.0
1331,-0.15341032248753708,-0.009063935326616958,95.9098032360141,0.0
1332,-0.15087779861042275,-0.005994348854575785,95.9801954751796,0.0
1333,-0.14636911862728288,-0.0008816597106907683,96.05003722235614,0.0
1334,-0.139431171755401,0.006593223113109201,96.11930160298155,0.0
1335,-0.12982714053325073,0.016537295025426613,96.18796161881917,0.0
1336,-0.11762769455130936,0.028795035087493974,96.25599015094815,0.0
1337,-0.10326203390398621,0.04292730262787273,96.32335996291657,0.0
1338,-0.08750902753822638,0.05822523011852246,96.39004370405924,0.0
1339,-0.07142343525326975,0.07375950661197113,96.45601391298075,0.0
1340,-0.05621053527053974,0.08846001087769714,96.52124302120575,0.0
1341,-0.043076950262333394,0.1012163117529901,96.5857033569969,0.0
1342,-0.033090334372465245,0.11098693912569134,96.64936714934215,0.0
1343,-0.02707428890112664,0.11690482173971266,96.71220653211188,0.0
1344,-0.02555039307963073,0.11836757584884931,96.7741935483871,1.0
1345,-0.028722640993894166,0.1151036994552451,96.83632283518166,0.0
1346,-0.03648757648584534,0.10720840722496755,96.8995632396559,0.0
1347,-0.048450851998321956,0.09514533758558975,96.96384783806212,0.0
1348,-0.06393890842108767,0.0797126494124449,97.02910940533346,0.0
1349,-0.08200953242094462,0.06197448120841384,97.09528040023298,0.0
1350,-0.10147988386024974,0.043161862344741835,97.16229295139,0.0
1351,-0.12099664948806767,0.024551142045330716,97.2300788442338,0.0
1352,-0.13916452175617766,0.007332422047401959,97.29856950883516,0.0
1353,-0.15472689649584892,-0.007515740202834253,97.36769600866737,0.0
1354,-0.16676471253688474,-0.019327408963204395,97.43738903029912,0.0
1355,-0.1748588438007207,-0.027809868104300514,97.50757887403174,0.0
1356,-0.17916065059083644,-0.03305300585056223,97.57819544549487,0.0
1357,-0.18033870242786515,-0.03548538830240744,97.64916824821421,0.0
1358,-0.17940993720772844,-0.03578479386050776,97.72042637716628,0.0
1359,-0.1775036141884682,-0.0347595903458367,97.79189851333503,0.0
1360,-0.1756281982739511,-0.03322239345279254,97.86351291928614,0.0
1361,-0.17450531461883365,-0.031877654197545124,97.93519743577455,0.0
1362,-0.17450514619604954,-0.03124032455140708,98.00687947940143,0.0
1363,-0.17567869722418342,-0.031595024482835826,98.07848604133721,0.0
1364,-0.17785137643264012,-0.03299642575194862,98.14994368712672,0.0
1365,-0.18073093112778119,-0.03530409192994121,98.22117855759356,0.0
1366,-0.18399231264260982,-0.03824026273986741,98.29211637085996,0.0
1367,-0.18732446477647233,-0.041457486745953155,98.3626824254989,0.0
1368,-0.19044660803575406,-0.04460408953561554,98.43280160483506,0.0
1369,-0.19311368435885692,-0.04737819458975614,98.50239838241055,0.0
1370,-0.19512844390981587,-0.04956435516366316,98.57139682863202,0.0
1371,-0.19636513824197455,-0.051050113251675584,98.63972061861415,0.0
1372,-0.19679557091812383,-0.05182271127688466,98.7072930412353,0.0
1373,-0.19650074061095513,-0.05194875363167896,98.77403700941976,0.0
1374,-0.1956543912057286,-0.05154187359656218,98.83987507166104,0.0
1375,-0.1944763798458655,-0.05072524751068271,98.90472942479916,0.0
1376,-0.19316762036714874,-0.04959674144234286,98.96852192806533,0.0
1377,-0.1918476530071101,-0.04820414290811826,99.03117411840539,0.0
1378,-0.1905165405251279,-0.046536066805728006,99.09260722709296,0.0
1379,-0.18905479754728005,-0.04453085831838777,99.15274219764252,0.0
1380,-0.18726199322074782,-0.042101718859024265,99.2114997050307,0.0
1381,-0.18492190211658657,-0.03917225900283683,99.26880017623375,0.0
1382,-0.1818744271448052,-0.03571372600146949,99.32456381208705,0.0
1383,-0.17807405583445565,-0.031774055956865555,99.37871061047186,0.0
1384,-0.1736199623083978,-0.027490033899204062,99.43116039083233,0.0
1385,-0.16875070229279235,-0.02307706312658562,99.48183282002458,0.0
1386,-0.16380404649417443,-0.018795728118885958,99.53064743949797,0.0
1387,-0.1591490284331727,-0.01489953995107073,99.57752369380675,0.0
1388,-0.15510282958692168,-0.011572920395719654,99.62238096044858,0.0
1389,-0.15184903842832087,-0.008871648157686261,99.6651385810243,0.0
1390,-0.14937460512436274,-0.006678969012526438,99.70571589371114,0.0
1391,-0.1474396112626909,-0.004689061753333602,99.74403226704027,0.0
1392,-0.1455876608537736,-0.0024256852800849903,99.78000713496573,0.0
1393,-0.14319733004430507,0.0007018600667168529,99.81356003321142,0.0
1394,-0.13956860754479022,0.005309997136106099,99.84461063687904,0.0
1395,-0.13403371196742114,0.011930514762436253,99.87307879929783,0.0
1396,-0.12607931191887478,0.020895176555613244,99.89888459209479,0.0
1397,-0.11546626831183686,0.03223508368451874,99.92194834646087,0.0
1398,-0.1023319431220177,0.04561468201204877,99.9421906955864,0.0
1399,-0.08725744275752667,0.060316807770404754,99.95953261823628,0.0
1400,-0.07127866679654192,0.07528811650467519,99.97389548343237,0.0
1401,-0.05581988009782513,0.08924439138309989,99.98520109620826,0.0
1402,-0.04253750064117911,0.10082410267774283,99.99337174439789,0.0
1403,-0.033082698388023614,0.10876834504967249,99.99833024641804,0.0
1404,-0.0288198716589587,0.11209830509988539,100.0,1.0
1405,-0.030562748850894772,0.11025972709211165,99.99867097837505,0.0
1406,-0.03839775707370475,0.1032084307936604,99.99474286130494,0.0
1407,-0.051648066316961797,0.09142126149577265,99.98830435375389,0.0
1408,-0.06899434090789595,0.07583082138336944,99.97944450235875,0.0
1409,-0.08872249946641735,0.057696741345157426,99.96825265163763,0.0
1410,-0.10903198076995992,0.03843767227827852,99.95481840168117,0.0
1411,-0.12832419493054165,0.01945395541868716,99.9392315673552,0.0
1412,-0.14540434175024716,0.001969990582860865,99.92158213904086,0.0
1413,-0.15956348643856777,-0.013081576019196836,99.90196024493434,0.0
1414,-0.17054730194458667,-0.025122290711362787,99.8804561149264,0.0
1415,-0.17844879448092643,-0.03393663163821769,99.85716004607893,0.0
1416,-0.18357587607769787,-0.039635838540001134,99.83216236971252,0.0
1417,-0.18633941355070763,-0.042590895227469235,99.80555342011769,0.0
1418,-0.18718787670616396,-0.043349825841485716,99.77742350489845,0.0
1419,-0.18658914098486185,-0.04255232610793405,99.74786287695598,0.0
1420,-0.18503808138056244,-0.04085102181325457,99.71696170811735,0.0
1421,-0.18305882980770272,-0.038844977636263066,99.68481006441189,0.0
1422,-0.18117692291738627,-0.03702851559943603,99.65149788299672,0.0
1423,-0.1798559945370514,-0.035757113069247476,99.61711495073038,0.0
1424,-0.17941668424971924,-0.035231562203143565,99.58175088439215,0.0
1425,-0.1799704067703501,-0.03550081519200608,99.54549511254298,0.0
1426,-0.18139969123667016,-0.03648237964982097,99.5084368590229,0.0
1427,-0.1833999562487817,-0.03799674663796862,99.47066512807773,0.0
1428,-0.18557263106659735,-0.03980977179923567,99.43226869110774,0.0
1429,-0.18753803374514919,-0.04167519838136264,99.39333607502854,0.0
1430,-0.1890280902564083,-0.04336950185685051,99.35395555223538,0.0
1431,-0.18992739324070435,-0.04471327402717131,99.31421513215913,0.0
1432,-0.19025248496614422,-0.04557700447679366,99.27420255440346,0.0
1433,-0.19008436172434628,-0.04587328081545215,99.23400528345083,0.0
1434,-0.1894871692895481,-0.04554081945292263,99.19371050492514,0.0
1435,-0.18844907801758104,-0.04452734480911698,99.15340512339846,0.0
1436,-0.18686851037554159,-0.04277780514456163,99.11317576172885,0.0
1437,-0.1845870595293458,-0.040232140564631924,99.07310876191679,0.0
1438,-0.18145049426502793,-0.03683371798889774,99.03329018746636,0.0
1439,-0.17737012882670658,-0.03254664327217331,98.9938058272399,0.0
1440,-0.17236109445974113,-0.027378180739596213,98.95474120079204,0.0
1441,-0.16654767495126427,-0.021401667482418094,98.91618156517238,0.0
1442,-0.16014142145030047,-0.014775342535150568,98.87821192318394,0.0
1443,-0.15340814946949782,-0.007752941064538043,98.84091703308727,0.0
1444,-0.14664114201195108,-0.0006823630541852935,98.80438141973903,0.0
1445,-0.1401502616418597,0.006010808426792216,98.76868938715572,0.0
1446,-0.13426441066143943,0.011857342048140467,98.73392503249357,0.0
1447,-0.12933395261752978,0.016396637156612322,98.70017226143705,0.0
1448,-0.12571558136771038,0.019244947596442255,98.66751480498857,0.0
1449,-0.12372689326948315,0.020173053825215302,98.63603623765454,0.0
1450,-0.12356980684055606,0.019182180417980556,98.60581999702276,0.0
1451,-0.12523609675067554,0.016562996403170646,98.57694940472852,0.0
1452,-0.12841910025516706,0.012920834930924552,98.54950768880758,0.0
1453,-0.132459616195641,0.009152145797082522,98.52357800743619,0.0
1454,-0.13635095881948486,0.006363308589141817,98.49924347405971,0.0
1455,-0.13882001476771474,0.00573293275327456,98.47658718391304,0.0
1456,-0.13848964098693536,0.008331155365805707,98.45569224193846,0.0
1457,-0.13411273169618518,0.01492172032695686,98.43664179210741,0.0
1458,-0.12484904216029268,0.025781725925586963,98.41951904815589,0.0
1459,-0.11053417562954634,0.04057692995026868,98.40440732574477,0.0
1460,-0.09187285359151755,0.05832541930016177,98.39139007605814,0.0
1461,-0.07048640063639902,0.07746900709511856,98.3805509208562,0.0
1462,-0.048766106391111785,0.0960517878967579,98.37197368900067,0.0
1463,-0.02952962303508383,0.11198278393303415,98.36574245447405,0.0
1464,-0.015534823456150038,0.12333977382734443,98.3619415759162,0.0
1465,-0.008955062819029972,0.12865943651438355,98.36065573770492,1.0
1466,-0.010943126398732569,0.12715859325146045,98.36123260384008,0.0
1467,-0.021398175270305325,0.11884357082707236,98.36295449975853,0.0
1468,-0.03900180466439262,0.1044872323976323,98.3658084303402,0.0
1469,-0.06151799779505895,0.08548084751875398,98.36978147620668,0.0
1470,-0.08627820045694906,0.06359396138648674,98.37486079075275,0.0
1471,-0.11072133645457108,0.04069333871411254,98.3810335972244,0.0
1472,-0.132848068208664,0.018477598161591304,98.38828718584195,0.0
1473,-0.15148289477439197,-0.0017236311809928975,98.39660891096725,0.0
1474,-0.1663029088011902,-0.019055701683307377,98.40598618831405,0.0
1475,-0.17766290111184607,-0.0331436749858798,98.41640649220103,0.0
1476,-0.18629830449581064,-0.04401233176820638,98.42785735284583,0.0
1477,-0.19300649733628894,-0.051954399536247226,98.44032635369996,0.0
1478,-0.19839391301483086,-0.057386377980750684,98.45380112882334,0.0
1479,-0.20274242048323907,-0.06072738702907569,98.46826936029798,0.0
1480,-0.20600796943687855,-0.06232439277189519,98.48371877567985,0.0
1481,-0.20792905401287118,-0.06243108389636672,98.50013714548814,0.0
1482,-0.2081984965337393,-0.061232213344022235,98.51751228073155,0.0
1483,-0.20664159794083437,-0.058894290589955635,98.53583203047066,0.0
1484,-0.2033468896797382,-0.05561935298862075,98.55508427941577,0.0
1485,-0.19871143516497863,-0.051681347600860655,98.57525694555966,0.0
1486,-0.19338813613954947,-0.04743272554475382,98.59633797784485,0.0
1487,-0.18815230768685817,-0.04327927185751476,98.61831535386432,0.0
1488,-0.1837303467140872,-0.039630754079886074,98.64117707759567,0.0
1489,-0.18064516022325366,-0.03684110888641103,98.66491117716801,0.0
1490,-0.1791252913995727,-0.035153363161633366,98.6895057026609,0.0
1491,-0.17909945093359125,-0.03466162034662932,98.71494872393521,0.0
1492,-0.1802658092035921,-0.03529681383741219,98.74122832849535,0.0
1493,-0.18219993213870947,-0.03683670072011028,98.76833261938214,0.0
1494,-0.184457172327229,-0.038935684001083645,98.7962497130966,0.0
1495,-0.18663658915003126,-0.04116759945028202,98.8249677375535,0.0
1496,-0.18839708109808898,-0.04307458369120552,98.85447483006494,0.0
1497,-0.18944057887937513,-0.0442166707055535,98.88475913535338,0.0
1498,-0.18949106181990602,-0.044218601352382564,98.91580880359366,0.0
1499,-0.18829643858219272,-0.04281145796818063,98.94761198848411,0.0
1500,-0.18566471222123596,-0.03986676528459043,98.98015684534606,0.0
1501,-0.18152427051923992,-0.0354199417861801,99.0134315292519,0.0
1502,-0.17598153639315142,-0.02967920802646396,99.04742419318107,0.0
1503,-0.16934640273277554,-0.023016065976690606,99.08212298620408,0.0
1504,-0.16210854110706083,-0.01593472958903144,99.1175160516943,0.0
1505,-0.15486877652072456,-0.009020385454028397,99.15359152556705,0.0
1506,-0.14824737431263707,-0.002869446944481128,99.19033753454647,0.0
1507,-0.14279583074162236,0.0019915990149552004,99.22774219445937,0.0
1508,-0.13892931856602633,0.005189160351641346,99.26579360855622,0.0
1509,-0.13688064985598744,0.006575636997487332,99.30447986585936,0.0
1510,-0.13666465620921808,0.006280135499704093,99.34378903953802,0.0
1511,-0.13804255329736503,0.00472512302301434,99.38370918531031,0.0
1512,-0.14048962465967837,0.0026002515359778433,99.42422833987199,0.0
1513,-0.1431882047960662,0.0007898409916300975,99.46533451935206,0.0
1514,-0.14507843423763758,0.00025793000891078874,99.5070157177952,0.0
1515,-0.14499110971839402,0.0019034429222911896,99.54925990567082,0.0
1516,-0.14185930578992587,0.006406135975562246,99.59205502840928,0.0
1517,-0.13496920830670092,0.014089344965078653,99.63538900496432,0.0
1518,-0.12418334500651358,0.024826118229758984,99.67924972640309,0.0
1519,-0.11006567795439963,0.038010002948960404,99.72362505452244,0.0
1520,-0.09386126865808131,0.05260101494741169,99.76850282049269,0.0
1521,-0.07732432278717731,0.0672432460381192,99.81387082352823,0.0
1522,-0.062431277102108114,0.08043638471307171,99.85971682958541,0.0
1523,-0.05104548135178142,0.09073263112848125,99.9060285700877,0.0
1524,-0.04460946918334901,0.09692578215170228,99.95279374067822,0.0
1525,-0.043930307628846456,0.09820176713235099,100.0,1.0
1526,-0.04909834234147149,0.09422883731940468,100.05390722796407,0.0
1527,-0.05954636469984245,0.08517849128642285,100.1204743465746,0.0
1528,-0.07422169302826787,0.07168166154677641,100.19924278761601,0.0
1529,-0.09181600090031034,0.05473536424649392,100.28976003506214,0.0
1530,-0.11098582069942792,0.03558062273119257,100.39157850264478,0.0
1531,-0.1305065117030528,0.01557237731346964,100.50425446021733,0.0
1532,-0.1493326013420195,-0.003942591921872487,100.62734700587048,0.0
1533,-0.16657712760810137,-0.021730578103285762,100.76041708117631,0.0
1534,-0.1814556388257332,-0.03675584849389891,100.90302652733261,0.0
1535,-0.19325213953595835,-0.04824630593436278,101.05473718035051,0.0
1536,-0.20134861882832977,-0.0557409072501428,101.21511000378149,0.0
1537,-0.20532340953745934,-0.05911752726148142,101.38370425781358,0.0
1538,-0.2050833821975198,-0.05859710672342963,101.5600767038874,0.0
1539,-0.2009703554079974,-0.05471873910152111,101.74378084428622,0.0
1540,-0.19378510089587533,-0.04828228616551121,101.93436619644918,0.0
1541,-0.18470097562704632,-0.04026021311093933,102.13137760203678,0.0
1542,-0.17507941707364855,-0.031687187378304976,102.33435457104927,0.0
1543,-0.16623378874046896,-0.023542260460035443,102.54283066155907,0.0
1544,-0.15920438008220125,-0.016641802240356912,102.75633289586952,0.0
1545,-0.1546026468708286,-0.011560319122576145,102.97438121415234,0.0
1546,-0.15256088952558847,-0.008590835349486979,103.19648796684811,0.0
1547,-0.1527922058972283,-0.007748091333320852,103.4221574473336,0.0
1548,-0.1547341743047174,-0.008808828454206902,103.65088546656888,0.0
1549,-0.157727618614342,-0.011376461098272006,103.88215897163477,0.0
1550,-0.16117556943589412,-0.0149543649489726,104.11545571025376,0.0
1551,-0.16463892519909148,-0.019013423576320715,104.35024394355753,0.0
1552,-0.16785062276812138,-0.023044516499844302,104.58598220951608,0.0
1553,-0.17066081293128038,-0.02659333955130134,104.822119139579,0.0
1554,-0.17295027422339665,-0.029280960183378477,105.05809333119443,0.0
1555,-0.17455809937714453,-0.03081687998845194,105.29333327896326,0.0
1556,-0.17525901008040468,-0.031011214040291068,105.5272573672565,0.0
1557,-0.17480093113446013,-0.029789312036563154,105.75927392716429,0.0
1558,-0.172986457908811,-0.02720723070466201,105.98878136065993,0.0
1559,-0.16976433011415495,-0.023461916942935215,106.21516833484219,0.0
1560,-0.16529483579100127,-0.01888757766876547,106.43781404906818,0.0
1561,-0.15996427243874953,-0.013930527352782674,106.65608857769891,0.0
1562,-0.1543410367731012,-0.009098807906396477,106.86935329105249,0.0
1563,-0.14908203415426727,-0.004889085312932331,107.07696135698892,0.0
1564,-0.14480863691937168,-0.0017001200615831998,107.27825832533875,0.0
1565,-0.14197608258493533,0.0002523239544406086,107.47258279712796,0.0
1566,-0.14076072909178228,0.001001475077621286,107.65926718024568,0.0
1567,-0.14098742940080064,0.0008597334508489698,107.83763853284759,0.0
1568,-0.14211469428023923,0.00040114109859398436,108.00701949538308,0.0
1569,-0.14328787128390041,0.00039229468477959377,108.16672931168193,0.0
1570,-0.14346018386339857,0.0016777115055866456,108.31608493903292,0.0
1571,-0.14156892110477937,0.005035425696729377,108.45440224663662,0.0
1572,-0.1367411496748805,0.011026205856687309,108.58099730121624,0.0
1573,-0.12849280882392272,0.019863443372805677,108.69518773792883,0.0
1574,-0.11688023800759553,0.0313293263566705,108.7962942140366,0.0
1575,-0.10256688714208405,0.04475623996149995,108.8836419420775,0.0
1576,-0.08678125540385861,0.05908140069851771,108.95656229852419,0.0
1577,-0.071163414794591,0.07296953822838059,109.01439450314273,0.0
1578,-0.05752241343242708,0.08498562552264355,109.05648736346596,0.0
1579,-0.04754911600459441,0.09378994015137954,109.08220107799234,0.0
1580,-0.04254214161558446,0.09832325372709698,109.09090909090908,1.0
1581,-0.04320384850880972,0.09795171068004184,109.09090909090908,0.0
1582,-0.04954765683137364,0.09254858469717689,109.09090909090908,0.0
1583,-0.060930828401879904,0.08250187728233078,109.09090909090908,0.0
1584,-0.07619601115693411,0.06865004016208409,109.09090909090908,0.0
1585,-0.09388050711561176,0.05216013189101067,109.09090909090908,0.0
1586,-0.11244234905725528,0.03437111807941023,109.09090909090908,0.0
1587,-0.130458590070781,0.01662847785416162,109.09090909090908,0.0
1588,-0.1467683036138636,0.00013470520871592534,109.09090909090908,0.0
1589,-0.16055175992169846,-0.014165299666529851,109.09090909090908,0.0
1590,-0.17135122594870622,-0.025652882890158817,109.09090909090908,0.0
1591,-0.17904611048907393,-0.034055683580003014,109.09090909090908,0.0
1592,-0.18379783067916255,-0.03942376724053619,109.09090909090908,0.0
1593,-0.18597996293735364,-0.04207180654980216,109.09090909090908,0.0
1594,-0.1861069703332676,-0.04250009901061416,109.09090909090908,0.0
1595,-0.18476924594339814,-0.04130776559660812,109.09090909090908,0.0
1596,-0.18257473850063907,-0.039110239607249755,109.09090909090908,0.0
1597,-0.1800925034888663,-0.03647069878560765,109.09090909090908,0.0
1598,-0.17779563123894804,-0.03385189468862015,109.09090909090908,0.0
1599,-0.17600989437406775,-0.03159122891173786,109.09090909090908,0.0
1600,-0.17488365801382,-0.02989819170038244,109.09090909090908,0.0
1601,-0.17439556884114252,-0.028869771673532815,109.09090909090908,0.0
1602,-0.1744054545525222,-0.02851669737479025,109.09090909090908,0.0
1603,-0.1747352278662239,-0.028792030502041727,109.09090909090908,0.0
1604,-0.17525066021084618,-0.02961423435103252,109.09090909090908,0.0
1605,-0.17591109809613806,-0.030879509330839376,109.09090909090908,0.0
1606,-0.1767655291665883,-0.032462401835301066,109.09090909090908,0.0
1607,-0.17789522828590212,-0.03420830947975031,109.09090909090908,0.0
1608,-0.1793261978009721,-0.03592505394885456,109.09090909090908,0.0
1609,-0.1809491330595235,-0.03738187251684448,109.09090909090908,0.0
1610,-0.18248441980530597,-0.03832236913641089,109.09090909090908,0.0
1611,-0.18351404635552312,-0.03849352689072285,109.09090909090908,0.0
1612,-0.18357685570096932,-0.037687117169545065,109.09090909090908,0.0
1613,-0.1822982599400463,-0.03578459240061204,109.09090909090908,0.0
1614,-0.17951062276891033,-0.032793590288997296,109.09090909090908,0.0
1615,-0.17532192218460566,-0.02886459636801545,109.09090909090908,0.0
1616,-0.17010740327449744,-0.02428013836911312,109.09090909090908,0.0
1617,-0.16442524325553065,-0.01941509259781471,109.09090909090908,0.0
1618,-0.15888299818417775,-0.014673549871950147,109.09090909090908,0.0
1619,-0.15399695127820595,-0.010413390146393068,109.09090909090908,0.0
1620,-0.1500852245480066,-0.006872890259637984,109.09090909090908,0.0
1621,-0.1472183889192978,-0.004113792603928525,109.09090909090908,0.0
1622,-0.14522685707779057,-0.001992578323795872,109.09090909090908,0.0
1623,-0.14374524150454437,-0.0001670545849386338,109.09090909090908,0.0
1624,-0.14226964522456467,0.0018602278053758779,109.09090909090908,0.0
1625,-0.1402147283735098,0.0046659344553841055,109.09090909090908,0.0
1626,-0.1369740340762623,0.008806775242634329,109.09090909090908,0.0
1627,-0.1319969304551838,0.014711085678489874,109.09090909090908,0.0
1628,-0.1248910851418802,0.022578036923530984,109.09090909090908,0.0
1629,-0.11554241114501755,0.032302242587225916,109.09090909090908,0.0
1630,-0.1042242862551627,0.04343960107249375,109.09090909090908,0.0
1631,-0.09165589743813017,0.0552250423176935,109.09090909090908,0.0
1632,-0.07897339112329142,0.0666447194535792,109.09090909090908,0.0
1633,-0.06759781408600705,0.07655530527284711,109.09090909090908,0.0
1634,-0.05901445341129799,0.08383343935213511,109.09090909090908,0.0
1635,-0.05450861138759778,0.08753138049171216,109.09090909090908,1.0
1636,-0.05492185832894577,0.08701253840229123,109.09090909090908,0.0
1637,-0.060492257185808807,0.08204371862536419,109.09090909090908,0.0
1638,-0.07082018246160134,0.07282908664698763,109.09090909090908,0.0
1639,-0.08496455634417201,0.059982116666007376,109.09090909090908,0.0
1640,-0.10163582701556143,0.04444335758438077,109.09090909090908,0.0
1641,-0.11942664471770577,0.02736093025262542,109.09090909090908,0.0
1642,-0.13701823864091864,0.009955305666104081,109.09090909090908,0.0
1643,-0.1533190557522539,-0.006610477581458135,109.09090909090908,0.0
1644,-0.16752228031221594,-0.02133856065678163,109.09090909090908,0.0
1645,-0.17909722403919207,-0.03347224404022651,109.09090909090908,0.0
1646,-0.1877463602321689,-0.042537464039200425,109.09090909090908,0.0
1647,-0.19336146525629036,-0.04835242659878701,109.09090909090908,0.0
1648,-0.19600109169365504,-0.05101102578438049,109.09090909090908,0.0
1649,-0.19589302487321802,-0.05084638252961053,109.09090909090908,0.0
1650,-0.19344685596928332,-0.048380168389427686,109.09090909090908,0.0
1651,-0.18925121490805624,-0.04426241296899135,109.09090909090908,0.0
1652,-0.18403333541743355,-0.03920601892008896,109.09090909090908,0.0
1653,-0.17857542730213224,-0.03392042237793059,109.09090909090908,0.0
1654,-0.17360498491464502,-0.02904937048458469,109.09090909090908,0.0
1655,-0.16969213359166885,-0.025118001754401056,109.09090909090908,0.0
1656,-0.1671866076896737,-0.02249380065275011,109.09090909090908,0.0
1657,-0.16620962966215208,-0.021364469711999668,109.09090909090908,0.0
1658,-0.16669160255662485,-0.021733696406876224,109.09090909090908,0.0
1659,-0.1684288902022779,-0.02343380196455828,109.09090909090908,0.0
1660,-0.1711313128504263,-0.026152856209028956,109.09090909090908,0.0
1661,-0.17444600843036653,-0.029473173775937056,109.09090909090908,0.0
1662,-0.1779638399729076,-0.0329179224873994,109.09090909090908,0.0
1663,-0.18122901958941304,-0.03600242797504341,109.09090909090908,0.0
1664,-0.18377223593035916,-0.03828631530326921,109.09090909090908,0.0
1665,-0.18517248256499427,-0.03942189536243715,109.09090909090908,0.0
1666,-0.18513247030400265,-0.03919354749910027,109.09090909090908,0.0
1667,-0.18354001341100432,-0.03754279764615527,109.09090909090908,0.0
1668,-0.1804909815650858,-0.034574739371956556,109.09090909090908,0.0
1669,-0.17626563087951816,-0.030543442891370474,109.09090909090908,0.0
1670,-0.1712686644574962,-0.025816720427599922,109.09090909090908,0.0
1671,-0.1659538173871172,-0.020823527577086633,109.09090909090908,0.0
1672,-0.16075285395964017,-0.015989860437053294,109.09090909090908,0.0
1673,-0.15602056551413457,-0.011670925783737202,109.09090909090908,0.0
1674,-0.15199777039486098,-0.008088496087533833,109.09090909090908,0.0
1675,-0.1487873874405668,-0.005282693574316313,109.09090909090908,0.0
1676,-0.14633601476449587,-0.003086905685248045,109.09090909090908,0.0
1677,-0.14441627752081224,-0.0011329034842154587,109.09090909090908,0.0
1678,-0.14261399976966696,0.0011097878454348741,109.09090909090908,0.0
1679,-0.14033600284105216,0.004260814436138101,109.09090909090908,0.0
1680,-0.13686133560311722,0.008928712738437143,109.09090909090908,0.0
1681,-0.13145257858662687,0.015596372407852777,109.09090909090908,0.0
1682,-0.1235224167145682,0.024510672997246935,109.09090909090908,0.0
1683,-0.11282188735404133,0.035597441501941454,109.09090909090908,0.0
1684,-0.0995950829107621,0.04842131059624787,109.09090909090908,0.0
1685,-0.08464317927641178,0.06220360466451827,109.09090909090908,0.0
1686,-0.06926170363317567,0.07590081298518497,109.09090909090908,0.0
1687,-0.05505136193513754,0.08833368740869792,109.09090909090908,0.0
1688,-0.04364080109991951,0.09834558921035988,109.09090909090908,0.0
1689,-0.0363865568475066,0.10496150673919405,109.09090909090908,0.0
1690,-0.03412380790342494,0.10751834434882823,109.09090909090908,1.0
1691,-0.03702997274964746,0.10574315258435862,109.09090909090908,0.0
1692,-0.044634436297512105,0.09976752434213511,109.09090909090908,0.0
1693,-0.05596821274472136,0.09008043948587549,109.09090909090908,0.0
1694,-0.06980762583185651,0.07743468392384725,109.09090909090908,0.0
1695,-0.0849391847566452,0.0627302453318843,109.09090909090908,0.0
1696,-0.1003694596057067,0.04689982096871063,109.09090909090908,0.0
1697,-0.1154264099841178,0.03081675833301494,109.09090909090908,0.0
1698,-0.129739242421799,0.015236315480500208,109.09090909090908,0.0
1699,-0.14312696616127807,0.0007702717185505345,109.09090909090908,0.0
1700,-0.1554550233103186,-0.012113962916498335,109.09090909090908,0.0
1701,-0.16652412550706316,-0.023083005433552413,109.09090909090908,0.0
1702,-0.17603518489632727,-0.031928295259922884,109.09090909090908,0.0
1703,-0.18363873154143498,-0.03856515450709852,109.09090909090908,0.0
1704,-0.18904222487581854,-0.043039955253497394,109.09090909090908,0.0
1705,-0.1921284951890995,-0.045538684083687574,109.09090909090908,0.0
1706,-0.19303927431873596,-0.0463866760440128,109.09090909090908,0.0
1707,-0.19219523749379325,-0.046029940953299285,109.09090909090908,0.0
1708,-0.19024744892835224,-0.04499305134181737,109.09090909090908,0.0
1709,-0.18797395468838665,-0.04381553383777747,109.09090909090908,0.0
1710,-0.1861445884560396,-0.042975963240439924,109.09090909090908,0.0
1711,-0.18537898799830427,-0.04281831921126462,109.09090909090908,0.0
1712,-0.18602284072915123,-0.043496972238602674,109.09090909090908,0.0
1713,-0.188068306075114,-0.04495418061518203,109.09090909090908,0.0
1714,-0.19114333856305085,-0.04693756932718845,109.09090909090908,0.0
1715,-0.19458504023043757,-0.049056147912291785,109.09090909090908,0.0
1716,-0.19759138114176814,-0.050864198372147285,109.09090909090908,0.0
1717,-0.19941883734059956,-0.051955267532185476,109.09090909090908,0.0
1718,-0.19957244535454505,-0.052045562757279056,109.09090909090908,0.0
1719,-0.197931011787739,-0.051028268530499715,109.09090909090908,0.0
1720,-0.1947679291061379,-0.04898724741901761,109.09090909090908,0.0
1721,-0.19066132386565346,-0.0461684575332493,109.09090909090908,0.0
1722,-0.1863232146692458,-0.04291752437038418,109.09090909090908,0.0
1723,-0.18240241803700025,-0.03959949477446126,109.09090909090908,0.0
1724,-0.17932141990532485,-0.036519907761784626,109.09090909090908,0.0
1725,-0.17719224548639922,-0.03386435563670181,109.09090909090908,0.0
1726,-0.1758269463897586,-0.03166760354596665,109.09090909090908,0.0
1727,-0.17482613825445031,-0.029815148208416332,109.09090909090908,0.0
1728,-0.1737060802398055,-0.028072301492980255,109.09090909090908,0.0
1729,-0.17201872586158384,-0.026130561910630103,109.09090909090908,0.0
1730,-0.16943025381849486,-0.023659267718271922,109.09090909090908,0.0
1731,-0.1657452196309709,-0.020352178464438687,109.09090909090908,0.0
1732,-0.16088575743969738,-0.015962577415854672,109.09090909090908,0.0
1733,-0.15484950413000242,-0.010325107558871303,109.09090909090908,0.0
1734,-0.14767194855134283,-0.003366335683789681,109.09090909090908,0.0
1735,-0.1394101216245511,0.004891969269586783,109.09090909090908,0.0
1736,-0.13015058493859646,0.014332858896933611,109.09090909090908,0.0
1737,-0.12003257557638644,0.024745086724042666,109.09090909090908,0.0
1738,-0.10927212393529184,0.03582466201189822,109.09090909090908,0.0
1739,-0.0981760839001658,0.047178981453292655,109.09090909090908,0.0
1740,-0.08714291920821664,0.058336690385086876,109.09090909090908,0.0
1741,-0.07665373090438023,0.06876645747940507,109.09090909090908,0.0
1742,-0.06725731049887643,0.07790661905168642,109.09090909090908,0.0
1743,-0.05954669478665905,0.0852053987360025,109.09090909090908,0.0
1744,-0.05411760950917145,0.09016861935840073,109.09090909090908,0.0
1745,-0.05149984734251997,0.09240918322192335,109.09090909090908,1.0
1746,-0.052065404946283554,0.09169089258699363,109.09090909090908,0.0
1747,-0.055936957186999564,0.08795909890471584,109.09090909090908,0.0
1748,-0.06293362864581349,0.08135251157609466,109.09090909090908,0.0
