,PPG_Raw,PPG_Clean,PPG_Rate,PPG_Peaks
0,-0.13475436238957197,-0.013216983542734779,83.33333333333334,0.0
1,-0.1303612651617972,-0.00891869491187628,83.33333333333334,0.0
2,-0.12656787630396021,-0.005159693045288333,83.33333333333334,0.0
3,-0.12391563963858912,-0.002407860326154818,83.33333333333334,0.0
4,-0.12279909060355607,-0.001013510530453672,83.33333333333334,0.0
5,-0.12342158700623251,-0.0011722298948524672,83.33333333333334,0.0
6,-0.1257791030271834,-0.0029093958067683647,83.33333333333334,0.0
7,-0.12967400863479447,-0.006087782205306892,83.33333333333334,0.0
8,-0.13475590754715372,-0.010435963735963847,83.33333333333334,0.0
9,-0.1405817525579868,-0.015592027025606576,83.33333333333334,0.0
10,-0.14668386165879277,-0.021154953553134657,83.33333333333334,0.0
11,-0.15263342646616776,-0.02673530593177232,83.33333333333334,0.0
12,-0.15808907398731226,-0.03199760040023165,83.33333333333334,0.0
13,-0.162824162504662,-0.0366887707980837,83.33333333333334,0.0
14,-0.16673121784350275,-0.04064998108421622,83.33333333333334,0.0
15,-0.1698060420695918,-0.04381215214485335,83.33333333333334,0.0
16,-0.17211711433893365,-0.04617835119613771,83.33333333333334,0.0
17,-0.17376787065970636,-0.04779816682262258,83.33333333333334,0.0
18,-0.17486006858780437,-0.04874006210094088,83.33333333333334,0.0
19,-0.17546543032523237,-0.049067390203179836,83.33333333333334,0.0
20,-0.17561025163305652,-0.048822420526239634,83.33333333333334,0.0
21,-0.17527442085440106,-0.04802068454148559,83.33333333333334,0.0
22,-0.1744033161138978,-0.04665563831170012,83.33333333333334,0.0
23,-0.17292900218838475,-0.044711500393882636,83.33333333333334,0.0
24,-0.1707960693391128,-0.04218054586393283,83.33333333333334,0.0
25,-0.1679869867090766,-0.039080383232445226,83.33333333333334,0.0
26,-0.16454174373600028,-0.03546691536997661,83.33333333333334,0.0
27,-0.16056703877467485,-0.03143972139470656,83.33333333333334,0.0
28,-0.15623183545447278,-0.02713826924182441,83.33333333333334,0.0
29,-0.1517489344007505,-0.022729334667313448,83.33333333333334,0.0
30,-0.14734572594806145,-0.01838786132691079,83.33333333333334,0.0
31,-0.1432302803431519,-0.0142748700354311,83.33333333333334,0.0
32,-0.13956021819553804,-0.01051663735097628,83.33333333333334,0.0
33,-0.1364209534315834,-0.007189101615942542,83.33333333333334,0.0
34,-0.13381739405767185,-0.004310393481301439,83.33333333333334,0.0
35,-0.1316800010373799,-0.001842770019946656,83.33333333333334,0.0
36,-0.12988317743455352,0.0002965923613731901,83.33333333333334,0.0
37,-0.12827192524600045,0.0022181419216743894,83.33333333333334,0.0
38,-0.12669179107857953,0.0040391804356211605,83.33333333333334,0.0
39,-0.1250169539005855,0.005863570344501384,83.33333333333334,0.0
40,-0.12317139935405824,0.007765398825218286,83.33333333333334,0.0
41,-0.12113891477549137,0.009779107858454435,83.33333333333334,0.0
42,-0.11896000807229691,0.011897213237998014,83.33333333333334,0.0
43,-0.11671740540251584,0.01407524810530435,83.33333333333334,0.0
44,-0.11451488096829088,0.01624229622198844,83.33333333333334,0.0
45,-0.1124554792182001,0.018314671306385606,83.33333333333334,0.0
46,-0.11062437879455968,0.020210065924240857,83.33333333333334,0.0
47,-0.1090792545281811,0.021859803777230253,83.33333333333334,0.0
48,-0.10784811703877095,0.023217528942118416,83.33333333333334,0.0
49,-0.1069324192447252,0.024263539056625275,83.33333333333334,0.0
50,-0.10631241535325339,0.025004808189953653,83.33333333333334,0.0
51,-0.10595233069127365,0.025471401885360435,83.33333333333334,0.0
52,-0.10580428516854058,0.02571039792190307,83.33333333333334,0.0
53,-0.10581134581775625,0.025778600243589737,83.33333333333334,0.0
54,-0.10591092081233439,0.02573531715694423,83.33333333333334,0.0
55,-0.10603961576379614,0.025636316164294015,83.33333333333334,0.0
56,-0.10613972212259946,0.025529792464590483,83.33333333333334,0.0
57,-0.10616616034235213,0.025454800926926213,83.33333333333334,0.0
58,-0.1060916567144146,0.02544210849080538,83.33333333333334,0.0
59,-0.1059078216722736,0.025516864332766252,83.33333333333334,0.0
60,-0.10562085833480823,0.025701951299027956,83.33333333333334,0.0
61,-0.10524257950510188,0.026020515894098258,83.33333333333334,0.0
62,-0.10477956809753204,0.02649613154317532,83.33333333333334,0.0
63,-0.10422485845374517,0.02714944332327103,83.33333333333334,0.0
64,-0.1035567136225617,0.02799098037104364,83.33333333333334,0.0
65,-0.10274749253200056,0.029010971550251324,83.33333333333334,0.0
66,-0.10178235824503504,0.030168191787408302,83.33333333333334,0.0
67,-0.10068354920212873,0.03138075363547897,83.33333333333334,0.0
68,-0.09953263323433538,0.03252201415528405,83.33333333333334,0.0
69,-0.09848214816881534,0.03342419500471149,83.33333333333334,0.0
70,-0.097750089140959,0.0338909332147916,83.33333333333334,1.0
71,-0.09759532847359052,0.033718051728770106,83.3338658226941,0.0
72,-0.0982776353058064,0.03271981310628287,83.33545984883419,0.0
73,-0.10001057006544353,0.030756322868388294,83.33811030909602,0.0
74,-0.10291781047080353,0.027757035239077514,83.34181218012172,0.0
75,-0.10700304545221317,0.023735732477269778,83.34656051656975,0.0
76,-0.11214080696823156,0.018793862516664265,83.35235044985228,0.0
77,-0.1180911119886698,0.013111402288434392,83.35917718689258,0.0
78,-0.12453529942602173,0.00692692819358507,83.36703600890232,0.0
79,-0.13112510287706264,0.0005107092660647863,83.3759222701781,0.0
80,-0.1375334154951404,-0.005864129574025306,83.38583139691673,0.0
81,-0.14349487807943015,-0.01194728677806078,83.39675888604891,0.0
82,-0.14882775150346564,-0.017529846124689916,83.40870030409079,0.0
83,-0.15343435307974373,-0.02245372556907878,83.42165128601287,0.0
84,-0.1572834932391802,-0.026612274982743295,83.43560753412635,0.0
85,-0.16038283966964043,-0.02994423777913479,83.45056481698549,0.0
86,-0.16275088247115174,-0.03242445302269815,83.46651896830674,0.0
87,-0.16439709273901448,-0.03405480043688131,83.48346588590347,0.0
88,-0.16531555505740367,-0.03485803457723477,83.50140153063602,0.0
89,-0.16549280840805095,-0.03487563773598,83.5203219253771,0.0
90,-0.1649260777470772,-0.034169128786017675,83.54022315399155,0.0
91,-0.16364478073451946,-0.032822900817051845,83.56110136033067,0.0
92,-0.161727143537986,-0.03094600384602109,83.58295274724041,0.0
93,-0.15930533706791686,-0.028670495792693235,83.60577357558311,0.0
94,-0.15655627554724377,-0.026144956039163596,83.62956016327267,0.0
95,-0.1536798174446477,-0.023523181137643987,83.65430888432248,0.0
96,-0.15086992989182962,-0.020949542487945377,83.68001616790606,0.0
97,-0.14828613318736747,-0.01854357819542241,83.70667849742998,0.0
98,-0.14603186955834316,-0.016386838350057206,83.7342924096187,0.0
99,-0.14414396274979555,-0.014514714754016188,83.76285449361113,0.0
100,-0.14259421251134488,-0.012915063320935718,83.79236139006842,0.0
101,-0.1413014930668902,-0.011534112968324666,83.82280979029306,0.0
102,-0.14015111067266484,-0.010288757425297324,83.8541964353584,0.0
103,-0.1390176573484887,-0.009083141348708981,83.88651811524898,0.0
104,-0.13778778996644067,-0.007826701109303457,83.9197716680108,0.0
105,-0.13637978436774928,-0.006450618655036136,83.95395397891178,0.0
106,-0.13475713550739124,-0.004919996413016434,83.98906197961162,0.0
107,-0.13293407168260082,-0.0032398660004271684,84.02509264734114,0.0
108,-0.13097198689801054,-0.0014542355279804084,84.06204300409084,0.0
109,-0.12896756679289073,0.0003614456216262862,84.09991011580829,0.0
110,-0.1270353107283338,0.002112973139804902,84.13869109160402,0.0
111,-0.12528835825404996,0.003703028409578358,84.17838308296598,0.0
112,-0.1238213528555948,0.005047198459485345,84.21898328298205,0.0
113,-0.12269765040468347,0.00608783495261577,84.26048892557036,0.0
114,-0.1219414263209035,0.006803619135859754,84.30289728471747,0.0
115,-0.12153422757468253,0.007213396349254245,84.3462056737239,0.0
116,-0.1214156897922331,0.007373726776799664,84.39041144445679,0.0
117,-0.12148898469470522,0.007370558495260508,84.43551198660958,0.0
118,-0.12163201214415739,0.007306347608913846,84.48150472696868,0.0
119,-0.12171456351131925,0.007284700675492409,84.52838712868638,0.0
120,-0.12161966043811351,0.007395063935377455,84.57615669056031,0.0
121,-0.1212649206062924,0.00770001835435305,84.62481094631904,0.0
122,-0.12061843266367754,0.00822730407592118,84.67434746391349,0.0
123,-0.11970422184670676,0.008967834410664257,84.72476384481419,0.0
124,-0.11859505204065174,0.009879822168746492,84.77605772331408,0.0
125,-0.11739413931897832,0.01089797341412554,84.82822676583665,0.0
126,-0.11621085276621126,0.011945777175418172,84.88126867024913,0.0
127,-0.11513726633269437,0.012948453378360078,84.93518116518085,0.0
128,-0.11423185212483712,0.013844211236000617,84.98996200934623,0.0
129,-0.11351397912766846,0.01459205687937544,85.04560899087241,0.0
130,-0.11296923386746333,0.015175276777187257,85.10211992663126,0.0
131,-0.11256220890433773,0.015600648043059315,85.15949266157584,0.0
132,-0.1122514430119341,0.015894143953442574,85.2177250680806,0.0
133,-0.11200128086044592,0.01609426854450447,85.27681504528577,0.0
134,-0.11178746665947456,0.01624416370186342,85.33676051844527,0.0
135,-0.11159645067262668,0.01638340802242344,85.39755943827842,0.0
136,-0.11142132937797639,0.016540156692383245,85.4592097803247,0.0
137,-0.11125876548566631,0.016724124415380032,85.52170954430217,0.0
138,-0.11111048122444726,0.016920964756512117,85.58505675346852,0.0
139,-0.11099029567175307,0.017088798480306762,85.64924945398553,0.0
140,-0.11093437141844703,0.017157834611585654,85.71428571428572,1.0
141,-0.11100989610249445,0.017034017146501497,85.79545603637132,0.0
142,-0.11131702593950982,0.016607272185755535,85.90738242753332,0.0
143,-0.11198077664565445,0.01576419864822213,86.04910100776343,0.0
144,-0.11313282916208783,0.014404061062360436,86.21969652337113,0.0
145,-0.1148865360189306,0.01245594563190926,86.41829553534266,0.0
146,-0.11731058325933309,0.009894221391575359,86.64405999362495,0.0
147,-0.12040729989702513,0.006749259331295386,86.89618113969011,0.0
148,-0.12410070057264555,0.003110840399731597,87.17387368665808,0.0
149,-0.1282374771183972,-0.0008771968719114964,87.47637023238735,0.0
150,-0.13260176350732358,-0.005030946809493538,87.80291586642973,0.0
151,-0.13694191852708265,-0.00914723649770324,88.15276293671641,0.0
152,-0.141005118307286,-0.013027940551166836,88.52516594640403,0.0
153,-0.14457362411030203,-0.016503638421845063,88.91937655556302,0.0
154,-0.1474956744569065,-0.01945239004352211,89.33463866641695,0.0
155,-0.14970449064551658,-0.021810243577251212,89.77018357472055,0.0
156,-0.1512210454365104,-0.023571679707712505,90.225225173659,0.0
157,-0.1521396978119183,-0.024780220676951306,90.69895520042803,0.0
158,-0.15259973419689146,-0.025511451227435537,91.19053851946019,0.0
159,-0.1527492509553949,-0.02585225541764158,91.69910844015178,0.0
160,-0.15270975303991485,-0.025880800907217588,92.22376207095488,0.0
161,-0.15254978204939562,-0.025651518290432784,92.76355571586605,0.0
162,-0.15227377065069667,-0.02518808158357175,93.31750032369577,0.0
163,-0.15182861399294256,-0.024485482318327288,93.88455700506272,0.0
164,-0.15112602984490178,-0.0235201553064376,94.46363263683388,0.0
165,-0.15007472399822142,-0.022265266863668108,95.05357557873066,0.0
166,-0.14861372744061668,-0.020707152967479756,95.65317153203095,0.0
167,-0.14673783017794462,-0.01885874984073984,96.26113957569815,0.0
168,-0.14450814394549388,-0.01676670000944165,96.87612842082187,0.0
169,-0.14204509437267435,-0.014510404538841382,97.4967129299104,0.0
170,-0.13950632308222757,-0.012193211536507653,98.1213909532586,0.0
171,-0.1370562506390648,-0.009927706192017596,98.74858054023944,0.0
172,-0.13483580285489907,-0.007818290824335362,99.3766175888139,0.0
173,-0.13293952320022906,-0.00594467629984024,100.00375400169452,0.0
174,-0.13140390078464198,-0.0043495242196937775,100.6281564222664,0.0
175,-0.13020702528735878,-0.0030324510631074024,101.24790562738826,0.0
176,-0.12927720060963138,-0.0019512227369878083,101.86099665735763,0.0
177,-0.12850740611722922,-0.0010295564648051979,102.46533976540456,0.0
178,-0.12777289528942173,-0.00016978869689168296,103.05876226983165,0.0
179,-0.1269497638450225,0.0007320471312672761,103.63901139109407,0.0
180,-0.1259323876580284,0.0017713792080339946,104.20375815344637,0.0
181,-0.12464735086219729,0.0030228253443283495,104.7506024260168,0.0
182,-0.1230614889532516,0.004532113909971283,105.27707917106267,0.0
183,-0.12118253938573605,0.006312883884540524,105.78066595748653,0.0
184,-0.1190526639062337,0.008348084671167025,106.25879178527897,0.0
185,-0.11673716339527043,0.010594896920103451,106.70884725127067,0.0
186,-0.11431208297573686,0.01299161147940075,107.12819606837105,0.0
187,-0.11185437640509738,0.015464805904689995,107.51418792937676,0.0
188,-0.10943684978584213,0.017935425691287237,107.86417268258744,0.0
189,-0.10712794583841469,0.020322908737491707,108.17551576012124,0.0
190,-0.10499455467378319,0.02254713817545861,108.44561477136166,0.0
191,-0.10310519123231295,0.02452862013457574,108.67191714390874,0.0
192,-0.10153128555333413,0.026187744143921762,108.85193866340354,0.0
193,-0.10034568788098913,0.02744423252122285,108.98328273243489,0.0
194,-0.09961909825168576,0.028217906152239475,109.06366013832275,0.0
195,-0.09941612075471903,0.028431698929778097,109.09090909090908,1.0
196,-0.099792366214963,0.028017459725320843,109.07355323335102,0.0
197,-0.10079251112286658,0.026924509137882382,109.02215015851829,0.0
198,-0.102447358558703,0.02513020688999364,108.93774167860167,0.0
199,-0.10476712010940302,0.022651019729626597,108.82142468152051,0.0
200,-0.10772937201652875,0.01955191013532919,108.67434483845351,0.0
201,-0.11126331073430497,0.015951498611389097,108.49769032472372,0.0
202,-0.11523560649357177,0.01202059488316528,108.29268560577854,0.0
203,-0.11944525267788116,0.00797247492196448,108.06058533598778,0.0
204,-0.12363378513389793,0.004044672561200641,107.80266841359828,0.0
205,-0.12751303350791093,0.00047383129049728256,107.520232230537,0.0
206,-0.1308067224128913,-0.0025330691308660096,107.21458715095015,0.0
207,-0.13329715551403137,-0.004826499444048397,106.88705124749596,0.0
208,-0.13486588477551864,-0.006336144468892675,106.53894531956338,0.0
209,-0.13551836776849638,-0.007082263454576149,106.17158821284427,0.0
210,-0.13538643363568698,-0.00717394604339429,105.78629245511105,0.0
211,-0.1347074775716973,-0.006793937782250995,105.3843602187034,0.0
212,-0.13378432385996014,-0.00617226438486087,104.96707961615118,0.0
213,-0.1329337046204967,-0.00555304319905387,104.53572133159426,0.0
214,-0.13243366927168407,-0.005160142730291317,104.09153558722849,0.0
215,-0.1324804737681082,-0.005167453968857505,103.63574944092791,0.0
216,-0.13316333892555945,-0.005678465488498815,103.1695644084741,0.0
217,-0.13446119897380399,-0.006717858613564252,102.694154401466,0.0
218,-0.13626020065851144,-0.008235434078144616,102.21066396998104,0.0
219,-0.13838581190836416,-0.010120402152847315,101.7202068373999,0.0
220,-0.140640484386986,-0.012222406447523978,101.22386471347548,0.0
221,-0.142837720088331,-0.014374916464858799,100.72268637070525,0.0
222,-0.14482587321029783,-0.01641687532857425,100.21768696832807,0.0
223,-0.14649891913893406,-0.018209543496882457,99.70984760779277,0.0
224,-0.14779529726670299,-0.019646981244435455,99.20011510330599,0.0
225,-0.1486886852401338,-0.02066014579277561,98.689401951041,0.0
226,-0.14917571179409758,-0.021215781016210893,98.17858648074531,0.0
227,-0.14926521358845374,-0.02131192755058407,97.66851317380511,0.0
228,-0.14897206144135466,-0.020971936559977672,97.15999313227884,0.0
229,-0.14831639011658876,-0.020238452209547952,96.65380468398153,0.0
230,-0.14732694004617355,-0.019168162110955185,96.15069410936412,0.0
231,-0.14604579951094254,-0.017827453790308048,95.65137647666816,0.0
232,-0.14453152133365132,-0.01628866099536625,95.15653657262766,0.0
233,-0.1428583894035264,-0.014626437628971747,94.66682991682278,0.0
234,-0.1411111535112236,-0.012913944065613019,94.18288384864856,0.0
235,-0.13937623060379686,-0.011218860165321578,93.70529867673464,0.0
236,-0.13773157954092577,-0.009599592900325311,93.23464888152826,0.0
237,-0.13623781554961795,-0.008102273328291276,92.77148436262506,0.0
238,-0.13493263148905776,-0.006759141583952259,92.3163317232903,0.0
239,-0.13382956477760913,-0.005588683860447682,91.86969558545502,0.0
240,-0.1329210407582943,-0.0045974763956276535,91.43205992928954,0.0
241,-0.13218474707467012,-0.0037832303284512955,91.00388945224933,0.0
242,-0.13159181998067696,-0.0031381615880199465,90.58563094325217,0.0
243,-0.13111498910820896,-0.0026516572190014636,90.17771466838072,0.0
244,-0.13073471272196238,-0.002311346489968447,89.78055576520933,0.0
245,-0.13044153827088062,-0.002102108993425331,89.3945556435298,0.0
246,-0.13023358402592292,-0.0020031781874399997,89.02010339089777,0.0
247,-0.1301092063578481,-0.001984174412286618,88.65757718204284,0.0
248,-0.13005644076044964,-0.0020014375290591108,88.30734569178136,0.0
249,-0.13004228274683713,-0.0019962489824409627,87.96976951164616,0.0
250,-0.13000572692769316,-0.0018963235177888072,87.64520257100402,0.0
251,-0.12985816537005576,-0.0016213061234975359,87.3339935639733,0.0
252,-0.12949305872053538,-0.0010920488433637842,87.03648738398523,0.0
253,-0.12880409086243497,-0.00024239088915731406,86.75302656835713,0.0
254,-0.12770815456116344,0.0009686959862954484,86.48395275576843,0.0
255,-0.12616750375908314,0.0025471491701653326,86.22960816005723,0.0
256,-0.1242049850327092,0.004458406697763156,85.9903370642901,0.0
257,-0.12190762107208866,0.006628117083442908,85.76648733960917,0.0
258,-0.11941661521894767,0.008949303811095531,85.55841199393161,0.0
259,-0.11690534406224251,0.011294947806160102,85.36647075617901,0.0
260,-0.11455015691314571,0.013533785826969943,85.19103170235034,0.0
261,-0.11250084078406554,0.015546466995034026,85.03247293043589,0.0
262,-0.11085774493610674,0.017239231072626843,84.89118429190658,0.0
263,-0.10966068460248941,0.01855295241296083,84.76756918831511,0.0
264,-0.10889144499890514,0.019466532065998493,84.66204644242609,0.0
265,-0.1084880202744866,0.019994892149618432,84.57505225426127,0.0
266,-0.10836570500426526,0.02018287821181222,84.50704225352113,1.0
267,-0.10843858112458087,0.020096932271505434,84.4489815295067,0.0
268,-0.10863523096006669,0.01981634888873047,84.39152444630717,0.0
269,-0.1089047061444534,0.01942535252713746,84.33467639318401,0.0
270,-0.10921242322210403,0.019006388650120838,84.27844274697702,0.0
271,-0.10952962104016765,0.018634240390361222,84.22282887304364,0.0
272,-0.10982276061366907,0.01837017442162669,84.16784012620312,0.0
273,-0.11004947248044727,0.018255452489575004,84.11348185168575,0.0
274,-0.11016503057287352,0.0183041845305623,84.05975938608712,0.0
275,-0.11013879377162734,0.018496412951173245,84.00667805832748,0.0
276,-0.10997544934471033,0.018773150680177448,83.95424319061622,0.0
277,-0.10973314280699034,0.019035492605288765,83.90246009942202,0.0
278,-0.10953084097656594,0.01914964969462979,83.8513340964478,0.0
279,-0.1095404337499224,0.018958794199516144,83.8008704896119,0.0
280,-0.1099638205621213,0.018301151937149082,83.75107458403419,0.0
281,-0.1109996567863183,0.01703219768411083,83.70195168302838,0.0
282,-0.11280699661728247,0.015047524243049856,83.65350708910006,0.0
283,-0.1154732805054083,0.012302326167176162,83.60574610495046,0.0
284,-0.11899264450962141,0.008823670969761915,83.55867403448669,0.0
285,-0.12325848462908656,0.004712824370228307,83.51229618383799,0.0
286,-0.12807218466328713,0.00013664916400553048,83.46661786237831,0.0
287,-0.13316764992659447,-0.00469084990504353,83.42164438375569,0.0
288,-0.13824830667780147,-0.009533849227439734,83.37738106692792,0.0
289,-0.14302984947578876,-0.014162559470532583,83.3338332372054,0.0
290,-0.14727965789806993,-0.018378790268009152,83.29100622730076,0.0
291,-0.15084407798723595,-0.022034917253220314,83.24890537838576,0.0
292,-0.153658124231618,-0.025043334308122167,83.2075360411556,0.0
293,-0.15573729348524304,-0.027375438041592443,83.16690357690055,0.0
294,-0.15715580632999795,-0.029051290497365493,83.12701335858549,0.0
295,-0.15801796326412787,-0.030122885125507967,83.0878707719374,0.0
296,-0.15842921434533005,-0.030655034802307017,83.04948121654074,0.0
297,-0.15847207116477444,-0.03070810868373078,83.01185010694145,0.0
298,-0.15819041685665972,-0.030326161026118213,82.97498287375929,0.0
299,-0.1575845919647982,-0.029532595428750835,82.93888496480905,0.0
300,-0.1566184115876935,-0.028333705719621474,82.90356184623076,0.0
301,-0.1552372891356146,-0.026728618712615934,82.86901900362909,0.0
302,-0.1533938133670118,-0.024722724622774826,82.83526194322233,0.0
303,-0.1510743621371614,-0.022340931473165897,82.80229619300093,0.0
304,-0.14831908932683033,-0.019637185577346117,82.77012730389629,0.0
305,-0.1452289063366767,-0.01669763195695847,82.7387608509596,0.0
306,-0.14195674433627042,-0.013636320507106463,82.7082024345513,0.0
307,-0.13868512503347777,-0.010584123837079238,82.67845768154135,0.0
308,-0.13559610531281696,-0.00767309710406073,82.64953224652064,0.0
309,-0.1328415737046963,-0.005019514565401537,82.6214318130238,0.0
310,-0.13052115759490265,-0.002709051174708853,82.59416209476359,0.0
311,-0.12867215777320243,-0.0007870296626554772,82.56772883687758,0.0
312,-0.12727218124735235,0.0007444990266567628,82.54213781718694,0.0
313,-0.1262518772351635,0.0019225303396067503,82.51739484746804,0.0
314,-0.12551337601436133,0.002812847760573795,82.49350577473707,0.0
315,-0.12494992473936903,0.0034959467220347564,82.47047648254798,0.0
316,-0.1244633310885963,0.004051955137870588,82.4483128923042,0.0
317,-0.12397732031850182,0.004547397932917589,82.4270209645845,0.0
318,-0.12344604165793606,0.0050261650075530155,82.40660670048318,0.0
319,-0.12285743055146808,0.005506154541158145,82.38707614296543,0.0
320,-0.12223116022941431,0.00598194197945424,82.36843537823758,0.0
321,-0.12161100853382463,0.006432655481746923,82.35069053713337,0.0
322,-0.12105206210926356,0.006833211411092307,82.33384779651618,0.0
323,-0.12060435044325285,0.007166358113316639,82.31791338069773,0.0
324,-0.12029588713475005,0.007432739549948394,82.30289356287383,0.0
325,-0.12011909036658666,0.00765650648536499,82.28879466657776,0.0
326,-0.12002460247749196,0.007884861700368255,82.27562306715109,0.0
327,-0.11992536095309146,0.008181201764504502,82.26338519323332,0.0
328,-0.11971151893685185,0.00861297413849364,82.25208752827014,0.0
329,-0.1192739809427032,0.009236691413230523,82.24173661204118,0.0
330,-0.11853166185052322,0.010083410005486034,82.2323390422076,0.0
331,-0.1174558736118451,0.011148135218784303,82.22390147588003,0.0
332,-0.1160850886597325,0.012385952510760356,82.21643063120767,0.0
333,-0.11452499817560363,0.013716295783767917,82.20993328898871,0.0
334,-0.112932138775858,0.015034932500815652,82.20441629430293,0.0
335,-0.11148374081034519,0.01623139741899584,82.19988655816697,0.0
336,-0.11034066484133151,0.017208205185072118,82.19635105921289,0.0
337,-0.10961291013371074,0.017897595573804152,82.19381684539061,0.0
338,-0.10933709398282554,0.018271997484125686,82.19229103569498,0.0
339,-0.10947227641595371,0.01834576595667635,82.19178082191782,1.0
340,-0.10991537975691364,0.018167730111993255,82.1967036467228,0.0
341,-0.11053187943810432,0.017806203100232666,82.21128398651788,0.0
342,-0.1111932552897083,0.017329827799502612,82.23524444409253,0.0
343,-0.11181118594616846,0.01678855114037242,82.26831351358037,0.0
344,-0.1123599524753267,0.016198937563421216,82.31022496018075,0.0
345,-0.11288232847102236,0.01553700772564658,82.36071722619675,0.0
346,-0.11347906035660071,0.014740106932340942,82.41953286149263,0.0
347,-0.1142863088903083,0.013717387098871386,82.48641797665432,0.0
348,-0.11544773664028514,0.012366759761296073,82.56112171730516,0.0
349,-0.11708765251377624,0.010594988332668021,82.64339575818549,0.0
350,-0.11928935430195402,0.008337122989357435,82.7329938157524,0.0
351,-0.122080166057555,0.0055717617923003535,82.82967117819345,0.0
352,-0.12542327755949004,0.0023295298480847104,82.93318425187863,0.0
353,-0.12921679567012775,-0.0013065027184810578,83.04329012339815,0.0
354,-0.13330131638860726,-0.005208247123030581,83.15974613645058,0.0
355,-0.1374770989432599,-0.00921625448141631,83.28230948295747,0.0
356,-0.1415296854786687,-0.01315695422124008,83.41073680788756,0.0
357,-0.14525936059506175,-0.01686033909485574,83.54478382737571,0.0
358,-0.14850721412689458,-0.02017514853174692,83.68420495982083,0.0
359,-0.1511706285135394,-0.022979416635194497,83.82875296974206,0.0
360,-0.15320419436489977,-0.025185499000398293,83.97817862426457,0.0
361,-0.15460709518368518,-0.02674004997409054,84.13223036219603,0.0
362,-0.15540271198338965,-0.027620521591594258,84.29065397574149,0.0
363,-0.15561864917360274,-0.02783029781133101,84.4531923049891,0.0
364,-0.1552746949906005,-0.027394430772618574,84.61958494538105,0.0
365,-0.15438276241221732,-0.02635719269981185,84.78956796846482,0.0
366,-0.1529579542480077,-0.024781571092501044,84.9628736562971,0.0
367,-0.15103541056712902,-0.022749788758330867,85.13923024994901,0.0
368,-0.14868526765459583,-0.020363271596940256,85.31836171263433,0.0
369,-0.1460188292112525,-0.017740424500354277,85.49998750805374,0.0
370,-0.1431825699723056,-0.015011116878440695,85.68382239461634,0.0
371,-0.14034125815550097,-0.012307739711089696,85.86957623626517,0.0
372,-0.13765520466306574,-0.009753771648762193,86.05695383069583,0.0
373,-0.1352579636378665,-0.007451663410593435,86.24565475581633,0.0
374,-0.1332396374558725,-0.005472279733589332,86.43537323535092,0.0
375,-0.13163840652923192,-0.003848026671158236,86.62579802454135,0.0
376,-0.1304404573358745,-0.0025711836849727126,86.81661231694513,0.0
377,-0.1295870074433253,-0.0015980092049182322,87.00749367337,0.0
378,-0.1289866595712865,-0.0008581063729995956,87.1981139740193,0.0
379,-0.12853133746352413,-0.0002675394447564745,87.3881393949499,0.0
380,-0.12811399246573046,0.0002565340639325642,87.57723040996622,0.0
381,-0.12764588135694693,0.0007822744749007068,87.76504181908554,0.0
382,-0.12707071405362128,0.0013530335291166732,87.95122280471585,0.0
383,-0.12637285067235066,0.001982519245815019,88.13541701668133,0.0
384,-0.12557742352770662,0.0026561304412335823,88.31726268721667,0.0
385,-0.12474182510377985,0.003338189178352648,88.49639277702592,0.0
386,-0.12394003753783037,0.003983657297210595,88.67243515346503,0.0
387,-0.12324311281994364,0.004552008146848658,88.8450128018584,0.0
388,-0.12270011112735592,0.005020423750703998,89.01374407089851,0.0
389,-0.12232363918130952,0.005393515718563738,89.17824295300359,0.0
390,-0.12208292175804995,0.005707341927913892,89.3381194004193,0.0
391,-0.12190560009617035,0.006026523544774966,89.49297967774837,0.0
392,-0.12168781232441528,0.006434583379894358,89.6424267514746,0.0
393,-0.12131096580938329,0.0070189939714661795,89.78606071691608,0.0
394,-0.12066292019959828,0.007853588958093249,89.92347926289473,0.0
395,-0.11966072639859968,0.008981720255697824,90.05427817424759,0.0
396,-0.11827135452853435,0.010403660242638661,90.17805187212808,0.0
397,-0.11652615364593778,0.01207117112388645,90.29439399185361,0.0
398,-0.1145247183202141,0.013890936274329396,90.40289799785067,0.0
399,-0.1124250805422567,0.01573685376350503,90.50315783502822,0.0
400,-0.11041994550930173,0.017469340831269588,90.59476861567953,0.0
401,-0.10870249611107903,0.018958179276843932,90.67732734076856,0.0
402,-0.10742885941592463,0.020104432378588843,90.75043365420404,0.0
403,-0.1066862590972067,0.020856869822558056,90.8136906284414,0.0
404,-0.10647526174984794,0.021219245596110856,90.86670557948538,0.0
405,-0.1067113439487573,0.021246547817530808,90.9090909090909,1.0
406,-0.10724614242282116,0.021030622285627902,90.9458886165408,0.0
407,-0.10790366321658386,0.020677863835661073,90.98239056096767,0.0
408,-0.10852293641005537,0.020283449690281837,91.01858825132597,0.0
409,-0.10899715039172767,0.019907442600485416,91.05447317731024,0.0
410,-0.10930042885734917,0.019557814491971866,91.09003680989538,0.0
411,-0.10949661656071674,0.019184087354873845,91.12527060189343,0.0
412,-0.10972873982195465,0.018683151359780888,91.16016598852741,0.0
413,-0.11019206335377987,0.01791636029344182,91.19471438802213,0.0
414,-0.11109682512506266,0.01673473765722104,91.22890720221199,0.0
415,-0.11262813443639591,0.01500751257802789,91.26273581716583,0.0
416,-0.11491018135692421,0.012648554171631568,91.2961916038288,0.0
417,-0.11798048461549436,0.0096356963248537,91.3292659186816,0.0
418,-0.12177816644636254,0.0060193414633284755,91.36195010441645,0.0
419,-0.12614843822420505,0.00191881800770787,91.39423549063065,0.0
420,-0.13086328050422846,-0.0024926698506318665,91.42611339453718,0.0
421,-0.1356554079407979,-0.007011485477468214,91.4575751216924,0.0
422,-0.140259423193809,-0.011430828314277941,91.48861196674115,0.0
423,-0.14445170957205092,-0.015566646061591,91.51921521417893,0.0
424,-0.1480802920954222,-0.019277462822443935,91.54937613913143,0.0
425,-0.1510781180043573,-0.022474817288338157,91.57908600815105,0.0
426,-0.1534574416421205,-0.02512308072487971,91.60833608003084,0.0
427,-0.15528790839250664,-0.02722969213530247,91.63711760663553,0.0
428,-0.1566649468073581,-0.028828805182253083,91.66542183374948,0.0
429,-0.15767700192670295,-0.02996256541640081,91.69324000194216,0.0
430,-0.15837957360254853,-0.03066448289383795,91.72056334745024,0.0
431,-0.1587814381495758,-0.030948620044337963,91.74738310307694,0.0
432,-0.1588449115038037,-0.03080678542266743,91.77369049910833,0.0
433,-0.15849872903986958,-0.030213980496541837,91.7994767642463,0.0
434,-0.1576598341843439,-0.029140428972906085,91.82473312655868,0.0
435,-0.15625922213832502,-0.027567038812145724,91.84945081444579,0.0
436,-0.1542666613723808,-0.02550040836397972,91.87362105762374,0.0
437,-0.1517092761471856,-0.02298362798482871,91.89723508812435,0.0
438,-0.14867962840711155,-0.02010009959319089,91.92028414131151,0.0
439,-0.14533045156837984,-0.016969177847976177,91.94275945691378,0.0
440,-0.14185585395414932,-0.013734276618924783,91.96465228007318,0.0
441,-0.1384622903900139,-0.01054577212082938,91.98595386241041,0.0
442,-0.13533577265530541,-0.007542187592393448,92.00665546310564,0.0
443,-0.13261325562422943,-0.00483350042446541,92.02674834999536,0.0
444,-0.13036509889432488,-0.002489893356408893,92.04622380068476,0.0
445,-0.12859229838221853,-0.000538007051079141,92.06507310367572,0.0
446,-0.127238056800345,0.001034951124390799,92.08328755951023,0.0
447,-0.1262096652794232,0.0022706228607228627,92.10085848192873,0.0
448,-0.12540461425172247,0.003225187458261885,92.11777719904363,0.0
449,-0.12473465960462163,0.003954769857430634,92.1340350545276,0.0
450,-0.12414292129689423,0.004503908421096293,92.14962340881635,0.0
451,-0.12361126565239174,0.0048995613227038135,92.164533640326,0.0
452,-0.12315745182121952,0.005151726567339498,92.17875714668426,0.0
453,-0.12282333812514147,0.005260125319730051,92.19228534597589,0.0
454,-0.12265679050739757,0.005224910610250944,92.20510967800165,0.0
455,-0.12269096982957935,0.005058340439311699,92.2172216055507,0.0
456,-0.12292543290964097,0.0047940283818262925,92.22861261568633,0.0
457,-0.12331371979393202,0.004490848413599775,92.23927422104427,0.0
458,-0.12376143048775518,0.004229751690027927,92.24919796114409,0.0
459,-0.12413698194721046,0.004103418035374565,92.25837540371259,0.0
460,-0.124294414521107,0.004200455358162772,92.2667981460194,0.0
461,-0.12410433247816828,0.004587360805384544,92.2744578162243,0.0
462,-0.12348617401286482,0.005292288300051506,92.28134607473596,0.0
463,-0.12243349384219422,0.006294580442498277,92.2874546155819,0.0
464,-0.12102462519555145,0.007522978874226762,92.29277516778907,0.0
465,-0.11941423976916654,0.008863623883212088,92.297299496775,0.0
466,-0.11780633225398014,0.01017679379443742,92.30101940574893,0.0
467,-0.1164145207604397,0.011319331382873287,92.30392673712284,0.0
468,-0.11541939883633993,0.012168351250721165,92.30601337393162,0.0
469,-0.1149335794129093,0.012641457999109859,92.30727124126238,0.0
470,-0.11498273851723952,0.012709422228678014,92.3076923076923,1.0
471,-0.11550631384889973,0.012398881515337763,92.3076923076923,0.0
472,-0.1163761975258178,0.011784760544861444,92.3076923076923,0.0
473,-0.11742747058616841,0.010974236042515583,92.3076923076923,0.0
474,-0.11849308099543514,0.010085731899776226,92.3076923076923,0.0
475,-0.11943463380926196,0.009227282852019937,92.3076923076923,0.0
476,-0.12016360820530232,0.008478522935341612,92.3076923076923,0.0
477,-0.1206503426032189,0.007879622052011922,92.3076923076923,0.0
478,-0.1209210291624102,0.007428960972466774,92.3076923076923,0.0
479,-0.12104507442226407,0.007089542850685586,92.3076923076923,0.0
480,-0.12111630471148464,0.006802438480720947,92.3076923076923,0.0
481,-0.12123173905180913,0.006504249377214719,92.3076923076923,0.0
482,-0.12147128255058258,0.006144851198523322,92.3076923076923,0.0
483,-0.12188102025791357,0.00570164837178402,92.3076923076923,0.0
484,-0.12246212536046137,0.005187225127948269,92.3076923076923,0.0
485,-0.12316696218911226,0.004648521801128076,92.3076923076923,0.0
486,-0.12390375893410063,0.00415731726340782,92.3076923076923,0.0
487,-0.12455089824106663,0.003793601634308694,92.3076923076923,0.0
488,-0.12498081419894506,0.0036250599068396753,92.3076923076923,0.0
489,-0.1250911944671113,0.003687012311872773,92.3076923076923,0.0
490,-0.12483784747578833,0.003967461671636643,92.3076923076923,0.0
491,-0.12426043129220145,0.004401192314105478,92.3076923076923,0.0
492,-0.12349122484633875,0.004875166666004905,92.3076923076923,0.0
493,-0.12273991259332255,0.005245050912987794,92.3076923076923,0.0
494,-0.12225402418260357,0.0053600876909540365,92.3076923076923,0.0
495,-0.12226315714702461,0.005091374201267229,92.3076923076923,0.0
496,-0.12292194332872491,0.004357508860049928,92.3076923076923,0.0
497,-0.1242687183425862,0.0031419115854352487,92.3076923076923,0.0
498,-0.1262127757742629,0.00149789521084769,92.3076923076923,0.0
499,-0.12855428170680966,-0.00045964781603335687,92.3076923076923,0.0
500,-0.1310306998523741,-0.002573998499294983,92.3076923076923,0.0
501,-0.13337572100371492,-0.004673298336865538,92.3076923076923,0.0
502,-0.1353738811611497,-0.006598286901095806,92.3076923076923,0.0
503,-0.1368968587796577,-0.008225329067121364,92.3076923076923,0.0
504,-0.13791430182702966,-0.009480483052060496,92.3076923076923,0.0
505,-0.1384801462574349,-0.010342777948759908,92.3076923076923,0.0
506,-0.13870197232831474,-0.010837498979173365,92.3076923076923,0.0
507,-0.1387042557227179,-0.011022430250554563,92.3076923076923,0.0
508,-0.13859605064750175,-0.010971183155743703,92.3076923076923,0.0
509,-0.13845049369212015,-0.01075775798692123,92.3076923076923,0.0
510,-0.13829896097212707,-0.010445484590550759,92.3076923076923,0.0
511,-0.13813824757882368,-0.010081849313600965,92.3076923076923,0.0
512,-0.1379459608125309,-0.009698938099495038,92.3076923076923,0.0
513,-0.13769807481526217,-0.009317777541558468,92.3076923076923,0.0
514,-0.1373832729232856,-0.008954061557040458,92.3076923076923,0.0
515,-0.13701069495491747,-0.008622732986036379,92.3076923076923,0.0
516,-0.1366100790348909,-0.00833956643198306,92.3076923076923,0.0
517,-0.13622520432864754,-0.00811903581675424,92.3076923076923,0.0
518,-0.1359026061726977,-0.007969030077685135,92.3076923076923,0.0
519,-0.13567789423202142,-0.007884079626928053,92.3076923076923,0.0
520,-0.13556214055663743,-0.007839408911724594,92.3076923076923,0.0
521,-0.13553111765516745,-0.007788174893769302,92.3076923076923,0.0
522,-0.13552057554496177,-0.007663657552841923,92.3076923076923,0.0
523,-0.13543062384821367,-0.007387048059159389,92.3076923076923,0.0
524,-0.13514087733392866,-0.006880073719854072,92.3076923076923,0.0
525,-0.1345351288196639,-0.006080336485383642,92.3076923076923,0.0
526,-0.13353070215047155,-0.004956274943326899,92.3076923076923,0.0
527,-0.13210483369811965,-0.003518372053839961,92.3076923076923,0.0
528,-0.1303099351444102,-0.0018237528502879183,92.3076923076923,0.0
529,-0.1282720348441028,2.742815150567771e-05,92.3076923076923,0.0
530,-0.1261714328554946,0.0019036998516370482,92.3076923076923,0.0
531,-0.12420995492235588,0.00366022673159267,92.3076923076923,0.0
532,-0.12257317959357569,0.005159781940316304,92.3076923076923,0.0
533,-0.1213972228935694,0.006292889865638503,92.3076923076923,0.0
534,-0.1207477953481499,0.006993511171493617,92.3076923076923,0.0
535,-0.12061516607969126,0.0072476310143530474,92.3076923076923,1.0
536,-0.1209239922415837,0.007093581075224454,92.3064080778674,0.0
537,-0.12155335729006754,0.0066145040042708105,92.30257726549223,0.0
538,-0.12236083438559403,0.005924699962461654,92.29623299423612,0.0
539,-0.12320500563769929,0.005152435876447255,92.2874087840153,0.0
540,-0.1239628661546038,0.004422062664288469,92.27613853300252,0.0
541,-0.12454087147569497,0.0038380364544983083,92.26245649973008,0.0
542,-0.12488020966165587,0.0034728372326618927,92.24639728530084,0.0
543,-0.12495779754365452,0.003360013003610658,92.22799581572168,0.0
544,-0.12478451768867026,0.0034928100770634488,92.20728732437252,0.0
545,-0.12440160570622343,0.003828177036251118,92.18430733462436,0.0
546,-0.12387530553616784,0.004295381459019924,92.15909164261902,0.0
547,-0.1232893994566403,0.004808041427541007,92.13167630022247,0.0
548,-0.12273529008494342,0.00527802681235914,92.10209759816419,0.0
549,-0.12229993935125233,0.005629429024672552,92.07039204937287,0.0
550,-0.12205283346037846,0.005810669649836172,92.03659637251998,0.0
551,-0.12203385486759645,0.005802884813428221,92.00074747578117,0.0
552,-0.12224428447864923,0.0056230541549123075,91.96288244082523,0.0
553,-0.1226431194531509,0.005320981043341244,91.92303850704005,0.0
554,-0.12315051037203696,0.004970150431402394,91.88125305600424,0.0
555,-0.12365932251525942,0.0046535845794796,91.8375635962129,0.0
556,-0.12405445562494472,0.0044468943095765,91.79200774806519,0.0
557,-0.12423759194299847,0.00440154022420383,91.744623229121,0.0
558,-0.12415282571697078,0.0045316312127187,91.69544783963407,0.0
559,-0.12380692838766806,0.004807225267343571,91.64451944836722,0.0
560,-0.12327778857594995,0.005156029013651489,91.59187597869611,0.0
561,-0.12270651169804873,0.005473767869603708,91.53755539500703,0.0
562,-0.12227265824785817,0.005641643482504445,91.48159568939333,0.0
563,-0.12215707100128322,0.0055476445086939585,91.42403486865553,0.0
564,-0.12250100445866162,0.005107465481488475,91.36491094160883,0.0
565,-0.12337222083332755,0.00428072208793537,91.30426190670215,0.0
566,-0.12474748299924848,0.003079102598443869,91.24212573995143,0.0
567,-0.126516627777791,0.0015648634119630814,91.17854038319052,0.0
568,-0.12850731396848294,-0.00015977223655426302,91.113543732642,0.0
569,-0.13052347790204358,-0.0019697696049780907,91.04717362780984,0.0
570,-0.13238653842100429,-0.0037371406776463174,90.97946784069573,0.0
571,-0.13396796275282236,-0.005349337430992309,90.91046406534042,0.0
572,-0.13520516526662363,-0.00672271983001059,90.84019990769089,0.0
573,-0.13609858759978755,-0.007809117359938306,90.76871287579411,0.0
574,-0.13669391334234302,-0.008595302813630244,90.69604037031753,0.0
575,-0.13705742585153766,-0.009096814764489864,90.62221967539648,0.0
576,-0.13725324424451632,-0.009348597749760297,90.54728794980757,0.0
577,-0.13732874901327813,-0.00939518186117489,90.47128221846829,0.0
578,-0.1373103510708104,-0.009282641476307443,90.39423936426083,0.0
579,-0.13720777907935966,-0.009053596105343667,90.31619612017994,0.0
580,-0.1370227695556726,-0.008745382019772159,90.23718906180227,0.0
581,-0.1367579197886212,-0.008390557279475661,90.15725460007631,0.0
582,-0.1364228991661631,-0.008018335243307365,90.0764289744305,0.0
583,-0.13603704279118944,-0.007655467611980734,89.99474824619719,0.0
584,-0.13562858313400308,-0.007325481005848376,89.91224829235043,0.0
585,-0.13523109384725562,-0.007045875137944756,89.82896479955446,0.0
586,-0.13487748975006653,-0.006823722413143128,89.74493325852029,0.0
587,-0.13459182606309916,-0.006650856791303679,89.6601889586676,0.0
588,-0.13437968492434896,-0.006500308772929226,89.57476698308797,0.0
589,-0.13421913795089313,-0.00632568709132493,89.48870220380708,0.0
590,-0.13405555016535703,-0.006064761966164343,89.4020292773415,0.0
591,-0.13380391130976643,-0.005647616601824235,89.31478264054707,0.0
592,-0.13336116569153095,-0.005008573528022536,89.22699650675467,0.0
593,-0.13262807826204137,-0.0040999455533593755,89.1387048621896,0.0
594,-0.13153639154561492,-0.0029048299553376773,89.04994146267076,0.0
595,-0.13007394784177023,-0.0014459406600801361,88.9607398305852,0.0
596,-0.12829959254678827,0.00021199691486223533,88.87113325213423,0.0
597,-0.1263417475297916,0.00196753506308954,88.78115477484641,0.0
598,-0.12437906235741376,0.0036950621121635977,88.6908372053536,0.0
599,-0.12260701793153025,0.00526253614901116,88.60021310742516,0.0
600,-0.12119886853184977,0.006551054169663328,88.50931480025613,0.0
601,-0.12027127964415481,0.007472450087478873,88.41817435700524,0.0
602,-0.11986374548316146,0.007981562189886191,88.32682360357741,0.0
603,-0.11993674771606751,0.00808104693222463,88.23529411764706,1.0
604,-0.12038798808716383,0.007818294955070568,88.13397718860507,0.0
605,-0.12108075128013523,0.007275666891901785,88.01343156907768,0.0
606,-0.12187532203784053,0.006556480886470901,87.87395720435164,0.0
607,-0.12265447280295176,0.005769680905197061,87.7158762787949,0.0
608,-0.12333721159605936,0.0050158579682364314,87.53953203909104,0.0
609,-0.1238798240967729,0.00437647362679635,87.3452875716812,0.0
610,-0.12426769877741078,0.003907078111902757,87.13352454164304,0.0
611,-0.12450377818637895,0.0036343766910032485,86.90464190024784,0.0
612,-0.12459914696986744,0.0035564310629453656,86.65905456838712,0.0
613,-0.12456890396100632,0.003645171393373813,86.39719210295436,0.0
614,-0.12443344745586389,0.0038506442764650746,86.11949735310706,0.0
615,-0.12422293933513806,0.004106814061313635,85.82642511312548,0.0
616,-0.12398166338837592,0.004339017246851878,85.51844077833172,0.0
617,-0.12376917537856952,0.00447314887941995,85.19601901023705,0.0
618,-0.12365610020102595,0.004446269947166933,84.85964241675919,0.0
619,-0.12371379071639084,0.0042176522049962965,84.50980025299081,0.0
620,-0.12399870891614678,0.003778540444358105,84.14698714761944,0.0
621,-0.12453427175262287,0.0031584026293874526,83.77170185969504,0.0
622,-0.12529471137919962,0.002425431913411555,83.3844460700268,0.0
623,-0.12619656520161968,0.0016797308773467891,82.9857232110628,0.0
624,-0.12710296885590355,0.0010389354074484137,82.57603733867701,0.0
625,-0.1278435464573156,0.0006177973989608712,82.15589204885623,0.0
626,-0.12824860483407888,0.000505029553070205,81.72578944185238,0.0
627,-0.12819148194418822,0.0007420149304840428,81.28622913594536,0.0
628,-0.12762875354880354,0.0013083364027241552,80.83770733255345,0.0
629,-0.12662622551746194,0.0021182203365260567,80.38071593403168,0.0
630,-0.12536051286653618,0.0030299594730531215,79.91574171512083,0.0
631,-0.12409175887856529,0.003867572331949045,79.44326554864895,0.0
632,-0.12311137878985576,0.004451035311474049,78.96376168574761,0.0
633,-0.12267695276563881,0.004629159375217061,78.47769709052704,0.0
634,-0.12295145972511907,0.0043082297529143145,77.98553082885985,0.0
635,-0.12396380693894647,0.003470215511678473,77.4877135106512,0.0
636,-0.1256018921501483,0.0021765747083939547,76.98468678472703,0.0
637,-0.12764007842187597,0.0005568892886602191,76.47688288524873,0.0
638,-0.12979303708689263,-0.001215060011266656,75.9647242283644,0.0
639,-0.1317805884108402,-0.002952489290808195,75.44862305763223,0.0
640,-0.13338571828730464,-0.00448746067522216,74.92898113660019,0.0
641,-0.13449108096309131,-0.005697053613649064,74.40618948679742,0.0
642,-0.13508686163817307,-0.006519236138988662,73.88062816928512,0.0
643,-0.13525213040685746,-0.00695639210447729,73.35266610782888,0.0
644,-0.13511941003542724,-0.0070671791891368735,72.82266095168643,0.0
645,-0.13483550688308352,-0.00694958056414467,72.29095897595602,0.0
646,-0.13452999517179012,-0.006719244390364085,71.75789501739932,0.0
647,-0.1342974541263854,-0.006487385194552192,71.2237924436352,0.0
648,-0.13419326386611366,-0.006341852918992021,70.68896315360001,0.0
649,-0.13423808506465504,-0.006333833630090231,70.15370760717994,0.0
650,-0.13442461400902114,-0.006471415697289478,69.61831488194483,0.0
651,-0.13472185103539489,-0.006720202153059304,69.08306275494499,0.0
652,-0.13507571220652617,-0.007010364196275344,68.54821780757597,0.0
653,-0.13540849909268532,-0.0072489567284752645,68.01403555156571,0.0
654,-0.13562181071487228,-0.007335841238722209,67.48076057419652,0.0
655,-0.1356069909519365,-0.00718111441213236,66.9486267009372,0.0
656,-0.1352642826909589,-0.006721561201668797,66.41785717372798,0.0
657,-0.13452764107414728,-0.005933485941800525,65.88866484323366,0.0
658,-0.13338838432895592,-0.004839514495944233,65.36125237345391,0.0
659,-0.13190926019586321,-0.0035077349691479288,64.83581245715725,0.0
660,-0.13022210691430103,-0.0020428315400621193,64.31252804068303,0.0
661,-0.12850690015943436,-0.0005704491473265867,63.79157255673509,0.0
662,-0.12695611256591713,0.0007824667955382918,63.273110163869205,0.0
663,-0.1257336760482174,0.001907603250841048,62.757295991455955,0.0
664,-0.12494025047541364,0.0027315504783066674,62.24427638897804,0.0
665,-0.12459485411016728,0.003225232238703092,61.73418917859757,0.0
666,-0.1246376922219338,0.003404850779788129,61.22716391000409,0.0
667,-0.12495217733223744,0.00332462255680938,60.72332211662696,0.0
668,-0.1253982756246259,0.003063380305181503,60.22277757236641,0.0
669,-0.12584658377937383,0.002708331776888351,59.72563654806618,0.0
670,-0.12620368786614877,0.0023396131618838483,59.23199806701624,0.0
671,-0.12642348662543113,0.0020187298015873836,58.74195415883753,0.0
672,-0.12650430938620832,0.0017827552234852546,58.25559011116028,0.0
673,-0.12647581117152185,0.0016446349807399511,57.772984718565894,0.0
674,-0.12638158578451983,0.0015985202336830275,57.29421052831586,0.0
675,-0.12626309614184775,0.0016280613456862662,56.81933408244335,0.0
676,-0.12614859592899244,0.0017151944882451775,56.3484161558319,0.0
677,-0.12604826166016514,0.0018471573264322375,55.881511989950674,0.0
678,-0.1259547430652459,0.0020201431673470297,55.418671521959645,0.0
679,-0.1258473705272048,0.002238943428107365,54.959939608937525,0.0
680,-0.12569837169988884,0.0025129200018021653,54.50535624702298,0.0
681,-0.12548014650712314,0.002849505311235832,54.05495678529452,0.0
682,-0.12517319155835369,0.0032470097242664757,53.608772134246614,0.0
683,-0.12477413611757192,0.0036887350434189627,53.16682896874938,0.0
684,-0.12430258958644892,0.0041402089144462525,52.72914992540694,0.0
685,-0.12380466101952979,0.004550779977724511,52.29575379425433,0.0
686,-0.12335080979214613,0.004859920377065204,51.866655704756404,0.0
687,-0.12302656663156179,0.005007512376235852,51.4418673060928,0.0
688,-0.12291654210653832,0.004946352776075755,51.02139694173259,0.0
689,-0.12308442930172266,0.004654328864830919,50.60524981831918,0.0
690,-0.12355358420966651,0.004143421190159177,50.19342816890186,0.0
691,-0.12429352004593326,0.0034630112959092452,49.78593141056429,0.0
692,-0.12521693471965262,0.0026959256776079195,49.382756296512696,0.0
693,-0.12618978830921837,0.0019470841478031924,48.98389706269761,0.0
694,-0.12705390599898342,0.001326255315148272,48.5893455690528,0.0
695,-0.1276582991212997,0.0009278848038783076,48.19909143544353,0.0
696,-0.12789268814929292,0.0008118880444200547,47.81312217242335,0.0
697,-0.12771534949994476,0.0009894234398948915,47.43142330690577,0.0
698,-0.12716794976075113,0.0014168955412509824,47.05397850286144,0.0
699,-0.12637263536913707,0.001999907631631656,46.68076967715686,0.0
700,-0.12551089561004924,0.002606909374491483,46.31177711065367,0.0
701,-0.12478854647440739,0.0030903083256307324,45.94697955469088,0.0
702,-0.12439507703938582,0.003311282795403025,45.586354333074155,0.0
703,-0.12446712319872429,0.0031637876067635096,45.22987743969829,0.0
704,-0.125064313307567,0.00259342802407433,44.87752363192969,0.0
705,-0.12616171467220674,0.0016079102577418861,44.52926651987627,0.0
706,-0.12765823588177908,0.00027739119400206863,44.18507865167228,0.0
707,-0.12939655569033934,-0.001275124361947235,43.844931594904956,0.0
708,-0.13118869566037583,-0.0028915210130113778,43.50879601430938,0.0
709,-0.1328421713143284,-0.0044013934335844366,43.176641745856706,0.0
710,-0.13418361660994255,-0.005646253452566916,42.848437867359365,0.0
711,-0.1350785191267291,-0.006501394957095618,42.52415276571561,0.0
712,-0.13544643220892286,-0.006892205610784584,42.20375420091343,0.0
713,-0.13527077623206663,-0.0068026649752445,41.88720936691212,0.0
714,-0.13460171299284207,-0.006275010522136403,41.57448494951729,0.0
715,-0.13355034082314035,-0.005400926314374255,41.2655471813631,0.0
716,-0.13227319855642727,-0.004305932585070577,40.96036189411237,0.0
717,-0.1309479624841733,-0.0031297280546844584,40.65889456798333,0.0
718,-0.12974389019153892,-0.002005863642265635,40.36111037870862,0.0
719,-0.12879305020777504,-0.0010441559930299009,40.06697424202938,0.0
720,-0.12816941597067902,-0.0003186321449264053,39.77645085582493,0.0
721,-0.12788154269135107,0.00013737567023737278,39.48950473997514,0.0
722,-0.12788081707732876,0.0003288562295072708,39.20610027405018,0.0
723,-0.1280824304931177,0.0002908076357779522,38.92620173291926,0.0
724,-0.12839224476158248,7.642781408993344e-05,38.64977332036727,0.0
725,-0.1287312490982459,-0.0002552856432152581,38.37677920080522,0.0
726,-0.12905083223353914,-0.0006498736072169454,38.107183529157766,0.0
727,-0.1293357929492296,-0.0010639054845707828,37.84095047900823,0.0
728,-0.1295962930955295,-0.0014670414836064206,37.578044269078674,0.0
729,-0.12985324229567866,-0.001840284955519472,37.318429188120106,0.0
730,-0.13012293554096194,-0.0021719143524666137,37.06206961828507,0.0
731,-0.13040603746930698,-0.0024529335350866608,36.80893005705222,0.0
732,-0.13068382763510855,-0.002673675460771434,36.558975137770084,0.0
733,-0.1309219412119257,-0.002822564329444909,36.312169648884634,0.0
734,-0.13107955893925752,-0.0028872145263249636,36.0684785519127,0.0
735,-0.13112070466478049,-0.0028572761907970793,35.82786699822113,0.0
736,-0.13102418140127708,-0.0027279331455176588,35.59030034466908,0.0
737,-0.13078953178571778,-0.002502826251266105,35.35574416816856,0.0
738,-0.1304378100790956,-0.0021954060973408654,35.12416427921643,0.0
739,-0.13000739774196124,-0.0018282082311878826,34.89552673444832,0.0
740,-0.12954620858561103,-0.0014301307450509618,34.669797848263606,0.0
741,-0.12910226396358382,-0.0010323105718789926,34.446944203567995,0.0
742,-0.12871479196341729,-0.0006635120684066211,34.22693266167857,0.0
743,-0.1284077688684683,-0.000345997309820214,34.00973037143425,0.0
744,-0.12818720354585245,-9.26558164639484e-05,33.79530477755282,0.0
745,-0.1280425297005603,9.41893680976311e-05,33.58362362827371,0.0
746,-0.12795139595330957,0.00022229610602833615,33.374654982324415,0.0
747,-0.12788622110372905,0.00030768312301395254,33.168367215246455,0.0
748,-0.12782043635423065,0.00037201607554264145,32.9647290251153,0.0
749,-0.12773260415459664,0.00043975134547761196,32.7637094376872,0.0
750,-0.1276075823270651,0.000535444695132482,32.56527781100448,0.0
751,-0.12743523469457171,0.0006814080805142095,32.36940383948923,0.0
752,-0.12720823857941602,0.0008956893482189696,32.17605755755415,0.0
753,-0.12692073605654033,0.0011902358342734164,31.985209342757916,0.0
754,-0.1265688320587951,0.00156912260873118,31.79682991853128,0.0
755,-0.12615275956823402,0.0020268670553190765,31.610890356498846,0.0
756,-0.12567965399693398,0.0025470587350426635,31.42736207842016,0.0
757,-0.12516576096732188,0.0031017295391938702,31.246216857773103,0.0
758,-0.12463742238884921,0.0036519966724553976,31.067426821000907,0.0
759,-0.1241307973329685,0.004150471202391213,30.890964448443643,0.0
760,-0.12369044612906993,0.0045457092484258,30.716802574973656,0.0
761,-0.12336653039147702,0.004788600627225865,30.544914390353792,0.0
762,-0.12320986725122927,0.004840093301064643,30.37527343933612,0.0
763,-0.1232640700096149,0.0046791381940540465,30.20785362151814,0.0
764,-0.12355492138343625,0.004309340806026941,30.042629190972693,0.0
765,-0.12407878222535346,0.00376266811176781,29.879574755666795,0.0
766,-0.12479349097371244,0.0030987968545629976,29.718665276684092,0.0
767,-0.12561592511468042,0.0023993410338823762,29.55987606726488,0.0
768,-0.12642954151346023,0.0017571868743720622,29.40318279167676,0.0
769,-0.12710274665010407,0.0012622969685117573,29.248561463928553,0.0
770,-0.12751546145793693,0.000986340178775373,29.09598844633957,0.0
771,-0.12758783680744387,0.0009690672019991789,28.945440447975205,0.0
772,-0.12730309304441692,0.0012092717902039978,28.796894522960088,0.0
773,-0.1267170350312764,0.0016624049991728522,28.650328068678583,0.0
774,-0.12595023434817967,0.00224559329535518,28.505718823872744,0.0
775,-0.12516421415853524,0.0028492696190918036,28.36304486664669,0.0
776,-0.12452820047597102,0.0033532584023913243,28.22228461238621,0.0
777,-0.12418592963421077,0.0036443166351502873,28.083416811601996,0.0
778,-0.12423138670870675,0.0036320226317852356,27.94642054770434,0.0
779,-0.12469856217028251,0.0032605047204466732,27.811275234716728,0.0
780,-0.12556514652631354,0.0025145941303728317,27.677960614935515,0.0
781,-0.12676582274202788,0.001420230610997832,27.546456756542284,0.0
782,-0.12820906657988437,4.0003180265758744e-05,27.41674405117551,0.0
783,-0.12979227705639668,-0.0015346678802506315,27.28880321146728,0.0
784,-0.13141246619484515,-0.0031930848917454168,27.162615268550983,0.0
785,-0.1329720943995985,-0.004815243478748816,27.038161569545494,0.0
786,-0.1343810562230595,-0.006281426282216658,26.915423775020734,0.0
787,-0.135556403778033,-0.00748113640001004,26.794383856449745,0.0
788,-0.1364217062127682,-0.008321386841982394,26.675024093651857,0.0
789,-0.13690821608845782,-0.00873435161292781,26.557327072231192,0.0
790,-0.13695985944057648,-0.00868408813805074,26.441275681014933,0.0
791,-0.1365429070838744,-0.008171601452853498,26.326853109494994,0.0
792,-0.13565893659544218,-0.007237154286745837,26.21404284527714,0.0
793,-0.13435709792733957,-0.00595865471914284,26.102828671540905,0.0
794,-0.132740048853404,-0.004445318451511382,25.99319466451371,0.0
795,-0.13095841871302458,-0.0028266062016144154,25.885125190962444,0.0
796,-0.12919168066820236,-0.0012375100806818365,25.77860490570549,0.0
797,-0.1276180826371409,0.0001976958519978669,25.673618749148076,0.0
798,-0.12638100711167352,0.001380460792002376,25.570151944843722,0.0
799,-0.12556167222468045,0.002248916411153094,25.468189997084334,0.0
800,-0.12516696746410036,0.00278269354035332,25.36771868852144,0.0
801,-0.12513644062039023,0.003000785582865341,25.268724077821016,0.0
802,-0.12536576296729354,0.0029531740416415464,25.171192497353957,0.0
803,-0.12573825583667356,0.002708272996907438,25.07511055092448,0.0
804,-0.12615385303385354,0.002339039591379344,24.980465111538546,0.0
805,-0.12654708944011142,0.0019106488958830466,24.887243319214043,0.0
806,-0.12689100231364156,0.0014719865451895849,24.795432578834877,0.0
807,-0.12718943373762887,0.0010521101528250167,24.70502055805051,0.0
808,-0.12746355799794437,0.0006616071659706319,24.6159951852229,0.0
809,-0.12773852558726473,0.00029774860250264784,24.528344647422305,0.0
810,-0.12803376569639494,-4.828872818192766e-05,24.44205738847371,0.0
811,-0.1283575957175029,-0.0003840215968388455,24.357122107055325,0.0
812,-0.12870499489400383,-0.0007097297120888168,24.27352775485072,0.0
813,-0.12905726155409766,-0.001015127982285455,24.19126353475591,0.0
814,-0.1293832016410823,-0.0012791333289120192,24.11031889914311,0.0
815,-0.12964239304915945,-0.0014725809961052467,24.030683548182186,0.0
816,-0.12979111263840443,-0.001563212659392169,23.95234742822135,0.0
817,-0.1297905976896815,-0.0015218984041274336,23.87530073022851,0.0
818,-0.12961600119739528,-0.001328905088738347,23.799533888294327,0.0
819,-0.12926351638366393,-0.0009790896301642696,23.725037578198553,0.0
820,-0.12875331034890453,-0.0004851442930523679,23.651802716040706,0.0
821,-0.12812720038401254,0.00012161659575444329,23.579820456936528,0.0
822,-0.12744189904232434,0.0007930518957932325,23.509082193781417,0.0
823,-0.12676024411616352,0.0014683641583386653,23.43957955608205,0.0
824,-0.1261433069626473,0.0020802117783972106,23.37130440885767,0.0
825,-0.12564536502137466,0.002562199597460158,23.30424885161207,0.0
826,-0.12531186926569993,0.002857102027465849,23.238405217377796,0.0
827,-0.12517868519233646,0.002925072926754,23.17376607183373,0.0
828,-0.1252700451241018,0.002750944581656257,23.110324212497495,0.0
829,-0.1255933787887741,0.0023495419051585455,23.048072667993985,0.0
830,-0.1261312669399763,0.0017678331516631147,22.987004697401353,0.0
831,-0.12683323227299617,0.0010828383286332613,22.92711378967608,0.0
832,-0.12761169997787744,0.0003946332318980937,22.868393663158322,0.0
833,-0.12834631708794114,-0.00018545215100167775,22.81083826515919,0.0
834,-0.12889876594136915,-0.0005503361411898044,22.754441771631477,0.0
835,-0.1291368791733149,-0.0006142548375300062,22.699198586925355,0.0
836,-0.1289633828803459,-0.000328504475313743,22.645103343630783,0.0
837,-0.12834216308375254,0.0003072543134700116,22.59215090250818,0.0
838,-0.12731449854711463,0.001240754426664414,22.54033635250927,0.0
839,-0.12599960946256306,0.002371397715864498,22.48965501088971,0.0
840,-0.12457777382104332,0.003562872729214547,22.440102423415652,0.0
841,-0.12325905441746571,0.004662218585909257,22.391674364665892,0.0
842,-0.12224480660056691,0.005522050757266559,22.344366838431863,0.0
843,-0.12169117580027243,0.00602196475479136,22.298176078217505,0.0
844,-0.12168306262665647,0.006085305405354053,22.253098547841148,0.0
845,-0.12222389491766678,0.00568848990626363,22.209130942141847,0.0
846,-0.12324218816561752,0.004861647136278867,22.166270187792367,0.0
847,-0.12461171339877258,0.003681091201341716,22.124513444221435,0.0
848,-0.12617920934082658,0.0022556653399586767,22.083858104647845,0.0
849,-0.12779251596814964,0.0007099414387712157,22.044301797229085,0.0
850,-0.12932283951315304,-0.000832522852144536,22.00584238632725,0.0
851,-0.1306772619009224,-0.0022631494647828744,21.96847797389539,0.0
852,-0.13180085658373608,-0.003497786299258971,21.932206900987147,0.0
853,-0.13267081979641046,-0.0044810695887460015,21.897027749393025,0.0
854,-0.1332868302299773,-0.005186207992645943,21.86293934340669,0.0
855,-0.13366185425664678,-0.00561143275872409,21.829940751724713,0.0
856,-0.13381605443366448,-0.005774662330090986,21.798031289483482,0.0
857,-0.13377425917509075,-0.005707824716548056,21.767210520437217,0.0
858,-0.13356572446336715,-0.005451885521302372,21.73747825928098,0.0
859,-0.13322436773752197,-0.005053101934419088,21.70883457412292,0.0
860,-0.13278823841266738,-0.004560510488827557,21.68127978911029,0.0
861,-0.13229805385444948,-0.004024264085620071,21.654814487213685,0.0
862,-0.13179538828346143,-0.0034942173881127797,21.62943951317435,0.0
863,-0.1313211318612781,-0.0030181342805388803,21.605155976619805,0.0
864,-0.1309142685355145,-0.0026390444548312136,21.581965255352777,0.0
865,-0.13061035569755775,-0.002391576495837772,21.55986899881925,0.0
866,-0.13043882679622182,-0.0022974906965154513,21.538869131761253,0.0
867,-0.1304185872438183,-0.0023610525065920467,21.518967858060606,0.0
868,-0.13055219443472335,-0.0025652330863439143,21.50016766477989,0.0
869,-0.13081986084067923,-0.002869895654191051,21.482471326407396,0.0
870,-0.1311752318851335,-0.0032130401744426976,21.46588190931297,0.0
871,-0.13154509252310295,-0.003515794116620145,21.450402776422184,0.0
872,-0.13183469780981044,-0.0036911816861892035,21.436037592116445,0.0
873,-0.1319393118033965,-0.003655883986846423,21.42279032736714,0.0
874,-0.1317609814389299,-0.003343389893750183,21.410665265112268,0.0
875,-0.13122794276677605,-0.0027163361089083335,21.399667005884453,0.0
876,-0.13031278467464702,-0.0017756315618094082,21.38980047369955,0.0
877,-0.12904494612277875,-0.0005642711623837976,21.381070922215752,0.0
878,-0.12751357052256143,0.0008354326264688617,21.37348394117331,0.0
879,-0.125858352058152,0.002311266996548781,21.367045463125727,0.0
880,-0.12424870749759229,0.003735912613809768,21.36176177047364,0.0
881,-0.12285485564265089,0.004984679263402775,21.357639502813303,0.0
882,-0.12181715352614852,0.0059530554631817036,21.354685664612077,0.0
883,-0.12122116188000961,0.006570913620930558,21.352907633224103,0.0
884,-0.12108471196334228,0.00681087443570748,21.352313167259787,1.0
885,-0.12135996431427179,0.006689538693705207,21.35539662749383,0.0
886,-0.1219492044383005,0.006261747137689231,21.3645848485508,0.0
887,-0.12272939886532772,0.005609373944144776,21.37979219666148,0.0
888,-0.1235785571854715,0.00482708163194888,21.4009427784441,0.0
889,-0.12439722221606894,0.0040077796776987595,21.42796997897576,0.0
890,-0.12512064252335683,0.0032302261822938776,21.460816042929462,0.0
891,-0.12572045438558135,0.0025504473894944675,21.49943169513465,0.0
892,-0.12619785650504964,0.0019976836610085943,21.543775797295872,0.0
893,-0.12657232377052266,0.0015746776732059463,21.593815037937627,0.0
894,-0.1268703913159632,0.0012615048873967202,21.649523652939212,0.0
895,-0.127118022186152,0.0010218850757695488,21.71088317428615,0.0
896,-0.12733803796418547,0.000810949982746025,21.777882204898226,0.0
897,-0.12755173512910362,0.0005836246953463392,21.850516217601562,0.0
898,-0.12778188532426185,0.00030293458028882603,21.92878737649696,0.0
899,-0.12805352400962727,-5.244448434730501e-05,22.01270437914083,0.0
900,-0.12838972516088587,-0.00048222860368264935,22.10228231810108,0.0
901,-0.1288018865566815,-0.0009612018369411486,22.197542560579965,0.0
902,-0.12927716161837569,-0.001439633862934739,22.298512644910975,0.0
903,-0.1297682589225816,-0.0018482898952842846,22.405226192838462,0.0
904,-0.13019155522065248,-0.002108204825948974,22.51772283657847,0.0
905,-0.13043765980189084,-0.002144357757863801,22.636048159737875,0.0
906,-0.1303946082842755,-0.001901225270144067,22.760253651237303,0.0
907,-0.12997905643972446,-0.001357262990048571,22.89039667144264,0.0
908,-0.1291669208283042,-0.0005350213507070953,23.026540429759926,0.0
909,-0.1280134586989103,0.0004959262632120205,23.168753972990725,0.0
910,-0.1266547115669346,0.0016247727385754994,23.317112183778836,0.0
911,-0.1252873517255015,0.0027136582568791636,23.47169578850588,0.0
912,-0.1241307505506498,0.0036179598511591037,23.63259137401205,0.0
913,-0.12338108340109735,0.004208879644823755,23.799891412530243,0.0
914,-0.1231701312039921,0.004393866246522351,23.97369429422579,0.0
915,-0.12353998510997041,0.00413082199007871,24.154104366731378,0.0
916,-0.12443972244360021,0.0034334383769833053,24.341231981055827,0.0
917,-0.12574331634746766,0.002366986373339728,24.535193543227372,0.0
918,-0.12728202549058978,0.0010359352331706997,24.736111571005637,0.0
919,-0.1288811945370125,-0.000433638939647659,24.94411475496177,0.0
920,-0.13039154654874935,-0.001913125104279466,25.159338023182602,0.0
921,-0.13170819074516535,-0.0032883555442721514,25.38192260880137,0.0
922,-0.13277530213451885,-0.0044718423493573245,25.61201611949459,0.0
923,-0.133578986732399,-0.0054089823624718,25.849772608010266,0.0
924,-0.13413372901486342,-0.006078331806997386,26.09535264270692,0.0
925,-0.13446831033023418,-0.006487137975878774,26.348923376984555,0.0
926,-0.13461545416083454,-0.006663907323263853,26.610658616376202,0.0
927,-0.13460673752466734,-0.006649870590142038,26.880738881941838,0.0
928,-0.13447179418788663,-0.006490898830369653,27.159351468463047,0.0
929,-0.13423946417279978,-0.006230920301081015,27.44669049577606,0.0
930,-0.13393856213014954,-0.005907369782879072,27.742956951400604,0.0
931,-0.13359696163273335,-0.005548788389710029,28.04835872242137,0.0
932,-0.13323905723611282,-0.005174420517151782,28.36311061435534,0.0
933,-0.13288276266594576,-0.004795496037690694,28.687434354490215,0.0
934,-0.13253764642843457,-0.00441778149162742,29.021558576904603,0.0
935,-0.13220547565251017,-0.00404488536942308,29.36571878607695,0.0
936,-0.1318834928886776,-0.003681697800710041,29.72015729565575,0.0
937,-0.13156958579402764,-0.003337263647748946,30.08512313859488,0.0
938,-0.1312676138057791,-0.0030263853020210197,30.460871944453793,0.0
939,-0.13099089475334186,-0.0027693802649607652,30.847665779218712,0.0
940,-0.13076232230231577,-0.002589701760838665,31.245772942516435,0.0
941,-0.13061059488281462,-0.002509544446556165,31.65546771656359,0.0
942,-0.1305632193343937,-0.0025440313104379553,32.077030060618775,0.0
943,-0.13063790415809243,-0.0026950105904382494,32.510745244080766,0.0
944,-0.13083438875512252,-0.002945775664182009,32.956903410699965,0.0
945,-0.1311285986810564,-0.0032580697750056687,33.41579906564206,0.0
946,-0.13147044074723413,-0.003572506145407336,33.88773047635906,0.0
947,-0.13178586127558514,-0.00381303052995521,34.372998977384675,0.0
948,-0.13198325299498592,-0.003895340628605469,34.87190816827742,0.0
949,-0.13196396727750204,-0.0037383672300496016,35.38476299298712,0.0
950,-0.13163636062680506,-0.0032771643027054223,35.91186868792203,0.0
951,-0.13093215566364827,-0.0024750149688651715,36.45352958494763,0.0
952,-0.12982279609733618,-0.0013323905583053314,37.01004775446238,0.0
953,-0.12833223543575692,0.0001092956289035019,37.58172147257785,0.0
954,-0.12654195721179473,0.0017704047120037716,38.168843495294134,0.0
955,-0.12458477834287517,0.0035423431480838246,38.771699121421946,0.0
956,-0.12262645659468457,0.005302125884859693,39.39056402488044,0.0
957,-0.12083776729401477,0.006929760194570105,40.0257018359219,0.0
958,-0.11936321502656874,0.008325221274852272,40.677361449831274,0.0
959,-0.11829438405232844,0.00942172012446885,41.34577404076109,0.0
960,-0.11765514522391655,0.01019265592238787,42.03114975763817,0.0
961,-0.11740263495803799,0.010650976386618455,42.733674078572996,0.0
962,-0.11744328210180546,0.010841339264697446,43.4535037999874,0.0
963,-0.1176589163056024,0.010827072869735613,44.19076263682599,0.0
964,-0.11793563186870419,0.0106750767267384,44.9455364108292,0.0
965,-0.11818816475919226,0.01044220180915582,45.717867805023914,0.0
966,-0.11837457246349656,0.01016620650105767,46.50775066445543,0.0
967,-0.11849890198059986,0.00986320804504644,47.31512382587718,0.0
968,-0.11860229680373993,0.009531921051244799,48.139864462787244,0.0
969,-0.11874513769901751,0.009163276903514764,48.98178093701651,0.0
970,-0.11898430539589196,0.008752645402829322,49.840605154217805,0.0
971,-0.11935060867208869,0.008311154404733425,50.71598442826476,0.0
972,-0.11983179002465569,0.007872705055250675,51.607472868944384,0.0
973,-0.1203660090088742,0.007494208570342853,52.51452231861421,0.0
974,-0.12084894973196975,0.007248137366259984,53.436472876884565,0.0
975,-0.1211546307949929,0.007208346835786776,54.372543068049914,0.0
976,-0.1211661524825719,0.00743185853132311,55.321819724070174,0.0
977,-0.1208091772872604,0.007940487984047888,56.28324767648463,0.0
978,-0.12007931022170669,0.008706551966864429,57.255619373748,0.0
979,-0.11905564784621572,0.009646294481149106,58.23756456604072,0.0
980,-0.11789645635223105,0.01062324509680371,59.22754022743306,0.0
981,-0.11681792886019637,0.011461778221313095,60.22382091503424,0.0
982,-0.11606135206391174,0.01196910059500561,61.224489795918366,1.0
983,-0.11585616866868684,0.011962185848800374,62.26125409916372,0.0
984,-0.11638586695003672,0.011295136532382833,63.36866961771142,0.0
985,-0.11776126274156988,0.009882269511102378,64.54906870259735,0.0
986,-0.12000329631608223,0.007712904561435935,65.80494182049162,0.0
987,-0.12303635834306287,0.004855253039895853,67.13892498803463,0.0
988,-0.12669342727650612,0.0014487039555595499,68.55378391591154,0.0
989,-0.13073453145476477,-0.0023141389398550925,70.05239395915586,0.0
990,-0.13487851779126694,-0.0062124721096043535,71.63771482205146,0.0
991,-0.13884437014362877,-0.010024894380918303,73.31275879588095,0.0
992,-0.14239391350012656,-0.013554727548960175,75.08055111582699,0.0
993,-0.14536531108408032,-0.016648781596245242,76.94408081118236,0.0
994,-0.1476882373109761,-0.01920679961206177,78.9062401944703,0.0
995,-0.14937684784265223,-0.021180920751879145,80.9697508971108,0.0
996,-0.15050355988104078,-0.02256670040442,83.13707412337762,0.0
997,-0.1511624360840288,-0.02338897679369997,85.41030257820195,0.0
998,-0.15143363216713604,-0.02368672923506251,87.79103135369418,0.0
999,-0.15135932800738647,-0.023500831684913345,90.28020497042834,0.0
1000,-0.1509374608346066,-0.022867367607521796,92.87793781212329,0.0
1001,-0.15013381336827805,-0.021817317090069586,95.58330543179484,0.0
1002,-0.14890729644490427,-0.020381496996594792,98.39410472734036,0.0
1003,-0.14723928859500923,-0.018598173757346737,101.30658188775344,0.0
1004,-0.14515689937740378,-0.016520161565043948,104.3151284188783,0.0
1005,-0.14274236574149685,-0.014218585108746911,107.41194760421078,0.0
1006,-0.14012566854469083,-0.011781654512884198,110.58669657853684,0.0
1007,-0.13746309242702856,-0.009308376563551254,113.82611290994316,0.0
1008,-0.13490878874307607,-0.006898624795496973,117.113639271108,0.0
1009,-0.13258798867540794,-0.004641986074859882,120.42906541454055,0.0
1010,-0.13057909313457736,-0.0026080497442591746,123.7482130806676,0.0
1011,-0.1289083381170497,-0.0008403019221381244,127.04269627850536,0.0
1012,-0.12755661581533617,0.0006452573957562331,130.27979591842393,0.0
1013,-0.12647476185964418,0.001856901688737261,133.42249304297226,0.0
1014,-0.12560204224797655,0.002820582539121816,136.42970755170634,0.0
1015,-0.12488276795004889,0.0035718172642538243,139.25678773837373,0.0
1016,-0.12427741976993809,0.004148023203691379,141.85628846330752,0.0
1017,-0.1237666611691093,0.004582847609740327,144.17906092880278,0.0
1018,-0.12334856489534861,0.004903288687259179,146.1756540761467,0.0
1019,-0.12303094342556586,0.005129553297225437,147.7979970788955,0.0
1020,-0.12282167714154447,0.005276887836440456,149.00129646410596,0.0
1021,-0.12272023488197194,0.0053582219420338206,149.74604415769042,0.0
1022,-0.12271306015823301,0.005386446834921224,150.0,1.0
1023,-0.12277418397968506,0.00537546757852782,149.93297995795876,0.0
1024,-0.1228706455198717,0.005339690775776206,149.73407228761718,0.0
1025,-0.12297066446163704,0.005292164555851976,149.40700360270085,0.0
1026,-0.12305167227672731,0.005242016292137919,148.9561155422797,0.0
1027,-0.12310562103215779,0.005192031678266568,148.38629899839248,0.0
1028,-0.12314025301501921,0.005137161480787472,147.70292412402318,0.0
1029,-0.1231765829217739,0.005064478541137177,146.91176773053638,0.0
1030,-0.1232439709392304,0.004954734254000073,146.0189396299296,0.0
1031,-0.12337441761698652,0.004785289478393213,145.03080937827227,0.0
1032,-0.12359719667143373,0.004533908584660678,143.9539347408829,0.0
1033,-0.12393420650239763,0.0041827584521344705,142.79499303636416,0.0
1034,-0.1243960598541648,0.003721957753442873,141.5607163349742,0.0
1035,-0.12497914917814727,0.003152153890367374,140.2578312960104,0.0
1036,-0.12566439064337082,0.0024858211405800355,138.8930042371626,0.0
1037,-0.12641846609096297,0.001747216891245614,137.47279184328102,0.0
1038,-0.12719778365948337,0.0009711431665059625,136.00359774850577,0.0
1039,-0.12795426707409763,0.0002007870720682496,134.49163506860418,0.0
1040,-0.1286411441541479,-0.0005150703398702277,132.94289482267192,0.0
1041,-0.12921682693000458,-0.001125271037041994,131.36312006676746,0.0
1042,-0.12964594150948114,-0.0015798489223922258,129.75778546712803,0.0
1043,-0.1298980943799878,-0.0018339779768064023,128.13208196694703,0.0
1044,-0.12994622199239575,-0.001852320126053579,126.49090614712073,0.0
1045,-0.12976670426177514,-0.001613637733752794,124.83885384616025,0.0
1046,-0.1293426905320636,-0.0011152527453046112,123.18021758553634,0.0
1047,-0.12867064422795396,-0.0003766126537867188,121.51898734177213,0.0
1048,-0.12776853649970893,0.0005590045528592933,119.85885421327843,0.0
1049,-0.12668294227680219,0.0016256146245972733,118.20321654592863,0.0
1050,-0.12549188808741876,0.0027391372440806225,116.5551881045329,0.0
1051,-0.12430086253230338,0.0038055325521505925,114.91760790571854,0.0
1052,-0.1232309107978942,0.004731695716216837,113.2930513595166,0.0
1053,-0.12239993288652176,0.005437540880298234,111.6838424006963,0.0
1054,-0.1219006851556006,0.005867151256050471,110.09206632533231,0.0
1055,-0.1217808358173152,0.005996766821758173,108.51958308223107,0.0
1056,-0.12203094928612458,0.005837823905338232,106.96804080188947,0.0
1057,-0.12258487049949564,0.0054341995597563504,105.43888937703188,0.0
1058,-0.12333367134623138,0.004854042173644529,103.93339393805014,0.0
1059,-0.12415004177844435,0.004177777126780257,102.45264809359529,0.0
1060,-0.12491639961558294,0.0034847351907424536,100.99758683099196,0.0
1061,-0.12554865672310744,0.0028411200560616197,99.56899899302552,0.0
1062,-0.12600919183330592,0.002291632774875747,98.1675392670157,0.0
1063,-0.12630646454747463,0.0018561193225192776,96.7937396390368,0.0
1064,-0.12648316977131682,0.0015313720456700958,95.44802028079535,0.0
1065,-0.12659806670894072,0.0012970343176713917,94.13069984920261,0.0
1066,-0.126707577250806,0.0011237329105332774,92.84200518924914,0.0
1067,-0.12685203196727876,0.0009812768164472563,91.58208043959397,0.0
1068,-0.1270490195395833,0.0008450365492272908,90.35099554750293,0.0
1069,-0.1272938606518769,0.0006993276481345335,89.14875420559248,0.0
1070,-0.12756558379921884,0.0005375423230818393,87.97530122743139,0.0
1071,-0.12783609065437374,0.00035965204244601005,86.83052938258282,0.0
1072,-0.12808014232678863,0.00016832623283289478,85.71428571428571,0.0
1073,-0.12828396093783337,-3.48545029850661e-05,84.62637736481359,0.0
1074,-0.12845046205419985,-0.0002517968002676411,83.56657693473338,0.0
1075,-0.12859958372648675,-0.0004881394760665185,82.53462740292689,0.0
1076,-0.12876313334406164,-0.0007512983218327389,81.53024663443142,0.0
1077,-0.12897506957965119,-0.0010469737748660523,80.55313150298717,0.0
1078,-0.1292597791264257,-0.0013752907909377514,79.60296165472269,0.0
1079,-0.1296219939749371,-0.0017279017259712775,78.67940293872815,0.0
1080,-0.13004188697169436,-0.0020871513286223092,77.78211052941613,0.0
1081,-0.13047741594084875,-0.0024278395859141893,76.91073176459368,0.0
1082,-0.13087363764184398,-0.0027213805473817456,76.06490872210952,0.0
1083,-0.13117639104134973,-0.0029414528963940694,75.24428055682772,0.0
1084,-0.13134632540372443,-0.0030697713165287353,74.44848561853787,0.0
1085,-0.13136916007936775,-0.0031005084184870376,73.67716337026852,0.0
1086,-0.13125923132613287,-0.003042190198130715,72.92995612533839,0.0
1087,-0.1310553819072021,-0.0029164873027666665,72.20651062037426,0.0
1088,-0.13081049942171352,-0.002754061612904205,71.50647944045703,0.0
1089,-0.13057786731373894,-0.0025883062913076792,70.82952231153561,0.0
1090,-0.1303983505716074,-0.0024482719118144084,70.17530727427878,0.0
1091,-0.13029192752863689,-0.002352212331056327,69.54351175262167,0.0
1092,-0.13025532963915723,-0.0023030158929710502,68.93382352941175,0.0
1093,-0.1302652818726374,-0.0022863927399046522,68.34594164076734,0.0
1094,-0.130285081387408,-0.002272188034019398,67.7795772000347,0.0
1095,-0.13027179143814802,-0.0022186958039325873,67.23445416156618,0.0
1096,-0.13018220707470263,-0.0020794285483248416,66.71031003394218,0.0
1097,-0.12997727698886924,-0.001811472961171468,66.20689655172413,0.0
1098,-0.1296258928554956,-0.0013843195563501747,65.72398031435341,0.0
1099,-0.12910925779612253,-0.000787881429787829,65.26134340040312,0.0
1100,-0.12842638315525634,-3.833147248854862e-05,64.8187839650428,0.0
1101,-0.12760005422521176,0.0008195583042649617,64.39611682829377,0.0
1102,-0.12668140937433192,0.0017146235987550102,63.99317406143344,0.0
1103,-0.12575057871037867,0.002556571197389315,63.60980557874956,0.0
1104,-0.12491097448684246,0.003248005230287926,63.24587974175441,0.0
1105,-0.12427597539865519,0.003699945218116521,62.90128398294283,0.0
1106,-0.12394876771407404,0.0038485980961219866,62.57592545622021,0.0
1107,-0.12399850389566022,0.0036704335060894462,62.269731721239175,0.0
1108,-0.12443795611401634,0.0031923935626007303,61.982651469071484,0.0
1109,-0.12520872103239455,0.0024945090911847128,61.71465529690715,0.0
1110,-0.12617931379907157,0.0017033155905536355,61.46573653982325,0.0
1111,-0.12715916770941438,0.0009761094178859253,61.23591216810646,0.0
1112,-0.12792804193999632,0.00047794134876526467,61.025223759153775,0.0
1113,-0.12827634571067448,0.0003548960920839253,60.833738553625146,0.0
1114,-0.12804836969144137,0.0007082415000218762,60.66155060629198,0.0
1115,-0.12717849979639242,0.00157415600026105,60.50878204292977,0.0
1116,-0.12571116774824445,0.0029128719928136282,60.375584435657316,0.0
1117,-0.12379888222466474,0.004609369793602567,60.26214031035001,0.0
1118,-0.1216783719845758,0.0064856015884320346,60.16866480117063,0.0
1119,-0.11963081132933595,0.008322117054790443,60.09540746889762,0.0
1120,-0.11793615061030703,0.009885381682932532,60.04265430161587,0.0
1121,-0.11683230535119418,0.010956351493164849,60.01072991850943,0.0
1122,-0.11648727665385822,0.011356080543661601,60.0,1.0
1123,-0.1169874058140415,0.010965129282059172,60.02222316106213,0.0
1124,-0.11833986472785059,0.009734972743394067,60.0879552257805,0.0
1125,-0.1204840405530943,0.00769107875552723,60.19592243729026,0.0
1126,-0.12330576307869331,0.00492850392433805,60.34501244558664,0.0
1127,-0.12665016135595158,0.0016015578175261982,60.53425720047573,0.0
1128,-0.13033199037126514,-0.002090691677648294,60.762817643448734,0.0
1129,-0.13414478855136608,-0.005921423333806176,61.02996988831149,0.0
1130,-0.1378710326261115,-0.009654205897583099,61.33509262255367,0.0
1131,-0.14129455959000062,-0.01306115932713068,61.67765549547514,0.0
1132,-0.14421494768340362,-0.015940137146340558,62.057208286507915,0.0
1133,-0.14646246760143258,-0.0181299182012797,62.473370669184945,0.0
1134,-0.14791209402084185,-0.019522310774297252,62.92582240378413,0.0
1135,-0.14849543713125368,-0.020070029453407634,63.41429380560733,0.0
1136,-0.14820949123240987,-0.01978932339152226,63.938556346797654,0.0
1137,-0.1471204772991718,-0.01875669735794748,64.49841325811002,0.0
1138,-0.1453603547111346,-0.017099690789002205,65.09369000361201,0.0
1139,-0.14311388186572102,-0.014982494049070545,65.7242245063407,0.0
1140,-0.1405961040179472,-0.012588029410818683,66.38985700688062,0.0
1141,-0.13802338727545924,-0.010098798104208394,67.09041944005583,0.0
1142,-0.1355840695413658,-0.007679092337485588,67.82572421784472,0.0
1143,-0.13341576654126347,-0.005460967945651413,68.59555230965172,0.0
1144,-0.13159461346771942,-0.003535675993699353,69.3996405146616,0.0
1145,-0.13013794606253135,-0.0019512105239278973,70.2376678256629,0.0
1146,-0.12901781608679605,-0.0007154995084453246,71.10924079001845,0.0
1147,-0.12817995576604702,0.00019617197876528863,72.01387778201548,0.0
1148,-0.12756218090231664,0.0008314445869123956,72.95099211235532,0.0
1149,-0.1271075858463394,0.0012508376917089847,73.91987391583277,0.0
1150,-0.12677043434090488,0.0015189197747103615,74.91967077818487,0.0
1151,-0.12651540532664815,0.0016975611243148841,75.94936708860759,0.0
1152,-0.1263129356703837,0.0018414177512688498,77.00776213656097,0.0
1153,-0.12613421907834815,0.001995254026154697,78.09344701125822,0.0
1154,-0.12594882314102576,0.0021924685775755546,79.20478041070828,0.0
1155,-0.12572624767528445,0.0024542544512496907,80.3398635253374,0.0
1156,-0.12544082448442198,0.002789109889508689,81.49651422989487,0.0
1157,-0.12507794340778994,0.003192770502353365,82.67224089714979,0.0
1158,-0.12463913791620818,0.0036489036428476564,83.86421623802504,0.0
1159,-0.12414403848102164,0.004130984042937628,85.06925167497494,0.0
1160,-0.12362821971821926,0.004605623515515609,86.28377286755246,0.0
1161,-0.12313710137908311,0.005037301171680269,87.50379712925069,0.0
1162,-0.12271705073490172,0.005394035067616635,88.72491359970898,0.0
1163,-0.12240555375088628,0.0056531749159606905,89.94226716173615,0.0
1164,-0.12222265806392256,0.005806288093590727,91.1505472122386,0.0
1165,-0.12216569572882402,0.005862124724829184,92.3439825022623,0.0
1166,-0.1222085271504155,0.005846892055270167,93.51634334443594,0.0
1167,-0.12230541293986859,0.00580149827945039,94.6609525349721,0.0
1168,-0.12239851508343971,0.005775956535211293,95.77070633955555,0.0
1169,-0.12242732568532007,0.00582166984942605,96.83810683466568,0.0
1170,-0.12233817950412344,0.005982752975198226,97.8553067649584,0.0
1171,-0.12209234894526469,0.0062878150065440435,98.81416786132225,0.0
1172,-0.12167183540998093,0.0067436827224272265,99.70633325384117,0.0
1173,-0.12108260640034156,0.007332369360176981,100.52331420422306,0.0
1174,-0.12035543165434975,0.008012188196651136,101.25659087449313,0.0
1175,-0.11954444860786875,0.008723296486962096,101.89772625196105,0.0
1176,-0.11872313398898111,0.009397182180720796,102.43849168291905,0.0
1177,-0.11797680364783711,0.00996876321739619,102.8710017574692,0.0
1178,-0.11739072750201937,0.010388997655347731,103.18785557338806,0.0
1179,-0.11703400968781898,0.010635388494171519,103.38228073459958,0.0
1180,-0.11694159951598605,0.010717709963291938,103.44827586206897,1.0
1181,-0.11709939369206211,0.010676837234799648,103.43225086434629,0.0
1182,-0.1174389350076637,0.010575764926670788,103.38477991427632,0.0
1183,-0.11784729708130273,0.010483607489003188,103.30680965431061,0.0
1184,-0.11819385529720407,0.01045524782396097,103.19933639310277,0.0
1185,-0.11836971950550827,0.01051085959470419,103.06340053236701,0.0
1186,-0.11832983789561208,0.01062027520523225,102.90008100294376,0.0
1187,-0.118124677995189,0.010696747816673322,102.71048975485942,0.0
1188,-0.11790958042811266,0.01060298912356762,102.49576634277534,0.0
1189,-0.11792536657835499,0.010169738193211004,102.25707264451515,0.0
1190,-0.11845196706613362,0.009224131928736081,101.99558774642638,0.0
1191,-0.11974518578400233,0.007622576452722173,101.71250302525632,0.0
1192,-0.12197259469656833,0.005281384380706117,101.40901745208627,0.0
1193,-0.12516597359502654,0.0021985984095016235,101.0863331397401,0.0
1194,-0.12920385905317755,-0.0015378034661843332,100.74565115103374,0.0
1195,-0.13382943598971977,-0.005757153595804329,100.38816758131443,0.0
1196,-0.13869866712155837,-0.010227216993136843,100.01506992500519,0.0
1197,-0.14344476886126412,-0.014684658795898187,99.62753373235775,0.0
1198,-0.1477411553350297,-0.018868562789660804,99.22671955935928,0.0
1199,-0.15134713556605417,-0.022550532544966823,98.8137702107586,0.0
1200,-0.1541276836607495,-0.02555626241980931,98.38980827348966,0.0
1201,-0.15604732491064494,-0.027775885363060145,97.95593393538357,0.0
1202,-0.1571452268130981,-0.029163177193159424,97.513223081978,0.0
1203,-0.1575019780051523,-0.029726088016892,97.06272566244903,0.0
1204,-0.15720821718727912,-0.029512526176397064,96.6054643141991,0.0
1205,-0.15634249541372972,-0.02859559295826648,96.14243323442138,0.0
1206,-0.15496203016402924,-0.027061647926476383,95.67459728601263,0.0
1207,-0.15310634850848745,-0.025003036692334436,95.20289132450326,0.0
1208,-0.1508106617200244,-0.02251554128502048,94.72821973219598,0.0
1209,-0.14812344865434104,-0.019699121757443476,94.25145614543511,0.0
1210,-0.14512161712495203,-0.01665967783613597,93.77344336084022,0.0
1211,-0.1419173001984049,-0.013509526732519053,93.29499340641667,0.0
1212,-0.13865296038865912,-0.010364985378862608,92.8168877636742,0.0
1213,-0.13548535612672136,-0.0073405854333695566,92.3398777272275,0.0
1214,-0.13256272030081503,-0.0045406600069026306,91.86468488879737,0.0
1215,-0.1300017704639123,-0.0020499612401321723,91.39200173306314,0.0
1216,-0.1278710822649391,7.464268354343863e-05,90.92249233341543,0.0
1217,-0.12618504536419095,0.0018095436875159455,90.45679313631186,0.0
1218,-0.12490905919119671,0.0031656685765823122,89.9955138236309,0.0
1219,-0.12397317481233608,0.004185382605378941,89.53923824313986,0.0
1220,-0.12328925804172823,0.004935618326234057,89.08852539792876,0.0
1221,-0.12276657219883326,0.0054984425360002365,88.64391048640739,0.0
1222,-0.12232232621237683,0.005960544169496808,88.20590598520586,0.0
1223,-0.12188639799309153,0.006403076272582644,87.77500276805515,0.0
1224,-0.12140196580551861,0.006893026884834822,87.35167125444833,0.0
1225,-0.12082510797425518,0.007476958844697472,86.93636258258954,0.0
1226,-0.12012605223952055,0.008177640153465183,86.52950980182358,0.0
1227,-0.11929293896230546,0.008993807440317999,86.13152908040314,0.0
1228,-0.11833664488437527,0.009903027464101617,85.74282092508959,0.0
1229,-0.11729356539523494,0.010867289907247944,85.36377140969758,0.0
1230,-0.11622313223508161,0.011840559645630787,84.99475341028332,0.0
1231,-0.11519842375049154,0.012777092679526564,84.6361278452409,0.0
1232,-0.11429092960668227,0.013639005472089063,84.28824491911291,0.0
1233,-0.11355327288595946,0.01440154331054854,83.95144536944059,0.0
1234,-0.11300530590913241,0.015054842772192625,83.62606171647955,0.0
1235,-0.11262870852675524,0.015601742308248939,83.31241951608855,0.0
1236,-0.11237295291762153,0.01605223221779388,83.01083861656669,0.0
1237,-0.11217190722738317,0.01641618495802894,82.72163442067061,0.0
1238,-0.11196657941506856,0.016696735407617465,82.44511915449041,0.0
1239,-0.11172683341994386,0.016886792355502396,82.18160314530625,0.0
1240,-0.1114643743840753,0.016970507930518804,81.93139611098972,0.0
1241,-0.11123134395234571,0.016930184113436678,81.69480846395976,0.0
1242,-0.11110311749994228,0.0167573616905272,81.47215263315744,0.0
1243,-0.11114915203093367,0.016465192673517412,81.26374440797088,0.0
1244,-0.11140029206696261,0.01609815903659243,81.06990430852791,0.0
1245,-0.11182318856109967,0.015735170791351408,80.89095898728513,0.0
1246,-0.11231150786810529,0.015483206680180113,80.7272426673831,0.0
1247,-0.11269951239031524,0.01546078086052598,80.57909862381882,0.0
1248,-0.11279745090260064,0.015773156457173615,80.44688071411214,0.0
1249,-0.1124416946338404,0.01648371831270853,80.33095496582399,0.0
1250,-0.11154756133252199,0.017587582287814915,80.2317012290308,0.0
1251,-0.11015085684195171,0.018993848319673372,80.1495149026802,0.0
1252,-0.10842612368314265,0.02052171040452405,80.08480874466315,0.0
1253,-0.10667503934021237,0.021913113890957167,80.03801477644832,0.0
1254,-0.10528579005208825,0.022861337436453612,80.00958629425433,0.0
1255,-0.10467135246764964,0.023051521302837212,80.0,1.0
1256,-0.10519946974997046,0.022206532716686135,80.00020420223977,0.0
1257,-0.10712865063678279,0.020130248951444083,80.00081629945903,0.0
1258,-0.11056273583849348,0.016740633593042085,80.00183553673124,0.0
1259,-0.11543218516571553,0.012086796529494799,80.00326117149943,0.0
1260,-0.12150434871113062,0.006347147432768459,80.00509247350003,0.0
1261,-0.12841895286381932,-0.00019085754273992332,80.00732872468743,0.0
1262,-0.135740337377165,-0.0071657096251526095,80.00996921915998,0.0
1263,-0.14301580749091827,-0.014185571343916372,80.01301326308686,0.0
1264,-0.14983009765986288,-0.02087358370464311,80.01646017463585,0.0
1265,-0.1558485436842424,-0.026907799192470334,80.02030928390244,0.0
1266,-0.16084472180148812,-0.032050158005023865,80.0245599328396,0.0
1267,-0.16471099217658527,-0.03616114746239261,80.0292114751889,0.0
1268,-0.16745239278687535,-0.03919940483096405,80.0342632764124,0.0
1269,-0.16916604368224517,-0.04120806660981289,80.03971471362551,0.0
1270,-0.17000993390565805,-0.04229170683102392,80.04556517553101,0.0
1271,-0.17016653420873526,-0.04258892460628761,80.05181406235376,0.0
1272,-0.16980766344552575,-0.042245867363113226,80.0584607857766,0.0
1273,-0.16906699619797033,-0.04139521462868757,80.06550476887718,0.0
1274,-0.168025296057174,-0.04014357800810632,80.07294544606538,0.0
1275,-0.16671091859305295,-0.03856822872365792,80.08078226302219,0.0
1276,-0.16511468686668904,-0.03672197475215014,80.08901467663901,0.0
1277,-0.1632146004719593,-0.03464332041312864,80.09764215495818,0.0
1278,-0.16100300745403237,-0.03236811602927288,80.1066641771142,0.0
1279,-0.15850790426189607,-0.029938937475105322,80.11608023327597,0.0
1280,-0.15580158099327804,-0.027409392551068716,80.12588982458978,0.0
1281,-0.15299368723675263,-0.024842173349883038,80.13609246312333,0.0
1282,-0.1502107531695522,-0.022301534116610854,80.14668767181035,0.0
1283,-0.14756847252754823,-0.019842487741641518,80.1576749843964,0.0
1284,-0.14514510041647266,-0.017499967070502585,80.1690539453851,0.0
1285,-0.14296359942221368,-0.015281256485262424,80.18082410998574,0.0
1286,-0.14098728068685182,-0.013164170435221757,80.19298504406103,0.0
1287,-0.13912986300785218,-0.011101974429861872,80.20553632407632,0.0
1288,-0.1372772862269241,-0.009034305902421817,80.21847753704913,0.0
1289,-0.13531600573314526,-0.006901804546335018,80.23180828049978,0.0
1290,-0.13316119943636212,-0.004661188556966998,80.2455281624027,0.0
1291,-0.13077844803857983,-0.0022973438770130944,80.25963680113848,0.0
1292,-0.12819396294154536,0.00017034727245273003,80.27413382544682,0.0
1293,-0.12549107702903997,0.0026889022351640375,80.28901887438012,0.0
1294,-0.12279393586070032,0.005179690295442919,80.30429159725786,0.0
1295,-0.1202423455428093,0.007551716858970251,80.31995165362184,0.0
1296,-0.11796374012407802,0.00971739663320309,80.33599871319204,0.0
1297,-0.11604868856473295,0.011607538498284076,80.35243245582322,0.0
1298,-0.11453520912709438,0.013182583973200308,80.36925257146238,0.0
1299,-0.11340480789054304,0.014438099792805276,80.38645876010682,0.0
1300,-0.11259029479130553,0.015403860892343055,80.40405073176295,0.0
1301,-0.11199277333168092,0.016137234942501053,80.42202820640586,0.0
1302,-0.11150332204944044,0.016712667458376667,80.44039091393952,0.0
1303,-0.11102413576418732,0.01720963463352486,80.45913859415778,0.0
1304,-0.11048438283760958,0.0177013941540142,80.47827099670594,0.0
1305,-0.10984764315109874,0.018246298989099338,80.49778788104318,0.0
1306,-0.10911017691635459,0.018882555643320868,80.51768901640541,0.0
1307,-0.10829186602070458,0.019626386301103207,80.53797418176916,0.0
1308,-0.10742372319296807,0.020472860623925216,80.55864316581572,0.0
1309,-0.10653665325492892,0.021398373489724863,80.57969576689632,0.0
1310,-0.10565528438861649,0.02236389308018014,80.60113179299779,0.0
1311,-0.10479839500202458,0.023318572557859737,80.62295106170882,0.0
1312,-0.10398461138618302,0.024203880774290542,80.645153400187,0.0
1313,-0.10323979768738707,0.0249588014518809,80.66773864512646,0.0
1314,-0.10260178882557301,0.025526669565206828,80.69070664272614,0.0
1315,-0.10211903837560468,0.025863780437320686,80.71405724865865,0.0
1316,-0.10184188916323605,0.025949106914657804,80.73779032803981,0.0
1317,-0.101807698073465,0.02579352620876589,80.76190575539886,0.0
1318,-0.10202321194056234,0.025446210271963695,80.78640341464914,0.0
1319,-0.10244898586657984,0.024995587471428504,80.8112831990596,0.0
1320,-0.10299113324193007,0.024562754239362612,80.83654501122665,0.0
1321,-0.10350519560948548,0.02428644117501992,80.8621887630469,0.0
1322,-0.10381515342853627,0.024300441252144055,80.88821437569025,0.0
1323,-0.10374731824163339,0.02470641141925132,80.91462177957376,0.0
1324,-0.10317433969862923,0.025546660690608833,80.94141091433602,0.0
1325,-0.10206003447053653,0.026782432489580198,80.96858172881207,0.0
1326,-0.10049307640700847,0.0282829121515569,80.99613418100911,0.0
1327,-0.09869840906317272,0.029828644132747547,81.0240682380824,0.0
1328,-0.09701991490172981,0.03113045979670621,81.05238387631226,0.0
1329,-0.09587511615485299,0.03186193038698625,81.08108108108108,1.0
1330,-0.0956901322657153,0.03170048669323615,81.1216754915137,0.0
1331,-0.09682845422599408,0.030370397925481664,81.18519898647902,0.0
1332,-0.0995289058905298,0.02768028659126998,81.27095145281926,0.0
1333,-0.10386615249598793,0.02354893220298672,81.37826361423146,0.0
1334,-0.10974184872675488,0.018015537320782433,81.50649321566891,0.0
1335,-0.11690717682818048,0.011233799864450632,81.65502141858369,0.0
1336,-0.12500986279054677,0.0034522699931951277,81.82324938048527,0.0
1337,-0.13365289613727793,-0.005014194947230301,82.01059499527351,0.0
1338,-0.14244996899752885,-0.013816057956391313,82.21648977347309,0.0
1339,-0.15106486164114935,-0.022598467809858615,82.44037584389763,0.0
1340,-0.15922790772170387,-0.03102471060592013,82.68170306045513,0.0
1341,-0.16673033102128113,-0.03879241533757795,82.93992619980521,0.0
1342,-0.1734042177799391,-0.04564339276328203,83.21450223743085,0.0
1343,-0.17909998171115582,-0.051369436019528335,83.50488769142127,0.0
1344,-0.18367305182868887,-0.05581672302383866,83.81053602490357,0.0
1345,-0.1869871596311735,-0.05889064481495748,84.13089509963552,0.0
1346,-0.18893454138235827,-0.06056131943873979,84.46540467479572,0.0
1347,-0.18946623194650014,-0.06086835199088272,84.81349394650667,0.0
1348,-0.1886211022436175,-0.0599222120653214,85.17457912510685,0.0
1349,-0.1865419841793284,-0.05789938509841501,85.54806104867595,0.0
1350,-0.1834710433838252,-0.055029354791769534,85.93332283281389,0.0
1351,-0.17972292189185618,-0.05157326942922375,86.3297275581978,0.0
1352,-0.17564076344043067,-0.04779632996501333,86.73661599899611,0.0
1353,-0.1715448958947425,-0.04393788039846602,87.15330439681186,0.0
1354,-0.16768543984008039,-0.040184309488225295,87.57908228646366,0.0
1355,-0.16420849959435083,-0.036649833208234436,88.01321038159232,0.0
1356,-0.16114200243893334,-0.03336897054023298,88.45491852980403,0.0
1357,-0.15840310993577886,-0.030302310290238138,88.90340374882281,0.0
1358,-0.15582535774051287,-0.02735448901471743,89.35782835691712,0.0
1359,-0.15320048837542546,-0.024400770772046824,89.81731821268038,0.0
1360,-0.15032724207202228,-0.02131682453263853,90.28096108106344,0.0
1361,-0.14705741212220588,-0.018005663965966562,90.747805144365,0.0
1362,-0.143329032817107,-0.014416418206896098,91.21685767865553,0.0
1363,-0.13917855260100548,-0.010551504760343413,91.68708391781797,0.0
1364,-0.13472853478034963,-0.0064614507037850915,92.15740612899805,0.0
1365,-0.13015391505984145,-0.0022294293597592708,92.6267029247326,0.0
1366,-0.12563609093793499,0.0020501314981763597,93.09380883832416,0.0
1367,-0.12131777309297727,0.006293313635020286,93.5575141901038,0.0
1368,-0.11727111438021412,0.010443461834005865,94.01656527302431,0.0
1369,-0.11348731805258319,0.014479025305589255,94.46966488649359,0.0
1370,-0.1098893773803375,0.018410974297534976,94.91547324743593,0.0
1371,-0.10636307190134701,0.02227095336119732,95.35260930719728,0.0
1372,-0.10279673319375976,0.026093618315420168,95.77965250202661,0.0
1373,-0.09911862356778442,0.029897953873955906,96.19514496340939,0.0
1374,-0.09532218311960798,0.03367249756305264,96.59759421244365,0.0
1375,-0.09147329949416541,0.037368334540511465,96.98547635968072,0.0
1376,-0.08769895400291053,0.040901793694270605,97.35723982835776,0.0
1377,-0.08416152327530757,0.04416646587029437,97.71130961468936,0.0
1378,-0.08102615262369016,0.04705202103321329,98.04609209384516,0.0
1379,-0.07842914542963582,0.04946577483010024,98.35998037440505,0.0
1380,-0.07645353547981262,0.05135232085598132,98.65136019747597,0.0
1381,-0.07511517563350058,0.05270686901202706,98.91861636930065,0.0
1382,-0.0743602205737935,0.05357909318203848,99.16013970815551,0.0
1383,-0.07407357691646238,0.054066042421431544,99.3743344777026,0.0
1384,-0.07409750474504652,0.05429468841424521,99.55962626984594,0.0
1385,-0.07425918498384843,0.05439662872353023,99.71447029068625,0.0
1386,-0.07440490382181947,0.05447902053559335,99.83735999353948,0.0
1387,-0.07443643964457237,0.054596716480702405,99.92683599338052,0.0
1388,-0.07434302757347172,0.05473063594406713,99.98149518771447,0.0
1389,-0.07422121388122552,0.054776584552540794,100.0,1.0
1390,-0.07427615019209564,0.054547141952180196,99.99944476357057,0.0
1391,-0.07480169133194126,0.05378714223101029,99.99778624637504,0.0
1392,-0.07614204041653441,0.05220105598333567,99.9950352902578,0.0
1393,-0.07864260891822877,0.04948866381141645,99.99120280677192,0.0
1394,-0.08260016356536036,0.045384135763770636,99.98629977481704,0.0
1395,-0.08822127642408915,0.039693196141487586,99.98033723829003,0.0
1396,-0.09559438297628753,0.03232346675394269,99.97332630374984,0.0
1397,-0.1046764898006404,0.02330418640452155,99.96527813809638,0.0
1398,-0.1152928319869428,0.012793042248426666,99.95620396626518,0.0
1399,-0.12714728082484827,0.0010695407403692042,99.94611506893784,0.0
1400,-0.1398421239478485,-0.011484046858592223,99.93502278026914,0.0
1401,-0.15290639179372423,-0.02441177945547096,99.92293848563175,0.0
1402,-0.16583127216325902,-0.037219813011482014,99.9098736193789,0.0
1403,-0.17810966732244465,-0.049414915312502194,99.8958396626257,0.0
1404,-0.1892756321085885,-0.060541703404211805,99.88084814105002,0.0
1405,-0.19893906110406104,-0.07021492249696781,99.86491062271297,0.0
1406,-0.20681164057882045,-0.07814382360717781,99.84803871590015,0.0
1407,-0.2127213973175739,-0.0841467332921165,99.83024406698405,0.0
1408,-0.21661486408754163,-0.08815510534819974,99.81153835830789,0.0
1409,-0.2185477671511735,-0.09020754148477692,99.79193330609172,0.0
1410,-0.21866688794653424,-0.09043530999988296,99.77144065836127,0.0
1411,-0.21718676554436225,-0.08904165477617934,99.75007219289978,0.0
1412,-0.21436475032443364,-0.08627760092123235,99.7278397152238,0.0
1413,-0.21047683320826602,-0.08241701742728813,99.70475505658271,0.0
1414,-0.20579554532668512,-0.07773343220041082,99.6808300719831,0.0
1415,-0.20057085629973329,-0.07248058515617062,99.65607663823776,0.0
1416,-0.1950153706263907,-0.06687804048435053,99.63050665204038,0.0
1417,-0.1892954108419711,-0.0611024527784559,99.60413202806573,0.0
1418,-0.18352900421976007,-0.055284384850729146,99.57696469709589,0.0
1419,-0.17779038643811154,-0.049509992721758905,99.54901660417312,0.0
1420,-0.17211915101743558,-0.043826494375268074,99.52029970677926,0.0
1421,-0.16653133583946098,-0.03825016092062079,99.49082597304232,0.0
1422,-0.16102973902409612,-0.032775603792711994,99.46060737997028,0.0
1423,-0.15561141918769258,-0.027385322192046212,99.42965591171279,0.0
1424,-0.15027152000059107,-0.02205872735089017,99.39798355785022,0.0
1425,-0.1450041520706073,-0.016780073526452288,99.36560231171136,0.0
1426,-0.1398025912965727,-0.011544829870777814,99.33252416871917,0.0
1427,-0.13466158494254502,-0.0063640162738018945,99.29876112476506,0.0
1428,-0.1295833309311325,-0.0012659693336097115,99.26432517461194,0.0
1429,-0.12458597264554787,0.003704973664658294,99.2292283103261,0.0
1430,-0.11971070597226245,0.008493156805601532,99.19348251973834,0.0
1431,-0.11502265025335404,0.013039438882240604,99.15709978493399,0.0
1432,-0.1106023632032107,0.017291244582748753,99.12009208077247,0.0
1433,-0.10652855778830939,0.021213137331414122,99.08247137343609,0.0
1434,-0.10285640079319817,0.024795667403901336,99.04424961900865,0.0
1435,-0.09959802498471551,0.028060162826366412,99.00543876208332,0.0
1436,-0.09671181411368028,0.031057658149503876,98.96605073440043,0.0
1437,-0.09410487267463735,0.03386127446058844,98.92609745351491,0.0
1438,-0.09164964549955984,0.036552859840988175,98.88559082149347,0.0
1439,-0.08921178968351715,0.039206213764753646,98.84454272364155,0.0
1440,-0.08668300968165436,0.04187034046668847,98.80296502726034,0.0
1441,-0.08401053991504114,0.044556558650017446,98.76086958043314,0.0
1442,-0.08121504900855483,0.04723276213114645,98.71826821084203,0.0
1443,-0.07839123224408012,0.049826735545463866,98.675172724614,0.0
1444,-0.0756897925110953,0.05223847088478631,98.63159490519698,0.0
1445,-0.07328465873776181,0.05435935898008188,98.58754651226556,0.0
1446,-0.0713335100259789,0.05609444730066041,98.54303928065629,0.0
1447,-0.06994152956283532,0.05738307834445198,98.49808491933264,0.0
1448,-0.06913722502794832,0.05821337290185357,98.45269511037962,0.0
1449,-0.0688656827347713,0.05862717133063308,98.40688150802742,0.0
1450,-0.06900016626153757,0.0587139302612317,98.36065573770492,1.0
1451,-0.06936900314783187,0.058594268286529486,98.30605067678651,0.0
1452,-0.06979208202892788,0.05839588811079773,98.23545329345083,0.0
1453,-0.07012006524175564,0.05822606189150083,98.14941586657798,0.0
1454,-0.07026925564998854,0.05814548735802602,98.04850203303891,0.0
1455,-0.07024572949570877,0.0581480353368133,97.93328511707136,0.0
1456,-0.07015401146466993,0.058149838805830426,97.80434650267942,0.0
1457,-0.07018844768934997,0.05798959414494348,97.66227405540687,0.0
1458,-0.07060926354078456,0.05744020615862734,97.50766059913464,0.0
1459,-0.07170899783591546,0.05623034259573015,97.34110245285598,0.0
1460,-0.07377700166063873,0.05407330442377884,97.16319803168858,0.0
1461,-0.07706880939387438,0.05069994923140772,96.97454651570638,0.0
1462,-0.08178363119009191,0.04589216658871113,96.77574658951356,0.0
1463,-0.08804876648377309,0.039513451210622205,96.56739525485025,0.0
1464,-0.09590688985789098,0.031533315690152594,96.3500867179158,0.0
1465,-0.10530261125621045,0.022042584774475203,96.12441135252323,0.0
1466,-0.1160682914588509,0.011257097266616323,95.89095473966633,0.0
1467,-0.127913864955207,-0.0004918284823869079,95.65029678358329,0.0
1468,-0.14042875320156226,-0.012780493759815527,95.40301090394684,0.0
1469,-0.1531037402573543,-0.025128012715583868,95.149663303396,0.0
1470,-0.16537622019097853,-0.03704007145106478,94.89081230925268,0.0
1471,-0.17669463233637586,-0.048055844776863185,94.62700778793555,0.0
1472,-0.18659000509560797,-0.057791496794245154,94.35879063029341,0.0
1473,-0.1947378501523508,-0.06597369859346787,94.08669230583133,0.0
1474,-0.20099465176833575,-0.07245797500302996,93.81123448359101,0.0
1475,-0.20539983681015941,-0.07722927168642557,93.53292871727292,0.0
1476,-0.20814377280329344,-0.08038538466689964,93.2522761920496,0.0
1477,-0.20951128422294737,-0.08210706357265005,92.96976753041301,0.0
1478,-0.2098154847109055,-0.08262092495958598,92.68588265432487,0.0
1479,-0.20933743094557683,-0.0821622413889663,92.40109070089308,0.0
1480,-0.2082839897021559,-0.08094402038648525,92.11584998877804,0.0
1481,-0.2067708771790354,-0.07913678169443784,91.83060803253763,0.0
1482,-0.20483145496177185,-0.07686064751175438,91.54580160214678,0.0
1483,-0.20244564238439053,-0.07418852049037823,91.26185682497442,0.0
1484,-0.19957837167712594,-0.07115694861413394,90.9791893275645,0.0
1485,-0.19621473598070036,-0.06778025074534987,90.6982044146479,0.0
1486,-0.19238051460685376,-0.0640637365679958,90.41929728290603,0.0
1487,-0.18814218246517195,-0.060013160775146845,90.14285326711108,0.0
1488,-0.1835882501025931,-0.05563938042912781,89.8692481163844,0.0
1489,-0.1788009576157219,-0.05095890727252847,89.59884829843735,0.0
1490,-0.1738309877572163,-0.0459921380405746,89.33201132979096,0.0
1491,-0.16868632218866367,-0.0407612536548609,89.06908613010638,0.0
1492,-0.16334014995862992,-0.03528919209725047,88.81041339890042,0.0
1493,-0.1577543905736112,-0.029600091120297607,88.55632601306573,0.0
1494,-0.15190849139850832,-0.023720654934518085,88.30714944376217,0.0
1495,-0.14582080807931794,-0.017681427580379754,88.0632021913978,0.0
1496,-0.13955325360833945,-0.011517113632217326,87.82479623756795,0.0
1497,-0.13319753213277158,-0.005265736004153934,87.59223751297517,0.0
1498,-0.12684960932724756,0.001032798374785631,87.36582638050557,0.0
1499,-0.12058422839740536,0.007337653379987381,87.14585813279209,0.0
1500,-0.11444098014977382,0.013606524903314404,86.93262350374984,0.0
1501,-0.10842800757910981,0.019793231375467412,86.72640919372363,0.0
1502,-0.10254144863717578,0.025844027876653262,86.52749840804506,0.0
1503,-0.09679173395970238,0.03169413813003885,86.33617140895258,0.0
1504,-0.09122486149123296,0.037266432364678956,86.152706080987,0.0
1505,-0.08592901276992986,0.042473923900925865,85.97737851013518,0.0
1506,-0.08102325018785347,0.04722684848017071,85.81046357715684,0.0
1507,-0.07663249513242558,0.05144379864889738,85.65223556569612,0.0
1508,-0.07285803989239369,0.055065105813107015,85.50296878594824,0.0
1509,-0.0697534240604618,0.05806576692066243,85.36293821482639,0.0
1510,-0.06731202249043472,0.06046493153270765,85.2324201537548,0.0
1511,-0.0654675531862889,0.06232933947537904,85.11169290540045,0.0
1512,-0.06410470314915313,0.06376900923741266,85.00103747085231,0.0
1513,-0.06307576458128453,0.0649247152626071,84.90073826896221,0.0
1514,-0.062220322981118,0.06594813897710858,84.81108387977841,0.0
1515,-0.06138705325225443,0.06697684709949256,84.73236781423364,0.0
1516,-0.06045774280889828,0.06810729295350595,84.66488931249474,0.0
1517,-0.059372807391461786,0.06936972519371656,84.60895417364463,0.0
1518,-0.05815521176187965,0.07070910622883447,84.56487561965073,0.0
1519,-0.05692738073664824,0.07197579297349455,84.53297519688064,0.0
1520,-0.05591509773298142,0.07292877280229029,84.51358371875892,0.0
1521,-0.05543436621221645,0.07325272744672365,84.50704225352113,1.0
1522,-0.05586113963592121,0.07258827870957678,84.50852777443951,0.0
1523,-0.05758797714664806,0.07057271281128716,84.51292667193053,0.0
1524,-0.06097424504185768,0.0668866015918716,84.52015287308546,0.0
1525,-0.06629667685298928,0.06130035549257981,84.53012082501368,0.0
1526,-0.07370564357534146,0.05371412161689812,84.54274543821603,0.0
1527,-0.08319105247720111,0.04418475973425201,84.55794203190644,0.0
1528,-0.09456174030344722,0.03293495599462886,84.57562628123092,0.0
1529,-0.10744334824417137,0.020341795223287124,84.5957141663381,0.0
1530,-0.12130006837836076,0.006905069064882828,84.61812192325927,0.0
1531,-0.13548312113508518,-0.006801167167234945,84.64276599656141,0.0
1532,-0.14930279022750187,-0.020187324448780908,84.66956299373923,0.0
1533,-0.16211327082447183,-0.03270878323815204,84.69842964131779,0.0
1534,-0.17339393060780145,-0.04391903746504156,84.72928274263968,0.0
1535,-0.18280963812785642,-0.05350743301176865,84.76203913731551,0.0
1536,-0.19023719544383688,-0.06131614870634225,84.79661566231894,0.0
1537,-0.19575307456359764,-0.06733487839810472,84.83292911471152,0.0
1538,-0.1995869523489197,-0.07167580502854735,84.87089621598557,0.0
1539,-0.20205332183901714,-0.07453500333158038,84.91043357801601,0.0
1540,-0.20347776488186217,-0.07614857520093556,84.95145767061554,0.0
1541,-0.20413440653405743,-0.07675214128266664,84.99388479068986,0.0
1542,-0.20420700087339194,-0.07655075810215967,85.03763103299254,0.0
1543,-0.20377945907251901,-0.0757033249740092,85.08261226248152,0.0
1544,-0.20285432897069947,-0.07432185079074197,85.12874408828166,0.0
1545,-0.20139144820711757,-0.07248247440172273,85.1759418392599,0.0
1546,-0.19935480137786415,-0.07024269955640661,85.22412054122191,0.0
1547,-0.19675407097154,-0.06765845861359367,85.27319489574091,0.0
1548,-0.1936687700608052,-0.0647954862521298,85.3230792606315,0.0
1549,-0.1902472644335595,-0.06173175071344978,85.37368763208251,0.0
1550,-0.18667998140278624,-0.058550682945581044,85.42493362846528,0.0
1551,-0.1831541944356492,-0.05532781262238105,85.47673047583474,0.0
1552,-0.17980443467245197,-0.052115369579888535,85.52899099514181,0.0
1553,-0.17667503565704618,-0.048929926628904066,85.58162759117766,0.0
1554,-0.173707978014394,-0.045747162632711225,85.63455224327053,0.0
1555,-0.1707607932802934,-0.04250568182911381,85.6876764977576,0.0
1556,-0.16764882237316123,-0.039119233619896124,85.74091146225399,0.0
1557,-0.16419765568366035,-0.035494431998218764,85.79416780174334,0.0
1558,-0.16028845016500623,-0.031549809937607275,85.84735573651291,0.0
1559,-0.15588225913046622,-0.02723203743518685,85.90038504195822,0.0
1560,-0.15101811396204734,-0.022526235533814904,85.95316505028123,0.0
1561,-0.14578978172584142,-0.017459051512370503,86.00560465410659,0.0
1562,-0.14031354436742302,-0.01209491014707872,86.0576123120401,0.0
1563,-0.1347008574496935,-0.006527111439300485,86.1090960561935,0.0
1564,-0.12904502229818038,-0.0008659660380378222,86.15996350169853,0.0
1565,-0.12342277354139047,0.004773980998820624,86.21012185823342,0.0
1566,-0.11790424324239172,0.010286091804855124,86.25947794358312,0.0
1567,-0.11256162741479496,0.015582112776438943,86.30793819925414,0.0
1568,-0.1074690284920076,0.020600249025699114,86.3554087081633,0.0
1569,-0.10269165255385511,0.025310137037684144,86.40179521441853,0.0
1570,-0.09826865387018463,0.02971396654663267,86.44700314520756,0.0
1571,-0.09419761197761124,0.03384311361317726,86.49093763480928,0.0
1572,-0.09042856873200182,0.037750111353357416,86.53350355073985,0.0
1573,-0.08687213102695772,0.041496627307614165,86.57460552204354,0.0
1574,-0.08342095908550995,0.04513915919937356,86.61414796973607,0.0
1575,-0.07997905003529464,0.04871507724964577,86.65203513940506,0.0
1576,-0.07649032074331974,0.05223207292062016,86.68817113596965,0.0
1577,-0.07295795828840915,0.05566376441565752,86.72245996059802,0.0
1578,-0.06944864866854092,0.05895310520486875,86.75480554977867,0.0
1579,-0.06608008214973382,0.062023528835325505,86.785111816537,0.0
1580,-0.0629946762535079,0.06479582619460524,86.81328269378598,0.0
1581,-0.06032600300444928,0.06720707506348902,86.83922217979509,0.0
1582,-0.0581661844458736,0.06922698325983581,86.86283438575799,0.0
1583,-0.05654235253317399,0.07086707496617985,86.88402358543483,0.0
1584,-0.05540844806636316,0.07217932324084472,86.90269426684111,0.0
1585,-0.05465564136253689,0.07324293022863497,86.91875118594983,0.0
1586,-0.05414094809945795,0.07414057335793886,86.93209942236946,0.0
1587,-0.053729623128846965,0.0749280196233322,86.94264443695462,0.0
1588,-0.05334325184666254,0.07560298199881843,86.95029213130239,0.0
1589,-0.05300300644186204,0.07607997322694138,86.95494890908057,0.0
1590,-0.05285724880007563,0.07617743585228856,86.95652173913044,1.0
1591,-0.0531851065294806,0.075621608637266,86.95503586147244,0.0
1592,-0.05437254054320423,0.0740687341120164,86.95063486305575,0.0
1593,-0.05686351357836541,0.07114385716383129,86.94340410982615,0.0
1594,-0.061094349512952346,0.06649126472616393,86.93342947506477,0.0
1595,-0.06742268208923073,0.05982920225717746,86.92079728457965,0.0
1596,-0.07606295915414833,0.05100034771903215,86.90559426338726,0.0
1597,-0.08703883312133755,0.040009852941792386,86.88790748393278,0.0
1598,-0.10015992353720131,0.027044515948085955,86.86782431589242,0.0
1599,-0.11502697473896045,0.012469505090961206,86.84543237759787,0.0
1600,-0.13106533715660468,-0.003197495307162297,86.8208194891184,0.0
1601,-0.1475820502035066,-0.019331410313755543,86.79407362703243,0.0
1602,-0.16383752977443172,-0.03525801725710079,86.76528288091643,0.0
1603,-0.17912050901294624,-0.05031735306239818,86.73453541157552,0.0
1604,-0.19281537242955354,-0.06392383178267112,86.70191941103616,0.0
1605,-0.20445376415600272,-0.07561543157635772,86.66752306431835,0.0
1606,-0.2137457527564813,-0.08508623514646904,86.63143451300118,0.0
1607,-0.2205887382047583,-0.0921992750776801,86.5937418205926,0.0
1608,-0.22505469410569992,-0.09697958773013708,86.55453293971054,0.0
1609,-0.22735877758055195,-0.09959014775966017,86.51389568108142,0.0
1610,-0.22781481089577027,-0.1002955301398314,86.47191768435692,0.0
1611,-0.2267849194972414,-0.09941943214813037,86.42868639074975,0.0
1612,-0.22463098436963974,-0.09730244072420816,86.38428901748475,0.0
1613,-0.22167451086924203,-0.09426567655218522,86.33881253406116,0.0
1614,-0.21816961790040393,-0.09058437221317255,86.29234364031835,0.0
1615,-0.21429166462118862,-0.08647336382751263,86.2449687462964,0.0
1616,-0.21014163703214053,-0.0820842852773315,86.19677395388072,0.0
1617,-0.20576365955085768,-0.07751235048890477,86.14784504021856,0.0
1618,-0.20117015720539883,-0.07280932551861759,86.0982674428931,0.0
1619,-0.19636729902152467,-0.067998828038671,86.04812624684108,0.0
1620,-0.19137360402755402,-0.06309046766832405,85.99750617299674,0.0
1621,-0.1862273235435966,-0.0580903896556768,85.94649156864577,0.0
1622,-0.18098240799588441,-0.053007192345790724,85.89516639947081,0.0
1623,-0.17569673029225277,-0.04785357579080449,85.84361424327007,0.0
1624,-0.1704183066004661,-0.04264510173524649,85.79191828532979,0.0
1625,-0.16517507334613987,-0.03739788885155147,85.74016131543101,0.0
1626,-0.1599718073596751,-0.03212689483550936,85.6884257264708,0.0
1627,-0.15479493088702156,-0.026845786538798946,85.63679351467779,0.0
1628,-0.1496232364657256,-0.02156852851992598,85.5853462814023,0.0
1629,-0.1444408675934252,-0.016312022841549915,85.534165236461,0.0
1630,-0.13924862748455466,-0.01109865139922053,85.48333120301652,0.0
1631,-0.1340706135800357,-0.005957534410633257,85.43292462397282,0.0
1632,-0.12895456911972633,-0.0009237114116843088,85.38302556986767,0.0
1633,-0.1239656350025841,0.003964867304279418,85.33371374824388,0.0
1634,-0.11917440304516441,0.008671904412235077,85.28506851448216,0.0
1635,-0.11464166111994276,0.013167670711904625,85.23716888407876,0.0
1636,-0.11040388263856318,0.017432866563615104,85.19009354635253,0.0
1637,-0.10646443083994218,0.021460272100051886,85.14392087956669,0.0
1638,-0.10279445850870339,0.02525366518856887,85.09872896745175,0.0
1639,-0.09934427758227396,0.028824319073474707,85.05459561711781,0.0
1640,-0.09606171303079941,0.032186151504766974,85.01159837834494,0.0
1641,-0.09291075810374792,0.03535102567215923,84.96981456424277,0.0
1642,-0.08988346856669285,0.03832564605216642,84.92932127327106,0.0
1643,-0.08700074550647771,0.041110959330808196,84.89019541261537,0.0
1644,-0.0843021251714539,0.04370413763440125,84.8525137229135,0.0
1645,-0.08182883766137279,0.04610236909410513,84.81635280432975,0.0
1646,-0.07960653733777066,0.04830709492501233,84.781789143977,0.0
1647,-0.07763368021908644,0.05032720293826633,84.74889914468756,0.0
1648,-0.0758790708509338,0.05218004638871366,84.71775915513656,0.0
1649,-0.07428880268508459,0.05388987236974468,84.6884455013239,0.0
1650,-0.07279990121211533,0.055484070980520606,84.66103451942267,0.0
1651,-0.0713562753976533,0.05698832304621015,84.63560259000474,0.0
1652,-0.06992233565516827,0.05842201924771858,84.61222617365715,0.0
1653,-0.0684906349311717,0.05979516118835246,84.59098184800445,0.0
1654,-0.06708174883992984,0.06110739619668663,84.57194634615642,0.0
1655,-0.06573693409196286,0.06234906689713199,84.55519659660241,0.0
1656,-0.06450640216219525,0.06350342211227933,84.54080976457679,0.0
1657,-0.06343762154735082,0.06454867340703876,84.5288632949239,0.0
1658,-0.0625681808274404,0.06545854449200983,84.51943495649296,0.0
1659,-0.061926094398654215,0.06620037519045381,84.51260288809814,0.0
1660,-0.06153752565196568,0.0667306038742511,84.50844564608153,0.0
1661,-0.06143899246631025,0.0669883635713848,84.50704225352113,1.0
1662,-0.061689570577670244,0.0668887542160182,84.52392163607233,0.0
1663,-0.06237908007134926,0.06631789114729036,84.57378567089732,0.0
1664,-0.06363023100612115,0.06513194280498845,84.6555269414807,0.0
1665,-0.0655948386186283,0.06316200876300743,84.76810280912761,0.0
1666,-0.06844515650405626,0.06022588124979321,84.9105273175698,0.0
1667,-0.07236078130633572,0.056146572588970226,85.08186364628807,0.0
1668,-0.07751039116568,0.05077612925710366,85.28121703403477,0.0
1669,-0.0840273055871829,0.044021900531527276,85.50772810370617,0.0
1670,-0.09197946190589075,0.03587134775272178,85.76056652813507,0.0
1671,-0.10133762056476504,0.02641095131005243,86.0389249837671,0.0
1672,-0.11194905565706355,0.015835035307143804,86.34201334573827,0.0
1673,-0.12352582845081995,0.004441494664266132,86.66905308374218,0.0
1674,-0.1356554729308616,-0.007386617186711162,87.01927182340464,0.0
1675,-0.1478370795870579,-0.01921222378354731,87.39189804278563,0.0
1676,-0.15953846651116724,-0.030584232233026643,87.78615587821231,0.0
1677,-0.1702630255495722,-0.041080713914018095,88.20126001800026,0.0
1678,-0.1796110639919786,-0.05034877687269833,88.63641066682727,0.0
1679,-0.18732194232491145,-0.05813514446270636,89.09078856765616,0.0
1680,-0.19328946105744632,-0.06430313641670266,89.563550072224,0.0
1681,-0.19755094039953508,-0.06883422333092745,90.05382225528376,0.0
1682,-0.2002568443868289,-0.07181502578701134,90.56069807204763,0.0
1683,-0.20163054188986304,-0.07341297400423859,91.08323156268541,0.0
1684,-0.2019269786165142,-0.07384538799433259,91.62043311230845,0.0
1685,-0.20139634832981299,-0.07334726286421221,92.17126477964888,0.0
1686,-0.2002561821641141,-0.07214257202756139,92.73463571264246,0.0
1687,-0.19867357225969645,-0.07042265154714333,93.30939767434941,0.0
1688,-0.196758299691467,-0.06833353879725393,93.8943407080963,0.0
1689,-0.1945666655143002,-0.06597238080005045,94.48818897637796,0.0
1690,-0.19211429982081152,-0.06339153844039339,95.08959681388629,0.0
1691,-0.18939434150575452,-0.060608037008040225,95.69714504098546,0.0
1692,-0.18639594518691469,-0.05761566597861401,96.30933758995958,0.0
1693,-0.1831179836673748,-0.05439727981882507,96.92459850233126,0.0
1694,-0.1795745244723002,-0.05093553013143548,97.54126936137209,0.0
1695,-0.17579184287228694,-0.0472211110730409,98.15760722946517,0.0
1696,-0.171800282538725,-0.04325835244829021,98.77178316506976,0.0
1697,-0.16762661933736145,-0.039068445420494965,99.38188139849332,0.0
1698,-0.16329236750437168,-0.03469066845193251,99.98589924928208,0.0
1699,-0.15882038524319034,-0.030181787690772018,100.58174787056451,0.0
1700,-0.15424741272514256,-0.02561354546716748,101.16725390686433,0.0
1701,-0.14963615798468025,-0.021068056585491796,101.7401621514732,0.0
1702,-0.14507947953758496,-0.016631154173684857,102.29813928715875,0.0
1703,-0.14069193733110782,-0.012384251626104856,102.83877878950186,0.0
1704,-0.13658941003871627,-0.00839592895756221,103.359607065245,0.0
1705,-0.13286314496304533,-0.004714922160503905,103.8580908884459,0.0
1706,-0.12955788378919283,-0.0013662244674794502,104.33164618476623,0.0
1707,-0.12666297641553198,0.0016485252254134913,104.77764819873641,0.0
1708,-0.12412075678318682,0.004346198028079361,105.1934430602513,0.0
1709,-0.12184975162279849,0.0067538962515529925,105.57636074488278,0.0
1710,-0.1197744048937929,0.008899249132513859,105.92372939797254,0.0
1711,-0.11785055600200374,0.010801738454080303,106.23289096513909,0.0
1712,-0.11607796247607924,0.012467252425148604,106.50121804218543,0.0
1713,-0.11449661557142214,0.01388718006887705,106.72613182596066,0.0
1714,-0.1131698348055247,0.015042122445394813,106.90512101518958,0.0
1715,-0.1121614194283639,0.01590908954306726,107.03576147746276,0.0
1716,-0.11151499970580968,0.01647021561589083,107.11573646643392,0.0
1717,-0.11124143160395156,0.016720760477756693,107.14285714285714,1.0
1718,-0.11131617465758446,0.016674480358592363,107.12188684441963,0.0
1719,-0.11168498700768491,0.016365196481877772,107.05973808267484,0.0
1720,-0.11227431131208826,0.01584432044479453,106.95762141305875,0.0
1721,-0.11300272958062392,0.015174968424368739,106.81683005436179,0.0
1722,-0.11379119003114466,0.014423930910774482,106.63873082695902,0.0
1723,-0.11457125165036407,0.013653073386445839,106.42475501577825,0.0
1724,-0.11529145416991737,0.012911723981017455,106.17638925104727,0.0
1725,-0.11592186940315867,0.012231312921656983,105.89516649355359,0.0
1726,-0.11645635637756242,0.011623051039745237,105.58265720390628,0.0
1727,-0.11691171103461,0.011078865237913653,105.24046076733934,0.0
1728,-0.11732320564098701,0.010575241557052311,104.87019723715474,0.0
1729,-0.11773689575033104,0.010079149449252896,104.47349945118667,0.0
1730,-0.11820009588191097,0.009554909424632644,104.05200556686954,0.0
1731,-0.11875207434744867,0.008970771688431963,103.60735205178865,0.0
1732,-0.11941698159120895,0.008304110461074918,103.14116715814065,0.0
1733,-0.12020033818309822,0.007544478007220687,102.6550649014631,0.0
1734,-0.12108940443371685,0.006694232907969466,102.15063955641536,0.0
1735,-0.12205685994124274,0.0057669594206034725,101.6294606753956,0.0
1736,-0.12306669415329288,0.004784322341224024,101.0930686294166,0.0
1737,-0.12408102281824993,0.003772263994217529,100.54297066498307,0.0
1738,-0.125066516775493,0.0027574917033401257,99.98063746572986,0.0
1739,-0.12599914497953277,0.0017650182818853735,99.40750020330216,0.0
1740,-0.1268660703590599,0.0008171494080458899,98.82494805836865,0.0
1741,-0.12766399089167663,-6.61494239883129e-05,98.23432618973678,0.0
1742,-0.1283941066066986,-0.0008660080014996326,97.63693412724783,0.0
1743,-0.12905507808680777,-0.0015633158010797776,97.03402456242691,0.0
1744,-0.12963639752573566,-0.0021381283683876593,96.4268025097018,0.0
1745,-0.1301149662362666,-0.002570423049299644,95.81642481033215,0.0
1746,-0.13045697346110532,-0.0028423642939227026,95.20399995095353,0.0
1747,-0.13062544430546566,-0.002941693376850155,94.59058816878537,0.0
1748,-0.1305916256644509,-0.002865381703064709,93.97720181602453,0.0
1749,-0.13034658436004168,-0.002622442418626172,93.36480595669578,0.0
1750,-0.12990880953883882,-0.002234881674948359,92.7543191702086,0.0
