,PPG_Raw,PPG_Clean,PPG_Rate,PPG_Peaks
0,-2.965381497203267,0.5527621871413475,84.21537045559134,0.0
1,-2.70713118287111,0.8122064412561989,84.21537045559134,0.0
2,-2.4424844387953377,1.074645929007705,84.21537045559134,0.0
3,-2.167064403043417,1.341510480130974,84.21537045559134,0.0
4,-1.8806932576001152,1.6118680760066948,84.21537045559134,0.0
5,-1.588164777548627,1.881893653650872,84.21537045559134,0.0
6,-1.2987692557934867,2.1449205953797215,84.21537045559134,0.0
7,-1.02478231015533,2.3920559142492075,84.21537045559134,0.0
8,-0.7793861438710675,2.6132290739414095,84.21537045559134,0.0
9,-0.5745802686629806,2.798468451309744,84.21537045559134,0.0
10,-0.4195491384264643,2.9391725876664117,84.21537045559134,0.0
11,-0.31974249006057043,3.0291658145130325,84.21537045559134,0.0
12,-0.27668330302571775,3.065387898559652,84.21537045559134,0.0
13,-0.2883355452323552,3.048146447311468,84.21537045559134,0.0
14,-0.3497873319222642,2.9809396260259575,84.21537045559134,0.0
15,-0.4540328320419659,2.8699203223415597,84.21537045559134,0.0
16,-0.5927272450096116,2.723113361099172,84.21537045559134,0.0
17,-0.7568860479847316,2.5495137436351647,84.21537045559134,0.0
18,-0.9375538683480359,2.3581899668234767,84.21537045559134,0.0
19,-1.1264605061478845,2.157498022948447,84.21537045559134,0.0
20,-1.316629154044324,1.9544841587013142,84.21537045559134,0.0
21,-1.5028467940453007,1.7545220994390056,84.21537045559134,0.0
22,-1.6818903324354404,1.561196450946161,84.21537045559134,0.0
23,-1.8524413002549942,1.3764114322021013,84.21537045559134,0.0
24,-2.014702340132672,1.2006764399085466,84.21537045559134,0.0
25,-2.169814510135302,1.0335009178571182,84.21537045559134,0.0
26,-2.3192283553751722,0.8738236601263218,84.21537045559134,0.0
27,-2.4641824896882794,0.720407231065421,84.21537045559134,0.0
28,-2.6053940491165464,0.5721451931053445,84.21537045559134,0.0
29,-2.7429890408004627,0.4282542255098465,84.21537045559134,0.0
30,-2.8766278718228753,0.2883492610515086,84.21537045559134,0.0
31,-3.0057358518063997,0.15242163962746935,84.21537045559134,0.0
32,-3.129739084145532,0.020753672706014692,84.21537045559134,0.0
33,-3.2482278507381133,-0.10619376499060351,84.21537045559134,0.0
34,-3.361009417589252,-0.22788979539091225,84.21537045559134,0.0
35,-3.46805545807302,-0.34381886512691673,84.21537045559134,0.0
36,-3.5693837488375664,-0.45353617551009273,84.21537045559134,0.0
37,-3.664932279527247,-0.5566966042476852,84.21537045559134,0.0
38,-3.754484192645951,-0.6530655325763133,84.21537045559134,0.0
39,-3.8376825957287553,-0.7425197361371519,84.21537045559134,0.0
40,-3.9141358986425243,-0.825042661039509,84.21537045559134,0.0
41,-3.983570100051502,-0.9007138006588722,84.21537045559134,0.0
42,-4.045958465799973,-0.969689256273585,84.21537045559134,0.0
43,-4.101566450932333,-1.0321714724937938,84.21537045559134,0.0
44,-4.150886150369748,-1.0883703749794564,84.21537045559134,0.0
45,-4.194483159638849,-1.1384638481974068,84.21537045559134,0.0
46,-4.2328187624926095,-1.1825699829148886,84.21537045559134,0.0
47,-4.266124298462122,-1.220744400409276,84.21537045559134,0.0
48,-4.294385820670219,-1.2530121081170347,84.21537045559134,0.0
49,-4.317453563393686,-1.2794353679816506,84.21537045559134,0.0
50,-4.335240643867911,-1.3002090387156882,84.21537045559134,0.0
51,-4.347939319582453,-1.3157655185823602,84.21537045559134,0.0
52,-4.356175400109662,-1.3268651687233373,84.21537045559134,0.0
53,-4.361044911603327,-1.334646276435151,84.21537045559134,0.0
54,-4.364021433845168,-1.3406113035745317,84.21537045559134,0.0
55,-4.366767300247941,-1.3465325514792605,84.21537045559134,0.0
56,-4.370905656344935,-1.3542694462109421,84.21537045559134,0.0
57,-4.3778022807096,-1.3655007581174867,84.21537045559134,0.0
58,-4.38837273224992,-1.3813880461932662,84.21537045559134,0.0
59,-4.402893133314907,-1.4022013043957247,84.21537045559134,0.0
60,-4.420776098551563,-1.4269532313059743,84.21537045559134,0.0
61,-4.440291173476256,-1.453102306317122,84.21537045559134,0.0
62,-4.458258263600004,-1.4763929383969892,84.21537045559134,0.0
63,-4.4698031330295285,-1.4908986302489433,84.21537045559134,0.0
64,-4.468307969556062,-1.489317512968954,84.21537045559134,0.0
65,-4.4456917573355135,-1.4635376220673222,84.21537045559134,0.0
66,-4.393102384549276,-1.4054448830074335,84.21537045559134,0.0
67,-4.30200246085648,-1.3078972850364292,84.21537045559134,0.0
68,-4.165511070754697,-1.1657446165449548,84.21537045559134,0.0
69,-3.9797633808328174,-0.9767455403456042,84.21537045559134,0.0
70,-3.7450056923807136,-0.7422314153364371,84.21537045559134,0.0
71,-3.4661737307467693,-0.4673927106666185,84.21537045559134,0.0
72,-3.152799343393638,-0.16111612036982403,84.21537045559134,0.0
73,-2.818226614941324,0.16463067960429678,84.21537045559134,0.0
74,-2.4782564030717897,0.4957977417209898,84.21537045559134,0.0
75,-2.149447839034302,0.8175055136554454,84.21537045559134,0.0
76,-1.8473662325996534,1.1153845867768346,84.21537045559134,0.0
77,-1.5850672788943607,1.376828140901937,84.21537045559134,0.0
78,-1.3720440960055866,1.5920049083134036,84.21537045559134,0.0
79,-1.2137478948576212,1.7545259170546428,84.21537045559134,0.0
80,-1.1116569018858435,1.861716099446595,84.21537045559134,0.0
81,-1.0637568131847908,1.914499903743999,84.21537045559134,0.0
82,-1.06524712730823,1.9169579530366334,84.21537045559134,1.0
83,-1.1093096705095458,1.8756432253619595,84.25490300875242,0.0
84,-1.1878432810680597,1.7987586544132494,84.2940009277974,0.0
85,-1.2921392154026459,1.6952959642641046,84.33266009116363,0.0
86,-1.4135100865060015,1.5742226654808182,84.3708763792386,0.0
87,-1.543880510378496,1.4437853959350115,84.40864567474694,0.0
88,-1.6763153935582946,1.3109769543406746,84.4459638631412,0.0
89,-1.8054302138487166,1.1811935914397114,84.48282683299611,0.0
90,-1.927620418791019,1.058089312720847,84.51923047640649,0.0
91,-2.0410711134854886,0.9436155978396434,84.55517068938873,0.0
92,-2.145552739109258,0.8382187850018614,84.59064337228574,0.0
93,-2.2420536545899106,0.7411545867889926,84.6256444301753,0.0
94,-2.3323288972843836,0.6508711690230703,84.66016977328185,0.0
95,-2.418448020693333,0.5654099741002394,84.69421531739168,0.0
96,-2.5024069501168236,0.4827772393639521,84.7277769842714,0.0
97,-2.5858401966609312,0.40124819520923516,84.76085070208966,0.0
98,-2.6698431943042205,0.3195786388591578,84.79343240584213,0.0
99,-2.754898021251404,0.23711293752555196,84.82551803777947,0.0
100,-2.840889486729974,0.15379148844382612,84.85710354783872,0.0
101,-2.9271968422808614,0.07007256104955822,84.88818489407738,0.0
102,-3.0128434812916955,-0.013207915390401725,84.91875804311071,0.0
103,-3.096681628454393,-0.09501032295170997,84.94881897055195,0.0
104,-3.1775840523536893,-0.17427010939384752,84.9783636614552,0.0
105,-3.254613591389121,-0.25005542023975597,85.00738811076144,0.0
106,-3.3271449395231683,-0.32168381756971964,85.03588832374695,0.0
107,-3.394921291237533,-0.38878640747141846,85.06386031647466,0.0
108,-3.4580405479982175,-0.4513165370755342,85.091300116248,0.0
109,-3.5168804694999873,-0.5095084640079612,85.11820376206731,0.0
110,-3.5719854781752214,-0.563797893973514,85.14456730508871,0.0
111,-3.6239441636103606,-0.6147202597491837,85.17038680908537,0.0
112,-3.6732826692007294,-0.6628038317818084,85.1956583509112,0.0
113,-3.7203876045386095,-0.708473480783953,85.2203780209666,0.0
114,-3.7654598347930097,-0.7519778028779863,85.2445419236666,0.0
115,-3.808493802452484,-0.7933481531911528,85.26814617791102,0.0
116,-3.8492777330531576,-0.8323936146672816,85.29118691755652,0.0
117,-3.887415262190671,-0.8687315460681069,85.3136602918908,0.0
118,-3.922373660919652,-0.9018493932666445,85.3355624661086,0.0
119,-3.9535635095294173,-0.9311900881145476,85.35688962178938,0.0
120,-3.9804474450916203,-0.9562507672895597,85.3776379573768,0.0
121,-4.002663202271667,-0.976682906583291,85.39780368865979,0.0
122,-4.020134027882944,-0.9923814230404268,85.41738304925504,0.0
123,-4.033134925386495,-1.0035508251121459,85.4363722910911,0.0
124,-4.042291175255763,-1.0107378413494172,85.45476768489364,0.0
125,-4.048505146074184,-1.0148217358888711,85.4725655206721,0.0
126,-4.052830377185511,-1.0169554170292185,85.48976210820744,0.0
127,-4.056326521036562,-1.0184525430104903,85.50635377754087,0.0
128,-4.059926239521046,-1.020618773380343,85.52233687946371,0.0
129,-4.064325444613436,-1.0245302009274941,85.53770778600804,0.0
130,-4.069881036588298,-1.030769885482556,85.55246289093802,0.0
131,-4.076480949402807,-1.0391445753271782,85.5665986102421,0.0
132,-4.083353830204882,-1.0484169467929143,85.58011138262565,0.0
133,-4.088815407414101,-1.0561010614961077,85.59299767000401,0.0
134,-4.089998186453249,-1.0583759313042775,85.60525395799614,0.0
135,-4.08266152062848,-1.0501695892289624,85.61687675641829,0.0
136,-4.061206056959018,-1.025450779146864,85.6278625997779,0.0
137,-4.019000465927722,-0.9777370947263753,85.63820804776765,0.0
138,-3.9490640299924005,-0.9007906465366373,85.64790968575939,0.0
139,-3.8450504071059104,-0.789432076707085,85.65696412529779,0.0
140,-3.7023768815705314,-0.6403698770361279,85.66536800459394,0.0
141,-3.5192767708655053,-0.45292305025976076,85.67311798901841,0.0
142,-3.2975476916672766,-0.22951699352849414,85.68021077159378,0.0
143,-3.0428292994045325,0.02414354943127084,85.68664307348679,0.0
144,-2.764348804913872,0.29927802965526096,85.69241164449953,0.0
145,-2.474182876317587,0.5846099447223372,85.69751326355981,0.0
146,-2.1861650167767164,0.8672674701740124,85.70194473921082,0.0
147,-1.9146018586524687,1.133901836040167,85.70570291009938,0.0
148,-1.672957112938994,1.3718882718757603,85.70878464546335,0.0
149,-1.472639130048045,1.57046208409465,85.71118684561748,0.0
150,-1.3220060880370323,1.721651291771267,85.7129064424379,0.0
151,-1.2256870111541762,1.8208954489751348,85.7139403998452,0.0
152,-1.1842984170155404,1.8672835235069443,85.71428571428572,1.0
153,-1.1946023667521466,1.8633957471725764,85.71356384440462,0.0
154,-1.2500966049108078,1.8147876965829242,85.71142567558236,0.0
155,-1.341959099238304,1.7292016001458343,85.70791246822623,0.0
156,-1.4602052358586721,1.6156228142119395,85.70306560429101,0.0
157,-1.5948752760558205,1.4833133830205192,85.69692657422958,0.0
158,-1.7370655700532451,1.3409475404067304,85.6895369643182,0.0
159,-1.8796528026056922,1.1959476498832302,85.68093844436302,0.0
160,-2.0176289028683794,1.0540787747156333,85.67117275579264,0.0
161,-2.148048672478489,0.9193138126637372,85.66028170014118,0.0
162,-2.26967120223985,0.7939378464164697,85.6483071279265,0.0
163,-2.3824297374278167,0.6788279287400889,85.6352909279268,0.0
164,-2.486880269924646,0.5738280306630422,85.6212750168594,0.0
165,-2.5837551535948795,0.4781396062391451,85.606301329464,0.0
166,-2.6736941960049436,0.3906635949753832,85.59041180899345,0.0
167,-2.757160611980636,0.3102542177770865,85.57364839811365,0.0
168,-2.8344945868140736,0.23587186984304695,85.5560530302143,0.0
169,-2.9060292729155015,0.1666455416495853,85.53766762113212,0.0
170,-2.972196969870094,0.10187025218346307,85.51853406128713,0.0
171,-3.0335785930639867,0.0409704145209987,85.49869420823273,0.0
172,-3.0908826986297635,-0.016543059575708896,85.47818987962013,0.0
173,-3.1448685488459307,-0.07110287659593878,85.45706284657666,0.0
174,-3.1962441915760142,-0.12309448075740514,85.43535482749822,0.0
175,-3.2455737035117296,-0.1728456068950882,85.41310748225497,0.0
176,-3.293219127798503,-0.22060407375087676,85.39036240680971,0.0
177,-3.3393263815590055,-0.26651401194865254,85.36716112824776,0.0
178,-3.3838474128505682,-0.31059961284823445,85.34354510021736,0.0
179,-3.4265806888494517,-0.3527621148295537,85.31955569877903,0.0
180,-3.4672127068250793,-0.3927915463713481,85.29523421866224,0.0
181,-3.5053523760552014,-0.43039093423908314,85.27062186992798,0.0
182,-3.540560869707007,-0.46520805285301026,85.24575977503497,0.0
183,-3.5723850113037883,-0.49686871237051333,85.22068896630766,0.0
184,-3.600399749996475,-0.5250061214718345,85.19545038380414,0.0
185,-3.6242571292129115,-0.5492828594644723,85.1700848735812,0.0
186,-3.6437306830830245,-0.5694050853915151,85.14463318635492,0.0
187,-3.658740723647601,-0.585132173875565,85.11913597655392,0.0
188,-3.669350388682073,-0.5962880851228638,85.0936338017632,0.0
189,-3.6757337550912714,-0.6027823406417719,85.06816712255608,0.0
190,-3.678131384975024,-0.6046474426306702,85.04277630271162,0.0
191,-3.6768191131633245,-0.6020953552851407,85.01750160981555,0.0
192,-3.672117161863674,-0.5955885216491059,84.99238321624188,0.0
193,-3.664456042339703,-0.585912154317594,84.9674612005129,0.0
194,-3.654494117475792,-0.5742265200052172,84.94277554903567,0.0
195,-3.6432539088690343,-0.5620734322238518,84.91836615821212,0.0
196,-3.6322189318357507,-0.551312657264985,84.89427283692096,0.0
197,-3.623321864206971,-0.5439727000115868,84.87053530936936,0.0
198,-3.618769252943196,-0.5420158375032043,84.84719321831231,0.0
199,-3.620690859462254,-0.5470365883846386,84.82428612863768,0.0
200,-3.6306623246172793,-0.5599317221213902,84.80185353131566,0.0
201,-3.6492046773505713,-0.5805935973135896,84.77993484771052,0.0
202,-3.675387967260871,-0.6076831340041987,84.75856943425374,0.0
203,-3.706646190225757,-0.6385322187828695,84.73779658747698,0.0
204,-3.738854984389586,-0.6692086259390214,84.71765554940399,0.0
205,-3.766657478166084,-0.6947528388330231,84.69818551330063,0.0
206,-3.783974485796555,-0.7095701640761163,84.6794256297824,0.0
207,-3.7846169090526938,-0.7079381423382931,84.66141501327894,0.0
208,-3.762925400977284,-0.68457244772386,84.6441927488557,0.0
209,-3.7143775934581087,-0.635186598466821,84.62779789939248,0.0
210,-3.6361110479968315,-0.5569824434312987,84.6122695131197,0.0
211,-3.527308210165122,-0.44901848815444273,84.59764663151262,0.0
212,-3.3893892782253565,-0.31241936875432597,84.58396829754491,0.0
213,-3.2259750884038456,-0.1504090550220142,84.57127356430263,0.0
214,-3.0426206930452464,0.03183070220846801,84.55960150396012,0.0
215,-2.8463705688473953,0.2274595105742151,84.5489912171204,0.0
216,-2.645225074965543,0.4284073161499392,84.53948184252143,0.0
217,-2.447612668022462,0.6259001050470272,84.53111256711178,0.0
218,-2.2619274703446193,0.8110474756500199,84.52392263649857,0.0
219,-2.0961338691469993,0.9754565250308109,84.51795136577071,0.0
220,-1.9573909392635025,1.1118343545366784,84.51323815070222,0.0
221,-1.8516388163543844,1.2145369422994958,84.50982247933905,0.0
222,-1.7831255480077794,1.2800164808255075,84.50774394397492,0.0
223,-1.7539194014594603,1.307116050382819,84.50704225352113,1.0
224,-1.7635148693059999,1.2971642124054066,84.51109967078916,0.0
225,-1.8086689470481607,1.2538364128842345,84.52310859640885,0.0
226,-1.8835819057525194,1.1827759162595055,84.54282719852638,0.0
227,-1.9804683702279418,1.0910014833419548,84.57001749667697,0.0
228,-2.0904703840669274,0.9861656975132203,84.6044449292442,0.0
229,-2.204772010476688,0.8757581658281113,84.64587793865134,0.0
230,-2.315711915159755,0.7663634926918848,84.69408757323562,0.0
231,-2.417676003072481,0.6630794708293235,84.7488471048605,0.0
232,-2.5075937362549823,0.5691755562324297,84.80993166141872,0.0
233,-2.5849510544326137,0.48602983909580016,84.87711787347043,0.0
234,-2.651346929612751,0.41333315445020535,84.95018353434715,0.0
235,-2.70972716164035,0.3495025625870883,85.02890727313381,0.0
236,-2.763496231650567,0.29221330100271314,85.11306824001885,0.0
237,-2.815716472901402,0.2389452279706512,85.20244580357546,0.0
238,-2.8685547668212164,0.1874484919411978,85.29681925960737,0.0
239,-2.92305156124255,0.1360602021985385,85.39596755125909,0.0
240,-2.9791961331836143,0.08384177440848384,85.49966900015446,0.0
241,-3.036222941894155,0.030546089112057417,85.60770104838883,0.0
242,-3.093011068895646,-0.023544041311899994,85.71984001125853,0.0
243,-3.148472075149329,-0.07784541265241252,85.83586084066772,0.0
244,-3.2018407604810064,-0.13170764170347163,85.95553689920729,0.0
245,-3.2528238673857293,-0.1845962588405209,86.07863974495218,0.0
246,-3.3016008465834563,-0.2361923922073223,86.20493892707391,0.0
247,-3.3487005859518013,-0.286400464893747,86.33420179241305,0.0
248,-3.394796523080875,-0.33527838938738713,86.46619330320293,0.0
249,-3.4404716547389618,-0.38292142803968476,86.60067586617946,0.0
250,-3.486006857329552,-0.42933837632088645,86.73740917335536,0.0
251,-3.531240895142994,-0.47435643550321627,86.87615005477555,0.0
252,-3.5755371845105812,-0.5175806088105405,87.01665234361049,0.0
253,-3.617870419510334,-0.5584178460760102,87.15866675397812,0.0
254,-3.6570184231468295,-0.5961595123943286,87.30194077191983,0.0
255,-3.691817375753181,-0.6301020595131424,87.4462185599856,0.0
256,-3.7214197217439264,-0.6596780814308272,87.59124087591242,0.0
257,-3.745490208686626,-0.6845696313071925,87.73674500590413,0.0
258,-3.7642896496990823,-0.704782180373186,87.88246471304372,0.0
259,-3.778625704147411,-0.7206685235317061,88.02813020138667,0.0
260,-3.7896871061798842,-0.7329037679602405,88.17346809629964,0.0
261,-3.7988104627984205,-0.7424216729810509,88.31820144161885,0.0
262,-3.807245574172253,-0.7503264479364897,88.46204971420975,0.0
263,-3.8159798678799177,-0.7577919297326152,88.60472885651156,0.0
264,-3.8256564660085854,-0.7659532909112787,88.74595132764762,0.0
265,-3.8365825021364186,-0.7757882963569186,88.88542617367496,0.0
266,-3.848787752429988,-0.7879796437906832,89.02285911753327,0.0
267,-3.8620714588392073,-0.8027505491999911,89.157952669235,0.0
268,-3.875975955740967,-0.8196740985815233,89.29040625681334,0.0
269,-3.8896506831528006,-0.8374719615746408,89.41991637851453,0.0
270,-3.90161313146143,-0.8538361349983475,89.54617677668317,0.0
271,-3.909462367306162,-0.865322836391549,89.66887863374541,0.0
272,-3.909641711178234,-0.8673744493167431,89.78771079064462,0.0
273,-3.8973661813751863,-0.8545188289871063,89.90235998802534,0.0
274,-3.866817400848457,-0.820773544147767,90.01251113039753,0.0
275,-3.8116607148663912,-0.760247870460053,90.11784757344,0.0
276,-3.725863671903702,-0.6678935007997089,90.21805143452359,0.0
277,-3.6047105665110357,-0.5403146625531106,90.31280392644697,0.0
278,-3.445840067858694,-0.37651909277557927,90.40178571428571,0.0
279,-3.2501045367951438,-0.17848110966564792,90.48467729515346,0.0
280,-3.0220693466394333,0.048598662833820916,90.56115940056813,0.0
281,-2.7700299163794004,0.29641573530060294,90.63091342100152,0.0
282,-2.5055036891592146,0.5540903709638757,90.6936218520726,0.0
283,-2.242235233592662,0.8090625491911774,90.7489687617186,0.0
284,-1.994825586888538,1.0482519892497513,90.79664027754997,0.0
285,-1.7771600148750402,1.2593344356317595,90.83632509346002,0.0
286,-1.6008573892928755,1.4319612353792164,90.86771499442459,0.0
287,-1.4739854153763883,1.558753724953272,90.89050539828617,0.0
288,-1.4002597538008177,1.6359370514565768,90.90439591317661,0.0
289,-1.3788628969430157,1.6635341431579571,90.9090909090909,1.0
290,-1.4048957521861147,1.6451093442247502,90.90817955385332,0.0
291,-1.4703479297263806,1.5871199127971525,90.90548223261266,0.0
292,-1.5653808573102177,1.4979895343318996,90.90105421019919,0.0
293,-1.6796826302243912,1.3870515587403185,90.894950931944,0.0
294,-1.8036732269264288,1.263516108377531,90.8872280029552,0.0
295,-1.9293973501263877,1.1355954899481575,90.87794116802793,0.0
296,-2.0510211368348292,1.0098825114432186,90.86714629219908,0.0
297,-2.1649319957707176,0.8910257390160747,90.854899341956,0.0
298,-2.269512634003645,0.7816948528912147,90.84125636710783,0.0
299,-2.364706671886401,0.6827872439298777,90.8262734833272,0.0
300,-2.451505065766378,0.5937999912077861,90.81000685536853,0.0
301,-2.5314612822258575,0.5132816667945277,90.79251268096965,0.0
302,-2.606301580225651,0.43928458791933067,90.77384717544068,0.0
303,-2.677653266273186,0.36975597105766705,90.75406655694506,0.0
304,-2.746883062053286,0.30283037320011885,90.73322703247595,0.0
305,-2.815024052721147,0.23701033583682712,90.71138478453042,0.0
306,-2.8827677689817306,0.1712429222194768,90.68859595848375,0.0
307,-2.950499835147475,0.10491419735790469,90.66491665066471,0.0
308,-3.0183592171202123,0.03779072679838669,90.64040289713283,0.0
309,-3.0863030577665778,-0.030062605692855904,90.61511066315744,0.0
310,-3.1541628790653347,-0.09836422659859406,90.58909583339798,0.0
311,-3.2216829820865125,-0.16668104666461236,90.5624142027846,0.0
312,-3.2885366325259238,-0.2344707599426517,90.53512146809761,0.0
313,-3.3543200727803266,-0.30110354673724865,90.50727322024349,0.0
314,-3.4185300021136067,-0.36587185468257144,90.47892493722529,0.0
315,-3.480537092056556,-0.42800004313413176,90.45013197780452,0.0
316,-3.539573567513612,-0.48666516114411973,90.42094957585162,0.0
317,-3.594752912453005,-0.5410363345596932,90.39143283538131,0.0
318,-3.645132634232779,-0.5903341667931032,90.36163672626905,0.0
319,-3.6898187502320527,-0.633904723569432,90.3316160806453,0.0
320,-3.728097379410588,-0.6712968162529483,90.30142558996258,0.0
321,-3.759568341708986,-0.7023280111118156,90.27111980273173,0.0
322,-3.7842505180759107,-0.7271251099852603,90.24075312292268,0.0
323,-3.8026305073032898,-0.7461289383030499,90.21037980902521,0.0
324,-3.815635521601936,-0.7600603040506322,90.18005397376511,0.0
325,-3.8245273754425324,-0.7698522362691563,90.14982958447145,0.0
326,-3.8307333249245747,-0.7765608453347995,90.11976046408996,0.0
327,-3.8356462972385077,-0.7812712029084078,90.08990029283817,0.0
328,-3.840436752053432,-0.7850140489095936,90.06030261049801,0.0
329,-3.8459176308974388,-0.7887036566717488,90.03102081934117,0.0
330,-3.8524913606464337,-0.7930980671634976,90.00210818768328,0.0
331,-3.8601851618125,-0.7987727146026625,89.97361785406265,0.0
332,-3.868752790041191,-0.8060905461721227,89.94560283204007,0.0
333,-3.877795366696859,-0.8151492826657956,89.91811601561521,0.0
334,-3.8868404936759617,-0.8256915054305213,89.89121018525755,0.0
335,-3.895324616904415,-0.8369758067974973,89.86493801454726,0.0
336,-3.9024505362235526,-0.8476249340797873,89.83935207742468,0.0
337,-3.90693547020621,-0.8554852196328383,89.81450485604468,0.0
338,-3.9067146557494343,-0.8575450406980478,89.79044874923505,0.0
339,-3.8987061771671905,-0.8499634004347245,89.76723608155615,0.0
340,-3.878757989506785,-0.8282497796168866,89.74491911296165,0.0
341,-3.8418748555961644,-0.7876132420965447,89.72355004905869,0.0
342,-3.7827589139723714,-0.7234661229663317,89.70318105196777,0.0
343,-3.69660711847516,-0.632032246576845,89.68386425178265,0.0
344,-3.580021423781246,-0.5109796719029787,89.66565175863037,0.0
345,-3.4318375489877018,-0.3599808520440004,89.648595675334,0.0
346,-3.253687742834524,-0.18110347193984652,89.63274811067848,0.0
347,-3.050179295000075,0.02104621638162585,89.61816119328388,0.0
348,-2.8286649493613663,0.2394723090357318,89.60488708608811,0.0
349,-2.5986645834958386,0.46523308495398985,89.59297800144356,0.0
350,-2.3710420422506258,0.6881391882270028,89.58248621683228,0.0
351,-2.157045731137351,0.8976282565341005,89.57346409120541,0.0
352,-1.9673075362132064,1.0837121640517575,89.56596408195281,0.0
353,-1.810885727732213,1.237881892096904,89.56003876250995,0.0
354,-1.694441864249111,1.3538598678638296,89.55574084061041,0.0
355,-1.6216483087283013,1.4281095973134954,89.55312317719259,0.0
356,-1.5929137899777144,1.4600448509711785,89.55223880597015,1.0
357,-1.605479853084224,1.4519211094295636,89.55223880597015,0.0
358,-1.6538857190254355,1.408434641187984,89.55223880597015,0.0
359,-1.730736958909956,1.3360929964485628,89.55223880597015,0.0
360,-1.827659579240551,1.2424487421709816,89.55223880597015,0.0
361,-1.9362878120234626,1.1353013762752264,89.55223880597015,0.0
362,-2.049129949721771,1.021968587818372,89.55223880597015,0.0
363,-2.160185960407901,0.9087085996294505,89.55223880597015,0.0
364,-2.265248865638934,0.8003445052508232,89.55223880597015,0.0
365,-2.3618941762229184,0.7001057026997834,89.55223880597015,0.0
366,-2.449226932687935,0.6096678200396036,89.55223880597015,0.0
367,-2.5274951275292654,0.5293470297756826,89.55223880597015,0.0
368,-2.5976825734844176,0.45839111406264776,89.55223880597015,0.0
369,-2.6611674643961423,0.3953087683222442,89.55223880597015,0.0
370,-2.7194884152312784,0.33818821236020574,89.55223880597015,0.0
371,-2.774214439699065,0.28497202149130224,89.55223880597015,0.0
372,-2.8268832033062323,0.2336723585712573,89.55223880597015,0.0
373,-2.878960644447163,0.18252534362036896,89.55223880597015,0.0
374,-2.931784698135874,0.13009264751740224,89.55223880597015,0.0
375,-2.986479450855797,0.07532201115232007,89.55223880597015,0.0
376,-3.0438522080647403,0.017577400617809102,89.55223880597015,0.0
377,-3.104303021637655,-0.04335403342829919,89.55223880597015,0.0
378,-3.1677772377910394,-0.10727498602233157,89.55223880597015,0.0
379,-3.2337776143194557,-0.17361064024068323,89.55223880597015,0.0
380,-3.301431825363559,-0.24146155198776614,89.55223880597015,0.0
381,-3.369594523923249,-0.3096766792162759,89.55223880597015,0.0
382,-3.436958023999822,-0.3769445228058901,89.55223880597015,0.0
383,-3.5021529480142224,-0.44189783102983504,89.55223880597015,0.0
384,-3.5638346496636153,-0.5032247432476573,89.55223880597015,0.0
385,-3.620764542552032,-0.5597770216354216,89.55223880597015,0.0
386,-3.6718998458920664,-0.6106645651784145,89.55223880597015,0.0
387,-3.7164970358793186,-0.655325248834048,89.55223880597015,0.0
388,-3.7542165790967883,-0.6935608588620061,89.55223880597015,0.0
389,-3.7851988975958615,-0.7255338672005733,89.55223880597015,0.0
390,-3.8100754451686107,-0.7517258040406577,89.55223880597015,0.0
391,-3.8298908418940307,-0.7728650333326653,89.55223880597015,0.0
392,-3.8459394524938406,-0.7898380247156028,89.55223880597015,0.0
393,-3.8595514459431213,-0.8036016184422589,89.55223880597015,0.0
394,-3.8718851567230095,-0.8151125493355882,89.55223880597015,0.0
395,-3.883784035741456,-0.8252840348923446,89.55223880597015,0.0
396,-3.89573544084411,-0.8349685994575071,89.55223880597015,0.0
397,-3.907932119494005,-0.8449542040804993,89.55223880597015,0.0
398,-3.920399075228363,-0.8559509327524856,89.55223880597015,0.0
399,-3.933122778323181,-0.8685417101498781,89.55223880597015,0.0
400,-3.946115133284636,-0.8830753776407895,89.55223880597015,0.0
401,-3.9593616451032925,-0.8994943782939632,89.55223880597015,0.0
402,-3.9726354896879714,-0.9171101623259722,89.55223880597015,0.0
403,-3.98519803991852,-0.9343627357515862,89.55223880597015,0.0
404,-3.9954444695067446,-0.9486205798082791,89.55223880597015,0.0
405,-4.000584539541748,-0.9560873908414601,89.55223880597015,0.0
406,-3.9964670285864177,-0.9518780749955624,89.55223880597015,0.0
407,-3.9776529611873106,-0.9303063297989604,89.55223880597015,0.0
408,-3.937809984465193,-0.8853917847638502,89.55223880597015,0.0
409,-3.870436869412354,-0.811551632483094,89.55223880597015,0.0
410,-3.769844120936257,-0.7043984079911805,89.55223880597015,0.0
411,-3.6322366628549485,-0.5615316563265726,89.55223880597015,0.0
412,-3.456694127592538,-0.38319517629780475,89.55223880597015,0.0
413,-3.245842436860728,-0.17267862150465044,89.55223880597015,0.0
414,-3.0060596032407485,0.06362696135363222,89.55223880597015,0.0
415,-2.7471444414227197,0.31656011609439594,89.55223880597015,0.0
416,-2.4814755616977777,0.5748866284666216,89.55223880597015,0.0
417,-2.2227776580779883,0.8262845474987943,89.55223880597015,0.0
418,-1.984678175631328,1.058489945840653,89.55223880597015,0.0
419,-1.7792717603261525,1.2604504606341869,89.55223880597015,0.0
420,-1.6159073279555702,1.423333069046995,89.55223880597015,0.0
421,-1.5003714123320109,1.541257386195459,89.55223880597015,0.0
422,-1.4345674076243595,1.6116708451697068,89.55223880597015,0.0
423,-1.4166989565989778,1.635338591219828,89.55223880597015,1.0
424,-1.4418788293513976,1.6159782411531314,89.54375383197282,0.0
425,-1.5030222631415588,1.559617773417745,89.51859002758877,0.0
426,-1.5918571715978342,1.4737861581969647,89.47719732366973,0.0
427,-1.6998927626321005,1.3666571382513006,89.42004202170958,0.0
428,-1.819223643213542,1.2462572436126642,89.34760516930896,0.0
429,-1.9430951681654103,1.1198237415107726,89.26038094647838,0.0
430,-2.0662057350115326,0.9933633062219374,89.15887507091351,0.0
431,-2.1847653760397274,0.8714251423241225,89.0436032298184,0.0
432,-2.296363562864191,0.7570698493247963,88.9150895452605,0.0
433,-2.3997200955002516,0.6519923364368078,88.77386507942495,0.0
434,-2.4943984043447958,0.5567458617309331,88.62046638550468,0.0
435,-2.5805483644217495,0.4710143714220682,88.45543410932258,0.0
436,-2.658717495707139,0.3938891254581421,88.27931164614233,0.0
437,-2.7297332724807584,0.3241191805437055,88.09264385649145,0.0
438,-2.7946285119406986,0.2603195466572129,87.89597584419894,0.0
439,-2.8545693805827934,0.2011324911497277,87.68985179924819,0.0
440,-2.9107564247684286,0.14534483731138553,87.47481390746627,0.0
441,-2.964296044852865,0.09196717331394083,87.25140132851926,0.0
442,-3.016067014768896,0.04028090076344926,87.02014924316131,0.0
443,-3.0666188390092666,-0.010142229714928008,86.78158797019769,0.0
444,-3.1161307866707566,-0.059444527367662814,86.53624215316955,0.0
445,-3.1644390861387457,-0.10750728649945068,86.28463001635151,0.0
446,-3.2111174935071487,-0.15399210681223896,86.02726268927661,0.0
447,-3.2555831893363503,-0.19839361605288908,85.76464359866115,0.0
448,-3.297198863189371,-0.2400982874619516,85.4972679263018,0.0
449,-3.335350366417491,-0.2784446900912868,85.22562213125074,0.0
450,-3.369492400957057,-0.312781990772763,84.95018353434715,0.0
451,-3.3991672522635343,-0.3425252580889349,84.67141996298952,0.0
452,-3.424009770775063,-0.3672073287279329,84.38978945387393,0.0
453,-3.4437540463566205,-0.38652707035992034,84.105740011295,0.0
454,-3.4582540774263815,-0.40039263970086064,83.81970941850922,0.0
455,-3.467523773234568,-0.40895618021833535,83.53212509959017,0.0
456,-3.4717921732109014,-0.4126342024001996,83.24340402916175,0.0
457,-3.4715592831588866,-0.41210672779251384,82.95395268737558,0.0
458,-3.467629511559774,-0.40828908684417975,82.66416705750063,0.0
459,-3.4610981338305016,-0.40227344870460224,82.37443266351531,0.0
460,-3.453275143119366,-0.3952423816480736,82.08512464513034,0.0
461,-3.445549010110794,-0.38836289098287596,81.79660786772689,0.0
462,-3.439213408475925,-0.3826748542035931,81.50923706476195,0.0
463,-3.4352940341639746,-0.3789909281258366,81.22335701027366,0.0
464,-3.434414731716505,-0.377824670519167,80.93930271921012,0.0
465,-3.4367326902558917,-0.3793594988105553,80.6573996734037,0.0
466,-3.441956276620033,-0.3834639142809598,80.37796407111968,0.0
467,-3.4494415044004882,-0.3897497287811958,80.10130309821973,0.0
468,-3.4583476545975915,-0.3976618838998135,79.82771521909733,0.0
469,-3.4678207836112342,-0.406582821657281,79.5574904856617,0.0
470,-3.4771670017139975,-0.41593262283250004,79.2909108627702,0.0
471,-3.48597738422551,-0.4252486513475604,79.0282505686316,0.0
472,-3.4941754249983803,-0.43423446325437476,78.76977642882906,0.0
473,-3.5019766903126808,-0.4427754993936274,78.515748242735,0.0
474,-3.5097753381908467,-0.45092629103877785,78.2664191612163,0.0
475,-3.517995220012926,-0.45887841150245584,78.02203607465117,0.0
476,-3.5269543206732736,-0.4669188832532569,77.78284001040244,0.0
477,-3.5367839888003174,-0.4753852226493538,77.54906653901388,0.0
478,-3.5474205717022147,-0.48461725174876186,77.32094618851619,0.0
479,-3.558656376509019,-0.49489978858093964,77.09870486634848,0.0
480,-3.570211829953399,-0.5063871966060416,76.88256428851827,0.0
481,-3.5817804136766456,-0.5190027039346347,76.6727424157394,0.0
482,-3.5930048821873695,-0.53231303708364,76.46945389640253,0.0
483,-3.6033643086135054,-0.5453909249997677,76.27291051634599,0.0
484,-3.6119811347490405,-0.5566912528073885,76.08332165550968,0.0
485,-3.6173898174944954,-0.5639768034334922,75.90089475166666,0.0
486,-3.6173374165712757,-0.5643323870142761,75.72583577154136,0.0
487,-3.6087032166712683,-0.554298853400232,75.55834968973681,0.0
488,-3.587619584188582,-0.5301406203488948,75.39864097600932,0.0
489,-3.5498425876750135,-0.48823456563360146,75.24691409154538,0.0
490,-3.4913594082598225,-0.4255398083813014,75.10337399501577,0.0
491,-3.409143301072093,-0.3400839953038019,74.96822665930522,0.0
492,-3.301900132616118,-0.2313888785966801,74.84167959994195,0.0
493,-3.170621352442165,-0.10076058156752643,74.72394241638501,0.0
494,-3.0187861314299975,0.048611492228241016,74.6152273474646,0.0
495,-2.8521395326053502,0.21177241882206732,74.51574984241638,0.0
496,-2.678088897913226,0.38232573578730966,74.42572914910511,0.0
497,-2.5048655138456786,0.5529208353617365,74.34538892119532,0.0
498,-2.3406523150434944,0.7158391176788317,74.27495784620358,0.0
499,-2.1928601430685677,0.8636066352879561,74.21467029655253,0.0
500,-2.0676550842498305,0.9895669301007555,74.16476700595135,0.0
501,-1.9697350123925603,1.088363015132102,74.1254957736454,0.0
502,-1.9022713838410577,1.1562959355583957,74.09711219931654,0.0
503,-1.8669057622144043,1.1915436490505502,74.07988045167583,0.0
504,-1.8637237857284343,1.1942352029753494,74.07407407407408,1.0
505,-1.89119830417957,1.1663816277934402,74.08171232597537,0.0
506,-1.946160543371199,1.1116693028282314,74.10433381390456,0.0
507,-2.023891050369184,1.0351271853129576,74.14151146046507,0.0
508,-2.1184069493281426,0.9426884648248695,74.1928339155735,0.0
509,-2.222966361059618,0.8406797451740776,74.25790391869744,0.0
510,-2.3307382306459856,0.7352840627373715,74.33633674526982,0.0
511,-2.4355249209837355,0.6320336691761538,74.4277587286899,0.0
512,-2.53239817595442,0.5353903750649204,74.53180585018292,0.0
513,-2.61812480176976,0.4484629412111023,74.64812238956988,0.0
514,-2.691309439581407,0.3728928435907709,74.77635963070959,0.0
515,-2.7522497268649886,0.30891486706370785,74.91617461602418,0.0
516,-2.8025621310005824,0.2555724855933984,75.06722894511672,0.0
517,-2.844677308566756,0.2110454362290365,75.22918761304264,0.0
518,-2.8813142985361107,0.17303283345911333,75.40171788431138,0.0
519,-2.915026445486757,0.13913199450012256,75.58448819917851,0.0
520,-2.947879325242278,0.10716067176045649,75.77716710924426,0.0
521,-2.981284079144154,0.07538614585799966,75.97942223981005,0.0
522,-3.015977093157003,0.0426446902092269,76.19091927686087,0.0
523,-3.0521133968597725,0.008354948384348054,76.41132097694471,0.0
524,-3.0894284873054403,-0.027554959832120696,76.64028619861269,0.0
525,-3.127421853011062,-0.06477669212718373,76.87746895446769,0.0
526,-3.165523469928203,-0.1027742877785276,77.1225174832493,0.0
527,-3.2032179921984847,-0.14093032539162842,77.37507334175852,0.0
528,-3.240115870968624,-0.17866357050943169,77.63477051680137,0.0
529,-3.2759733113361618,-0.21550597618260076,77.90123455770566,0.0
530,-3.3106725395542056,-0.251136729934032,78.17408173034211,0.0
531,-3.3441793754232587,-0.28537897925308237,78.45291819396009,0.0
532,-3.376495597141902,-0.3181698825422695,78.73733920253002,0.0
533,-3.407619182541279,-0.3495165080507312,79.02692833266883,0.0
534,-3.43751854205623,-0.37944930708157715,79.32125674061157,0.0
535,-3.466120896053189,-0.40798230979373296,79.61988245108057,0.0
536,-3.4933123148899585,-0.43508584455927,79.92234968129206,0.0
537,-3.518947114639256,-0.4606743392792696,80.22818820372721,0.0
538,-3.542864862244227,-0.48460919495646104,80.53691275167785,0.0
539,-3.564912405554713,-0.506715035416562,80.8480224719544,0.0
540,-3.584966603546773,-0.5268067116476818,81.16100042951068,0.0
541,-3.602952822570775,-0.5447239254930387,81.4753131690939,0.0
542,-3.6188561116390714,-0.5603697985310843,81.79041033936444,0.0
543,-3.632725401941346,-0.5737487871091426,82.10572438524241,0.0
544,-3.6446736430507287,-0.5849979095864686,82.42067031452272,0.0
545,-3.654876509336699,-0.5944035377283363,82.73464554504979,0.0
546,-3.6635692225366228,-0.6023946254042258,83.04702983895164,0.0
547,-3.67103690351678,-0.6095031063611034,83.3571853305931,0.0
548,-3.677590522220822,-0.6162842525512154,83.66445665501112,0.0
549,-3.683518681136471,-0.6231947492083162,83.96817118363577,0.0
550,-3.6890052749179687,-0.6304342098967191,84.26763937406736,0.0
551,-3.694005530639927,-0.6377660373063989,84.56215524056748,0.0
552,-3.6980804606544395,-0.644344159936431,84.85099695171971,0.0
553,-3.7002046687197776,-0.6485806469027555,85.13342756141648,0.0
554,-3.6985841860595277,-0.648092594075427,85.40869587892466,0.0
555,-3.690543907489113,-0.6397624881051458,85.67603748326638,0.0
556,-3.672557533805651,-0.6199333176119353,85.93467588651654,0.0
557,-3.6404843313080257,-0.5847389078428668,86.18382384985951,0.0
558,-3.5900387201397206,-0.5305445501907231,86.42268485536117,0.0
559,-3.5174542642572493,-0.4544481477123258,86.6504547353944,0.0
560,-3.4202311284640627,-0.35477372531253815,86.8663234605082,0.0
561,-3.2978039150091942,-0.23148228930231246,87.06947708525266,0.0
562,-3.1519618628442534,-0.08643218995781138,87.25909985006872,0.0
563,-2.9869062598756555,0.0765586097759427,87.43437643583047,0.0
564,-2.8089259298237343,0.25186693597509113,87.5944943659963,0.0
565,-2.6257747979139014,0.43242266656040196,87.73864654960008,0.0
566,-2.445904741776654,0.6102308078767232,87.86603395650513,0.0
567,-2.2777161882596566,0.7769989041019603,87.97586841447747,0.0
568,-2.128939833428522,0.9248032976111227,88.06737551572802,0.0
569,-2.0061830802923595,1.0467288482898294,88.13979761865494,0.0
570,-1.914603995126384,1.1374237829816802,88.19239692861404,0.0
571,-1.857646704938428,1.193521223464482,88.22445863968773,0.0
572,-1.8367961758126776,1.2138898839459709,88.23529411764706,1.0
573,-1.8513709744648261,1.1996886038635548,88.23529411764706,0.0
574,-1.8984338868450952,1.1542142270024265,88.23529411764706,0.0
575,-1.9729242916258791,1.0825511269754515,88.23529411764706,0.0
576,-2.0680834350470807,0.9910530350422446,88.23529411764706,0.0
577,-2.176163974445245,0.8867109620985631,88.23529411764706,0.0
578,-2.289322204844195,0.7764801283148113,88.23529411764706,0.0
579,-2.4005251958030627,0.6666485823227579,88.23529411764706,0.0
580,-2.504292034188189,0.5623266574250949,88.23529411764706,0.0
581,-2.5971309542751,0.4671186283701609,88.23529411764706,0.0
582,-2.6776134057636716,0.3830086021332062,88.23529411764706,0.0
583,-2.74611312120708,0.3104575926935115,88.23529411764706,0.0
584,-2.804306851048644,0.24867523038520736,88.23529411764706,0.0
585,-2.8545685542141648,0.1960045465448989,88.23529411764706,0.0
586,-2.8993882343448,0.150346462063084,88.23529411764706,0.0
587,-2.9409178561019997,0.10955345202992928,88.23529411764706,0.0
588,-2.9807022340492106,0.07173744837743054,88.23529411764706,0.0
589,-3.0196050206951437,0.035460845469853675,88.23529411764706,0.0
590,-3.0578986767540384,-0.00019435483063598435,88.23529411764706,0.0
591,-3.095458706623279,-0.035661355742699324,88.23529411764706,0.0
592,-3.131989936482518,-0.07099409811682747,88.23529411764706,0.0
593,-3.1672179005886676,-0.10600446040224012,88.23529411764706,0.0
594,-3.2010004875391966,-0.14039535948077272,88.23529411764706,0.0
595,-3.233347927583422,-0.17386397765548475,88.23529411764706,0.0
596,-3.2643716881323463,-0.20616253486736802,88.23529411764706,0.0
597,-3.2942024122338576,-0.23711684137967065,88.23529411764706,0.0
598,-3.3229169778111363,-0.26661254518722527,88.23529411764706,0.0
599,-3.3504984765678976,-0.29456410795907956,88.23529411764706,0.0
600,-3.3768316391430973,-0.32088206221687526,88.23529411764706,0.0
601,-3.40172168659591,-0.3454510118349238,88.23529411764706,0.0
602,-3.4249221777353864,-0.36812562686695466,88.23529411764706,0.0
603,-3.446164435461471,-0.38874604871915197,88.23529411764706,0.0
604,-3.4651900686223165,-0.40716886969458754,88.23529411764706,0.0
605,-3.4817919917448665,-0.4233060150990444,88.23529411764706,0.0
606,-3.4958656057328024,-0.4371619396360272,88.23529411764706,0.0
607,-3.5074629325979236,-0.4488597799694419,88.23529411764706,0.0
608,-3.516833986343278,-0.4586494228551316,88.23529411764706,0.0
609,-3.52443676867022,-0.4668944386444729,88.23529411764706,0.0
610,-3.530902398642388,-0.4740396707621186,88.23529411764706,0.0
611,-3.536953683434262,-0.480565788564845,88.23529411764706,0.0
612,-3.543289836555711,-0.4869399967602652,88.23529411764706,0.0
613,-3.550462130442088,-0.49357227154623673,88.23529411764706,0.0
614,-3.55877088333296,-0.5007835206681218,88.23529411764706,0.0
615,-3.5682108796613043,-0.5087864460031073,88.23529411764706,0.0
616,-3.5784799278536856,-0.5176731419052305,88.23529411764706,0.0
617,-3.5890461768763235,-0.5273978652880495,88.23529411764706,0.0
618,-3.5992488004436067,-0.537741414765233,88.23529411764706,0.0
619,-3.6083899199629155,-0.5482469946045994,88.23529411764706,0.0
620,-3.615769630612322,-0.5581267578369646,88.23529411764706,0.0
621,-3.620626093693726,-0.5661519523315007,88.23529411764706,0.0
622,-3.621971202214186,-0.5705543439280717,88.23529411764706,0.0
623,-3.618355841490132,-0.5689776860435224,88.23529411764706,0.0
624,-3.60764569220547,-0.5585207130328884,88.23529411764706,0.0
625,-3.5869201415954977,-0.5359042142872055,88.23529411764706,0.0
626,-3.552603385292424,-0.49777385140167385,88.23529411764706,0.0
627,-3.5008873591248517,-0.4411207837335018,88.23529411764706,0.0
628,-3.4284178787640114,-0.3637703967317768,88.23529411764706,0.0
629,-3.333115469681855,-0.26486374020901143,88.23529411764706,0.0
630,-3.2149297240023533,-0.14524432864065337,88.23529411764706,0.0
631,-3.076314607466475,-0.00766935000073532,88.23529411764706,0.0
632,-2.9222737028254775,0.14321098566380874,88.23529411764706,0.0
633,-2.759939996133499,0.30112420701488873,88.23529411764706,0.0
634,-2.597781606296945,0.45867184212703216,88.23529411764706,0.0
635,-2.444615591901723,0.6079884286505675,88.23529411764706,0.0
636,-2.308637041054572,0.7414749911190497,88.23529411764706,0.0
637,-2.1966301491598816,0.8525099920192037,88.23529411764706,0.0
638,-2.113448097702595,0.9360487322359351,88.23529411764706,0.0
639,-2.0617662454163437,0.9890430786751353,88.23529411764706,0.0
640,-2.0420588010569283,1.0106415777460596,88.23529411764706,1.0
641,-2.0527352067893307,1.0021598011048674,88.23529411764706,0.0
642,-2.0903912936072153,0.9668378490769729,88.23529411764706,0.0
643,-2.1501602733558047,0.9094238322057419,88.23529411764706,0.0
644,-2.226165886970994,0.8356378885064727,88.23529411764706,0.0
645,-2.312070962321244,0.751580645729079,88.23529411764706,0.0
646,-2.4016831918968435,0.6631528604703182,88.23529411764706,0.0
647,-2.4895445069901614,0.5755489840986293,88.23529411764706,0.0
648,-2.5714122875468495,0.49287649666557276,88.23529411764706,0.0
649,-2.6445517383363484,0.41793559282846293,88.23529411764706,0.0
650,-2.7077962024722924,0.3521719242391548,88.23529411764706,0.0
651,-2.7613816314884407,0.2957915219711641,88.23529411764706,0.0
652,-2.806605749318484,0.24800541682745306,88.23529411764706,0.0
653,-2.845389904600413,0.20735548552733643,88.23529411764706,0.0
654,-2.8798291231537205,0.17206541275710338,88.23529411764706,0.0
655,-2.9118067089967608,0.1403625377220054,88.23529411764706,0.0
656,-2.942729001625885,0.11072706536838439,88.23529411764706,0.0
657,-2.973407988885888,0.0820422975442442,88.23529411764706,0.0
658,-3.004088667057834,0.05363965977461088,88.23529411764706,0.0
659,-3.0345898657185044,0.02525146235099976,88.23529411764706,0.0
660,-3.064508057691912,-0.00310093623455035,88.23529411764706,0.0
661,-3.093427949961424,-0.031247972534356627,88.23529411764706,0.0
662,-3.1210914418807185,-0.05900588751916344,88.23529411764706,0.0
663,-3.147493439021007,-0.08627479019250422,88.23529411764706,0.0
664,-3.1728929986141345,-0.11308338556198727,88.23529411764706,0.0
665,-3.197746827914142,-0.13957692555081877,88.23529411764706,0.0
666,-3.2225870351482544,-0.16595817574255387,88.23529411764706,0.0
667,-3.2478749090467387,-0.19240117094661768,88.23529411764706,0.0
668,-3.273865762712945,-0.21896255536049175,88.23529411764706,0.0
669,-3.3005154236472745,-0.24551473982745248,88.23529411764706,0.0
670,-3.3274479191945407,-0.27171942554025585,88.23529411764706,0.0
671,-3.3539899509763673,-0.29705062807341875,88.23529411764706,0.0
672,-3.37926517592105,-0.3208651845416644,88.23529411764706,0.0
673,-3.402332628555852,-0.3425080681916307,88.23529411764706,0.0
674,-3.422348581398023,-0.36143175370693253,88.23529411764706,0.0
675,-3.438727825531017,-0.37730498689778336,88.23529411764706,0.0
676,-3.4512773629559224,-0.39008749551800836,88.23529411764706,0.0
677,-3.460273745215777,-0.40005339576280075,88.23529411764706,0.0
678,-3.466458110728656,-0.40775625766258494,88.23529411764706,0.0
679,-3.4709341778936946,-0.41394100576560783,88.23529411764706,0.0
680,-3.4749751094492627,-0.41941939351229185,88.23529411764706,0.0
681,-3.479771182241071,-0.4249338837014117,88.23529411764706,0.0
682,-3.486172798357346,-0.4310371034646576,88.23529411764706,0.0
683,-3.4944927836815367,-0.4380095693406704,88.23529411764706,0.0
684,-3.5044221532960917,-0.44582779407917994,88.23529411764706,0.0
685,-3.5150853425967257,-0.45418072197325177,88.23529411764706,0.0
686,-3.5252215864269623,-0.4625185896225049,88.23529411764706,0.0
687,-3.533439969590833,-0.47010905901229627,88.23529411764706,0.0
688,-3.538468889925336,-0.4760742319713606,88.23529411764706,0.0
689,-3.5393163929741585,-0.4793902800224102,88.23529411764706,0.0
690,-3.5352809076186005,-0.478847475801099,88.23529411764706,0.0
691,-3.5257990608120884,-0.47298821289875015,88.23529411764706,0.0
692,-3.51017623992476,-0.4600581401813002,88.23529411764706,0.0
693,-3.4872978558965118,-0.4380145900036021,88.23529411764706,0.0
694,-3.4554457606882694,-0.404632516180003,88.23529411764706,0.0
695,-3.4123321425317457,-0.3577299729291582,88.23529411764706,0.0
696,-3.3554110030177546,-0.2955056946251122,88.23529411764706,0.0
697,-3.2824466453248613,-0.21694729102566015,88.23529411764706,0.0
698,-3.1922318263280407,-0.12223890028773444,88.23529411764706,0.0
699,-3.0852823925109623,-0.013080653257103253,88.23529411764706,0.0
700,-2.9643137161519677,0.10716486873511888,88.23529411764706,0.0
701,-2.8343384500834943,0.23356035052136992,88.23529411764706,0.0
702,-2.702309143907927,0.3599361987016376,88.23529411764706,0.0
703,-2.5763404765511617,0.4794592262909806,88.23529411764706,0.0
704,-2.4646517436107094,0.5853525271052348,88.23529411764706,0.0
705,-2.3744395106489904,0.6716582413779324,88.23529411764706,0.0
706,-2.3109040256236373,0.7339226085716781,88.23529411764706,0.0
707,-2.2766105949709936,0.769694099883022,88.23529411764706,0.0
708,-2.271285172519766,0.7787578012445623,88.23529411764706,1.0
709,-2.2920474483272164,0.7630752899585277,88.23049314859068,0.0
710,-2.333999784354053,0.7264491497113434,88.21626554244263,0.0
711,-2.3910341897722067,0.6739750150210957,88.19287853089007,0.0
712,-2.456700012603084,0.6113737625410092,88.16060460708076,0.0
713,-2.5249901991602934,0.5443079106540178,88.11972097597486,0.0
714,-2.5909438801953164,0.4777792502188617,88.07050901466245,0.0
715,-2.6510132657316636,0.4156825510837915,88.01325374420117,0.0
716,-2.7031894902492115,0.36055854879269317,87.94824331440472,0.0
717,-2.7469163470521964,0.3135548422632324,87.87576850288747,0.0
718,-2.7828408212886977,0.27457184345682883,87.79612222954457,0.0
719,-2.812458075199921,0.24254705305981966,87.70959908752216,0.0
720,-2.8377104409224883,0.21581728017945426,87.61649489160787,0.0
721,-2.8605975370528505,0.1924955896769085,87.51710624485075,0.0
722,-2.882847763202038,0.17080666553793367,87.41173012410066,0.0
723,-2.9056891327212946,0.14933859761898044,87.30066348504249,0.0
724,-2.929739989779953,0.12718777148374566,87.18420288718947,0.0
725,-2.9550201633987925,0.10399326883176521,87.06264413919388,0.0
726,-2.9810642980583815,0.07987488919984866,86.93628196473216,0.0
727,-3.0071046818160125,0.05530210723866491,86.80540968912636,0.0
728,-3.0322826500358433,0.030928406043244566,86.6703189467737,0.0
729,-3.055846299957473,0.007425963825403448,86.53129940937195,0.0
730,-3.0772980244233956,-0.014649804647190928,86.38863853485142,0.0
731,-3.096467722651695,-0.0349463085785514,86.24262133685211,0.0
732,-3.1135044894259685,-0.0533431419198792,86.09353017451961,0.0
733,-3.1287976099591934,-0.06992950282195819,85.94164456233422,0.0
734,-3.1428526549254387,-0.08494403703062947,85.78724099963478,0.0
735,-3.1561569189616407,-0.09869697531318813,85.63059281945233,0.0
736,-3.169068543802598,-0.11149512273127937,85.47197005622697,0.0
737,-3.181755521773448,-0.1235864625232718,85.31163933194675,0.0
738,-3.1941963509540066,-0.13513412921372459,85.14986376021798,0.0
739,-3.206236973661552,-0.14622116445103778,84.98690286775104,0.0
740,-3.217683364917145,-0.15687982321693786,84.82301253272786,0.0
741,-3.228400215391334,-0.1671339376719121,84.65844493950193,0.0
742,-3.238386343288142,-0.17704093876362484,84.49344854907265,0.0
743,-3.247806546976597,-0.18672164596068785,84.32826808476969,0.0
744,-3.256974193275322,-0.19637009051342622,84.16314453258258,0.0
745,-3.2662936750263944,-0.2062411141327715,83.99831515557251,0.0
746,-3.2761820302440277,-0.21661881800308416,83.83401352180952,0.0
747,-3.2869918236797586,-0.22777292241412908,83.67046954528782,0.0
748,-3.298953191872398,-0.23991206711992333,83.50790953928377,0.0
749,-3.3121444219781195,-0.25314298503425503,83.34655628163691,0.0
750,-3.3264911138945306,-0.2674427668021797,83.18662909145117,0.0
751,-3.341786925993982,-0.2826488079748188,83.02834391673424,0.0
752,-3.357725929659873,-0.2984681828284454,82.87191343251487,0.0
753,-3.3739378255154135,-0.3145055812517062,82.71754714900186,0.0
754,-3.3900210424109165,-0.3303067318780655,82.56545152937474,0.0
755,-3.4055722961051087,-0.3454123207683697,82.41583011682323,0.0
756,-3.4202124251807087,-0.3594156157131458,82.26888367048218,0.0
757,-3.433607433573996,-0.3720152407623996,82.12481030993814,0.0
758,-3.4454828787953864,-0.38305299438906387,81.98380566801619,0.0
759,-3.455630872272704,-0.39252577746732537,81.84606305158789,0.0
760,-3.4639109175582727,-0.4005613799316078,81.71177361017513,0.0
761,-3.470244909637269,-0.40735094279514317,81.58112651215956,0.0
762,-3.4746001733477097,-0.4130370159064305,81.45430912844323,0.0
763,-3.4769448027306074,-0.4175653018384792,81.33150722344276,0.0
764,-3.4771546664105077,-0.42051945005789565,81.21290515333702,0.0
765,-3.474860208557883,-0.42096950388639554,81.09868607152774,0.0
766,-3.4692469020958945,-0.417372674629536,80.9890321413113,0.0
767,-3.4588592884103044,-0.40756655295872724,80.88412475580184,0.0
768,-3.441489643021879,-0.388886911521925,80.78414476518742,0.0
769,-3.414240699997724,-0.3584240381628455,80.68927271144423,0.0
770,-3.3738257180155555,-0.3134049628862814,80.59968907067898,0.0
771,-3.317109184145781,-0.2516588176358036,80.51557450331552,0.0
772,-3.2418129169742067,-0.17209582428908235,80.43711011238983,0.0
773,-3.1472412146374165,-0.07511441415737038,80.36447771026721,0.0
774,-3.0348424901912705,0.037148553881539315,80.29786009414764,0.0
775,-2.908441385743457,0.16079044322030867,80.23744133077913,0.0
776,-2.7740445082032177,0.2903690822599928,80.18340705085603,0.0
777,-2.639225242655839,0.4193686373863532,80.1359447536386,0.0
778,-2.512196656873985,0.5408464992350808,80.09524412239344,0.0
779,-2.4007542003406,0.6481677756062502,80.06149735132054,0.0
780,-2.3112918848887967,0.7357167197183497,80.0348994847033,0.0
781,-2.24806611512111,0.7994782717926087,80.01564876909299,0.0
782,-2.2128161244185134,0.83740661384759,80.00394701941877,0.0
783,-2.204771709724335,0.8495356803898417,80.0,1.0
784,-2.221006846085202,0.8378306220785917,80.00479708524487,0.0
785,-2.257043191959029,0.8058203033428589,80.01900173051474,0.0
786,-2.307575992108158,0.7580814208597509,80.04233869889961,0.0
787,-2.367189316305433,0.699660055073309,80.07453848076234,0.0
788,-2.430948244178456,0.6355153310237989,80.11533667821024,0.0
789,-2.4947977496071028,0.5700547334746713,80.164473415842,0.0
790,-2.5557504751965663,0.5068063635385298,80.22169277589241,0.0
791,-2.6118932187966886,0.4482459955416246,80.28674225607979,0.0
792,-2.6622713641431353,0.39577174191156145,80.35937224862971,0.0
793,-2.7067155664105913,0.34980042103714887,80.43933553910699,0.0
794,-2.745659320771301,0.3099491354434575,80.52638682383649,0.0
795,-2.779970598014543,0.27526280753166393,80.62028224483097,0.0
796,-2.8107984119291416,0.24445173164060047,80.72077894127742,0.0
797,-2.839424996643423,0.21611024195089384,80.8276346167556,0.0
798,-2.8671181027287753,0.18889622266931785,80.94060712148222,0.0
799,-2.894990724969859,0.16165991153614992,81.05945404898546,0.0
800,-2.9238883104214892,0.1335184855127201,81.18393234672304,0.0
801,-2.9543274739370187,0.10387993088020761,81.31379794026009,0.0
802,-2.9865013924339907,0.07242544425524675,81.4488053707223,0.0
803,-3.0203481826590863,0.039063699084861875,81.58870744533628,0.0
804,-3.0556581643174128,0.003872219924276804,81.73325490096181,0.0
805,-3.0921835803176214,-0.0329595984481692,81.88219608061,0.0
806,-3.129715682315921,-0.0711746358858864,82.03527662303,0.0
807,-3.168108114165274,-0.11047355622871796,82.19223916553045,0.0
808,-3.2072459755183447,-0.15052211566739335,82.35282306028509,0.0
809,-3.2469788860329625,-0.19094623899933127,82.51676410445181,0.0
810,-3.2870475704128492,-0.23132422661530122,82.68379428451216,0.0
811,-3.3270342078725887,-0.271185818049532,82.85364153531356,0.0
812,-3.366358031095957,-0.3100251271877503,83.02602951436916,0.0
813,-3.4043232123685367,-0.34732952649474885,83.20067739204065,0.0
814,-3.440210702567538,-0.38262089939097926,83.37729965829568,0.0
815,-3.473393248908149,-0.41550103587227916,83.55560594679629,0.0
816,-3.50344551646014,-0.44569077203792873,83.73530087713388,0.0
817,-3.530220237775959,-0.4730535048045967,83.91608391608392,0.0
818,-3.553867466112784,-0.4975977140149132,84.09764925880441,0.0
819,-3.5747874180297403,-0.519458909200194,84.27968573095,0.0
820,-3.5935259639439794,-0.5388671522478585,84.46187671271512,0.0
821,-3.610640342570006,-0.5561100329192921,84.64390008585563,0.0
822,-3.626573977188315,-0.5715012314199769,84.8254282047678,0.0
823,-3.6415775536553343,-0.585361158103054,85.00612789272583,0.0
824,-3.6556978587653073,-0.598009469572721,85.1856604643934,0.0
825,-3.6688314424510318,-0.6097615394986067,85.36368177573138,0.0
826,-3.6808159933594746,-0.6209148768579378,85.53984230241986,0.0
827,-3.6915170099246666,-0.631709575279957,85.71378724790063,0.0
828,-3.700865518946391,-0.6422507467048403,85.88515668212204,0.0
829,-3.7088140100516744,-0.6523905882438086,86.05358571203371,0.0
830,-3.715199027562409,-0.6615815206901112,86.21870468483151,0.0
831,-3.7195257489881777,-0.6687264628223488,86.38013942489428,0.0
832,-3.7207182089254998,-0.6720636893464225,86.53751150528112,0.0
833,-3.716903515428744,-0.6691279800279388,86.69043855457119,0.0
834,-3.7053120975429383,-0.6568243165935724,86.83853459972863,0.0
835,-3.6823698124837203,-0.6316348295971269,86.98141044555916,0.0
836,-3.6440252106355118,-0.5899562554688452,87.11867409119543,0.0
837,-3.5862982527393017,-0.5285383868520714,87.24993118390324,0.0
838,-3.5059690312327745,-0.44496978827662115,87.37478551034066,0.0
839,-3.401269876884621,-0.3381411561019344,87.49283952522713,0.0
840,-3.272425479884035,-0.2086131450279367,87.60369491719032,0.0
841,-3.1219155502536053,-0.058825399519756405,87.70695321135447,0.0
842,-2.954405183842817,0.10689512325348033,87.80221640801683,0.0
843,-2.7763727495287562,0.28254020245872113,87.88908765652951,0.0
844,-2.5955303699802728,0.46082489128497905,87.96717196326158,0.0
845,-2.4201548721930313,0.6337488941423391,88.03607693226616,0.0
846,-2.2584264115943213,0.7932545186333031,88.09541353701549,0.0
847,-2.1178278095993317,0.9319107612113078,88.14479692130121,0.0
848,-2.0046180752104994,1.0435510036030662,88.18384722712368,0.0
849,-1.9233787002811342,1.1237967354113956,88.21219044712072,0.0
850,-1.876643957082032,1.17041070604811,88.22945929880991,0.0
851,-1.86465370684628,1.1834394106684,88.23529411764706,1.0
852,-1.8852892835440402,1.1651264301107935,88.2337204069761,0.0
853,-1.9342525568227797,1.119603893468922,88.22906013157706,0.0
854,-2.0055173694520816,1.0523969593578397,88.22140503347268,0.0
855,-2.092026015179713,0.9698019693660579,88.21084741392198,0.0
856,-2.1865382741424657,0.8782180756307587,88.19748007199794,0.0
857,-2.2824902229488107,0.7835201167081383,88.18139624486079,0.0
858,-2.3747048211132955,0.6905543657186334,88.16268954978253,0.0
859,-2.4598240952926296,0.6028183818903838,88.14145392797377,0.0
860,-2.536395910116732,0.5223547451527709,88.11778359025934,0.0
861,-2.604627351878197,0.44985194193105044,88.09177296464343,0.0
862,-2.6658887236837145,0.38491154737297084,88.06351664580185,0.0
863,-2.722098899832842,0.326416165005671,88.03310934653253,0.0
864,-2.775135461400285,0.2729222034287279,88.00064585119287,0.0
865,-2.8263921097486,0.2230069585676493,87.96622097114708,0.0
866,-2.8765586639193534,0.17551839727235555,87.92992950224311,0.0
867,-2.925637399120321,0.12970324183610246,87.89186618433477,0.0
868,-2.973148617679734,0.0852175821256391,87.85212566286093,0.0
869,-3.018434089016033,0.0420476496417444,87.81080245249,0.0
870,-3.060951763561849,0.0003818123438260601,87.76799090283494,0.0
871,-3.100472730374794,-0.039523511429588654,87.72378516624042,0.0
872,-3.1371344804888928,-0.07745009262617408,87.67827916764087,0.0
873,-3.1713572890889554,-0.11327766459865762,87.63156657648592,0.0
874,-3.203674611412039,-0.14699540168891687,87.58374078072605,0.0
875,-3.2345497816996835,-0.17867685944749148,87.53489486285008,0.0
876,-3.2642450673259744,-0.20843744335563913,87.48512157796293,0.0
877,-3.292780707872681,-0.23639371331050696,87.43451333389073,0.0
878,-3.319984153874525,-0.2626383552043084,87.38316217329822,0.0
879,-3.34559841879726,-0.2872362148887222,87.33115975780159,0.0
880,-3.3694037897736417,-0.3102384933762049,87.278597354059,0.0
881,-3.3913111899686723,-0.33170650130458085,87.22556582181912,0.0
882,-3.4114026491393723,-0.35173446427847915,87.17215560390734,0.0
883,-3.429915677168771,-0.370462589335772,87.11845671812836,0.0
884,-3.4471861532107657,-0.38807574049422927,87.06455875106272,0.0
885,-3.4635742461193173,-0.4047879660642209,87.01055085373501,0.0
886,-3.4793984445100223,-0.4208172478687854,86.95652173913044,0.0
887,-3.494894988713278,-0.43635723125045855,86.90255968153632,0.0
888,-3.5102074440123716,-0.45155306779637894,86.8487525176854,0.0
889,-3.5253994442437038,-0.4664871613462759,86.79518764967742,0.0
890,-3.540477804845465,-0.48117816007839853,86.74195204965585,0.0
891,-3.5554145839656086,-0.4955936110130175,86.68913226621736,0.0
892,-3.570162255033943,-0.5096737507061361,86.6368144325314,0.0
893,-3.5846613812207933,-0.5233612134581225,86.58508427614869,0.0
894,-3.5988424836467168,-0.5366291629521458,86.53402713047785,0.0
895,-3.6126236372197558,-0.5494987101410992,86.48372794791007,0.0
896,-3.625904320786243,-0.5620358427833384,86.4342713145737,0.0
897,-3.6385546987314825,-0.5743189980018036,86.38574146670061,0.0
898,-3.6503970417624183,-0.5863714366944325,86.33822230858843,0.0
899,-3.6611720802442345,-0.5980581067066214,86.29179743214395,0.0
900,-3.6704795213739168,-0.6089545926950537,86.24655013799449,0.0
901,-3.677682678164283,-0.6182051701896345,86.20256345815532,0.0
902,-3.6817763358169273,-0.6243961793176561,86.1599201802442,0.0
903,-3.6812360625343583,-0.6254774983619635,86.11870287323462,0.0
904,-3.673892099313113,-0.6187662320055105,86.07899391474216,0.0
905,-3.656891493667398,-0.6010608027798787,86.04087551984075,0.0
906,-3.6268148932162507,-0.5688797873380385,86.00442977140708,0.0
907,-3.5799896102047386,-0.5188193551677266,85.9697386519945,0.0
908,-3.5129895416558403,-0.4479993370836395,85.93688407723997,0.0
909,-3.4232508981330256,-0.3545455016480461,85.9059479308104,0.0
910,-3.3096852319007644,-0.23803961438588792,85.87701210089723,0.0
911,-3.1731594637342537,-0.09986340407383743,85.85015851827133,0.0
912,-3.0167418497706913,0.056630250180553066,85.82546919591294,0.0
913,-2.8456680989657666,0.22616618862409277,85.80302627023501,0.0
914,-2.6670367169857063,0.4018342965195577,85.78291204392086,0.0
915,-2.489276453007027,0.5755997404215853,85.7652090304014,0.0
916,-2.3214396092286957,0.7389867579443741,85.75,0.0
917,-2.172378302314705,0.8838581817626161,85.73736802777725,0.0
918,-2.04987391245525,1.0031943841044604,85.72739654311147,0.0
919,-1.9598160844183228,1.091770281257731,85.72016938105538,0.0
920,-1.9055519295974144,1.146639213464816,85.71577083551303,0.0
921,-1.8875267332522683,1.1673574168290777,85.71428571428572,1.0
922,-1.9033016032423695,1.155919303719584,85.71428571428572,0.0
923,-1.9479655242167542,1.1164162484803022,85.71428571428572,0.0
924,-2.0148780578544625,1.0544727422048328,85.71428571428572,0.0
925,-2.096608650596158,0.9765460909792377,85.71428571428572,0.0
926,-2.1858998168118133,0.8891931964357753,85.71428571428572,0.0
927,-2.2764851954946086,0.7984072246885539,85.71428571428572,0.0
928,-2.363637337347767,0.7091087323760796,85.71428571428572,0.0
929,-2.4443894146165333,0.6248442735744075,85.71428571428572,0.0
930,-2.5174485220105547,0.5477074105546749,85.71428571428572,0.0
931,-2.5828760581964905,0.4784600561929351,85.71428571428572,0.0
932,-2.641641045096218,0.4168029949696851,85.71428571428572,0.0
933,-2.695153456298742,0.3617278146586307,85.71428571428572,0.0
934,-2.7448632650142306,0.3118799039110494,85.71428571428572,0.0
935,-2.7919778622945888,0.26587227323022494,85.71428571428572,0.0
936,-2.8373164541735414,0.22250913790620896,85.71428571428572,0.0
937,-2.881292248372082,0.18090167294967824,85.71428571428572,0.0
938,-2.923994450271805,0.14048124426960185,85.71428571428572,0.0
939,-2.965331890359258,0.10093370486385761,85.71428571428572,0.0
940,-3.005196956110036,0.06208940390984766,85.71428571428572,0.0
941,-3.0436109950776657,0.023806412662713272,85.71428571428572,0.0
942,-3.080819468260283,-0.014120302816069463,85.71428571428572,0.0
943,-3.117316125156291,-0.052001620552166644,85.71428571428572,0.0
944,-3.1537897535159254,-0.09024055971031816,85.71428571428572,0.0
945,-3.1910035629826323,-0.1292678583587101,85.71428571428572,0.0
946,-3.2296333977288305,-0.16944421336499782,85.71428571428572,0.0
947,-3.2701023702012173,-0.21095375261737515,85.71428571428572,0.0
948,-3.3124517076974493,-0.25371495246144904,85.71428571428572,0.0
949,-3.35627888987135,-0.29733135403542005,85.71428571428572,0.0
950,-3.40075722121393,-0.34109616057539693,85.71428571428572,0.0
951,-3.4447318540096825,-0.3840539683021774,85.71428571428572,0.0
952,-3.486872213839031,-0.4251116996160301,85.71428571428572,0.0
953,-3.5258533457188257,-0.4631813764176912,85.71428571428572,0.0
954,-3.5605386664172034,-0.49733133623794057,85.71428571428572,0.0
955,-3.590140851067432,-0.5269208044780085,85.71428571428572,0.0
956,-3.6143422116419917,-0.5516955684368189,85.71428571428572,0.0
957,-3.633358742274638,-0.5718292844021404,85.71428571428572,0.0
958,-3.647934100913042,-0.5879044708734189,85.71428571428572,0.0
959,-3.659254978147616,-0.6008377784655682,85.71428571428572,0.0
960,-3.6687910830494492,-0.6117636696731088,85.71428571428572,0.0
961,-3.678080873910449,-0.6218972032861132,85.71428571428572,0.0
962,-3.688502285157627,-0.6323986526596745,85.71428571428572,0.0
963,-3.7010772076024416,-0.6442595343692413,85.71428571428572,0.0
964,-3.7163526420547104,-0.658221846567339,85.71428571428572,0.0
965,-3.7343799425948063,-0.6747317632133442,85.71428571428572,0.0
966,-3.7547831287331803,-0.6939185218633677,85.71428571428572,0.0
967,-3.776878562903899,-0.7155818972522477,85.71428571428572,0.0
968,-3.7997914708901694,-0.7391700107054384,85.71428571428572,0.0
969,-3.8225158659666447,-0.7637344267528409,85.71428571428572,0.0
970,-3.8438838400968085,-0.787860773668742,85.71428571428572,0.0
971,-3.8624428320608124,-0.8095878443080285,85.71428571428572,0.0
972,-3.876276241082703,-0.8263423076122809,85.71428571428572,0.0
973,-3.88283285493147,-0.8349254660131273,85.71428571428572,0.0
974,-3.878844386643166,-0.8315894194054221,85.71428571428572,0.0
975,-3.860402008931234,-0.8122308552279822,85.71428571428572,0.0
976,-3.8232317968178564,-0.7727121885380004,85.71428571428572,0.0
977,-3.7631618862375116,-0.7092950084053082,85.71428571428572,0.0
978,-3.6767236724899033,-0.6191445658679933,85.71428571428572,0.0
979,-3.5617910554330257,-0.5008418500736176,85.71428571428572,0.0
980,-3.4181475773475163,-0.3548265878434466,85.71428571428572,0.0
981,-3.247883522181116,-0.18369363530672467,85.71428571428572,0.0
982,-3.0555547642577348,0.007722137852376854,85.71428571428572,0.0
983,-2.8480682672575366,0.21251246545067393,85.71428571428572,0.0
984,-2.6342863207586817,0.42211998381092386,85.71428571428572,0.0
985,-2.424364840642217,0.6269886709125785,85.71428571428572,0.0
986,-2.228870383292378,0.8173732003088097,85.71428571428572,0.0
987,-2.0577622224343743,0.9842124026907033,85.71428571428572,0.0
988,-1.9193716203084321,1.1199577423821474,85.71428571428572,0.0
989,-1.8195382675061,1.2192500042977972,85.71428571428572,0.0
990,-1.7610522743502268,1.2793567252835447,85.71428571428572,0.0
991,-1.7434949823897914,1.3003165616443235,85.71428571428572,1.0
992,-1.763491414749944,1.2847791465141676,85.70123826954527,0.0
993,-1.8153101881674767,1.237572627097525,85.66237469322273,0.0
994,-1.8916946602870173,1.1650683053913449,85.59814701513561,0.0
995,-1.9847871441775973,1.0744363420554826,85.5090503609759,0.0
996,-2.0870100734964403,0.9728946756687655,85.39562022010902,0.0
997,-2.191787437368638,0.8670447837315722,85.25842959749498,0.0
998,-2.2940243343311266,0.7623654601308132,85.09808607384942,0.0
999,-2.390310056674263,0.662904620159684,84.91522879795289,0.0
1000,-2.4788628806794173,0.571175704254993,84.7105254345388,0.0
1001,-2.559279178761006,0.4882358002320676,84.48466909046226,0.0
1002,-2.6321732074088233,0.4139019459005848,84.23837524090378,0.0
1003,-2.698793074808532,0.34705265337367386,83.97237867621683,0.0
1004,-2.7606789092267205,0.28596328079990735,83.68743048871747,0.0
1005,-2.8194015831532195,0.22863387836953464,83.38429511726856,0.0
1006,-2.8763926705269114,0.1730824514322551,83.06374746595728,0.0
1007,-2.9328521816181934,0.11759073253083765,82.72657011153493,0.0
1008,-2.989701942245713,0.06089982283214415,82.37355061260962,0.0
1009,-3.047543291867816,0.002357412698465039,82.00547893188096,0.0
1010,-3.106583798796524,-0.05798318482514392,81.62314498100777,0.0
1011,-3.166521340254588,-0.1193171366604521,81.22733629602705,0.0
1012,-3.2264092064994196,-0.18010570899817385,80.81883584961406,0.0
1013,-3.2845586090914076,-0.23816978215775525,80.3984200049083,0.0
1014,-3.338548759465156,-0.290867552617861,79.9668566141422,0.0
1015,-3.385399521985567,-0.3353539194139881,79.5249032639115,0.0
1016,-3.421919398999485,-0.36890335847672,79.07330566762604,0.0
1017,-3.445186014283157,-0.38926134747815344,78.61279620448828,0.0
1018,-3.453067660658825,-0.39497642505509994,78.14409260326288,0.0
1019,-3.4446713422463575,-0.3856600676532093,77.66789676813305,0.0
1020,-3.4206136256226305,-0.36212722056277774,77.18489374308406,0.0
1021,-3.383050707490364,-0.3263863580392654,76.6957508105115,0.0
1022,-3.3354585818916527,-0.2814715347481026,76.20111671912072,0.0
1023,-3.2822060576477674,-0.23113525836886809,75.70162103565718,0.0
1024,-3.2280005209491303,-0.17944468907923528,75.19787361458252,0.0
1025,-3.17730383749785,-0.1303398249337917,74.69046417948161,0.0
1026,-3.1338139870651527,-0.08721786767643265,74.17996200974521,0.0
1027,-3.100089734784666,-0.052602120152675395,73.66691572591262,0.0
1028,-3.0773650743301406,-0.027938131472498302,73.15185316697568,0.0
1029,-3.0655633353156153,-0.013537806096362591,72.63528135292675,0.0
1030,-3.0634854665402798,-0.008668232090032285,72.11768652587674,0.0
1031,-3.0691207370787135,-0.01176045684819197,71.59953426316414,0.0
1032,-3.080015743619421,-0.02069785355724063,71.08126965601726,0.0
1033,-3.0936394777141163,-0.0331361135488019,70.56331754751116,0.0
1034,-3.1076947208833916,-0.04680762957624131,70.04608282377446,0.0
1035,-3.120343909287821,-0.05977096135087563,69.52995075263883,0.0
1036,-3.1303358999777644,-0.07057899503016198,69.0152873641862,0.0
1037,-3.137035410494223,-0.07835462390633656,68.50243986792326,0.0
1038,-3.140368016927413,-0.08277763492791948,67.99173710160272,0.0
1039,-3.1407010007457803,-0.08399879417519479,67.48349000700418,0.0
1040,-3.1386850693005948,-0.08250540467311224,66.97799212828805,0.0
1041,-3.135084227953142,-0.07896618200991243,66.47552012883433,0.0
1042,-3.1306201475525572,-0.07408224014704376,65.97633432277549,0.0
1043,-3.125852866907701,-0.06846602773305663,65.48067921772459,0.0
1044,-3.1211123192253374,-0.06256240199695019,64.98878406548535,0.0
1045,-3.1164861892409497,-0.056617139683993185,64.50086341780738,0.0
1046,-3.111859846549422,-0.050689579314966975,64.01711768451675,0.0
1047,-3.106994432261774,-0.044699113733510695,63.53773369160742,0.0
1048,-3.1016215913416567,-0.03849088665404263,63.06288523712377,0.0
1049,-3.0955308223837057,-0.03190475880991591,62.59273364289479,0.0
1050,-3.088629872679439,-0.024833292997460378,62.127428300400055,0.0
1051,-3.080968684707086,-0.017258537243295874,61.66710720925258,0.0
1052,-3.0727286203036557,-0.00926277600574181,61.21189750697647,0.0
1053,-3.064186293619396,-0.0010140533737701164,60.76191598893637,0.0
1054,-3.055663456256554,0.007267870003767243,60.317269617442754,0.0
1055,-3.047472675893357,0.015356136144606302,59.878056019211066,0.0
1056,-3.0398661627110184,0.023061604708651394,59.444363970494805,0.0
1057,-3.0329940000343054,0.03026809760418086,59.016273869343024,0.0
1058,-3.0268781201201747,0.036950696265814376,58.593858194551785,0.0
1059,-3.0214082437196415,0.04317340844479464,58.177181950987865,0.0
1060,-3.0163641645449086,0.04906686253768328,57.76630310106112,0.0
1061,-3.0114643047786527,0.05479089544117992,57.36127298221052,0.0
1062,-3.006433633507575,0.06049016636719834,56.96213671034945,0.0
1063,-3.001076707614013,0.06625255584938275,56.56893356928621,0.0
1064,-2.9953370636355285,0.07207967092337336,56.18169738620002,0.0
1065,-2.989325563584668,0.07787626247757075,55.80045689330851,0.0
1066,-2.98330824004891,0.08346123159311757,55.42523607591251,0.0
1067,-2.977655965864101,0.08859803229818618,55.05605450704692,0.0
1068,-2.9727691963420395,0.09303776652915904,54.69292766900394,0.0
1069,-2.9689971439375884,0.09656517046046956,54.3358672620275,0.0
1070,-2.9665706985597,0.0990367627017205,53.98488150050481,0.0
1071,-2.9655634683167587,0.10040192763008278,53.63997539700422,0.0
1072,-2.9658881019637002,0.10070135476288875,53.30115103452793,0.0
1073,-2.9673280265180217,0.10004227930936477,52.96840782736343,0.0
1074,-2.9695991020103443,0.09855528760849122,52.6417427709302,0.0
1075,-2.9724311715821314,0.09634189122980996,52.32115068102808,0.0
1076,-2.9756551817289294,0.09342460969254857,52.00662442290002,0.0
1077,-2.9792775959410402,0.08971127512119692,51.69815513052782,0.0
1078,-2.983522296773766,0.08498255813841628,51.3957324165819,0.0
1079,-2.9888240542821247,0.07890680136405576,51.09934457344711,0.0
1080,-2.9957683166644764,0.07108018593030138,50.80897876574717,0.0
1081,-3.004987355747326,0.061084458508024804,50.52462121478821,0.0
1082,-3.017037249287806,0.048550349754698525,50.24625737533973,0.0
1083,-3.032287757736747,0.03321349816907468,49.973872105167864,0.0
1084,-3.0508543369413945,0.01495154958587448,49.707449827732034,0.0
1085,-3.0725890913251117,-0.006204307063156372,49.44697468845134,0.0
1086,-3.0971299898972777,-0.030083960363653163,49.19243070494194,0.0
1087,-3.123991284876434,-0.05641364131580338,48.94380191162217,0.0
1088,-3.1526678669774166,-0.08486182939419734,48.70107249907613,0.0
1089,-3.1827246141589196,-0.11508402767656013,48.464226948561624,0.0
1090,-3.2138481860054195,-0.1467559396434375,48.233250162042694,0.0
1091,-3.245850869864427,-0.17958848608784203,48.008127588122534,0.0
1092,-3.2786307079901884,-0.21332347886652503,47.78884534424715,0.0
1093,-3.3121053099813134,-0.24771417602300594,47.575390335545976,0.0
1094,-3.3461443761848506,-0.2824990284220529,47.367750370671764,0.0
1095,-3.3805250391720585,-0.31737877542472553,47.16591427499839,0.0
1096,-3.4149246129007933,-0.3520063587950605,46.9698720015322,0.0
1097,-3.4489509075763345,-0.38599620012818353,46.779614739890384,0.0
1098,-3.4821970091308843,-0.4189549339209016,46.59513502369835,0.0
1099,-3.5143007963215935,-0.45053055319001395,46.41642683675705,0.0
1100,-3.5449914826827134,-0.4804718771975538,46.24348571833111,0.0
1101,-3.5741138328479094,-0.5086859020231702,46.07630886791034,0.0
1102,-3.6016303213314207,-0.5352774640555205,45.91489524979788,0.0
1103,-3.6276072352015607,-0.5605543094616373,45.75924569788228,0.0
1104,-3.6521897811874653,-0.5849818506027602,45.6093630209545,0.0
1105,-3.67556418678826,-0.6090764226756566,45.46525210893591,0.0
1106,-3.6978950062511458,-0.6332343503797874,45.32692004039024,0.0
1107,-3.7192185679781535,-0.6575065604489567,45.194376191700336,0.0
1108,-3.7392746122838854,-0.6813436793868171,45.06763234830005,0.0
1109,-3.7572726417412134,-0.7033520178967734,44.9467028183622,0.0
1110,-3.7716185882644866,-0.7211128503443738,44.83160454935717,0.0
1111,-3.779665233223694,-0.731121735242495,44.72235724791014,0.0
1112,-3.7775822649581055,-0.7288977176096689,44.61898350340227,0.0
1113,-3.760450379773968,-0.7092924740383098,44.52150891577952,0.0
1114,-3.7226542296860186,-0.6669981466809501,44.429962228053405,0.0
1115,-3.6585809441584494,-0.5972143996672623,44.34437546400208,0.0
1116,-3.5635421814038812,-0.49639741165445583,44.264784071605106,0.0
1117,-3.4347590457119006,-0.36298448959192914,44.19122707277539,0.0
1118,-3.2722111747365443,-0.19797520622932452,44.12374721998281,0.0
1119,-3.079168585978423,-0.005257995738608745,44.06239116040024,0.0
1120,-2.862288757629672,0.20839957938203213,44.00720960824183,0.0
1121,-2.6312453864434104,0.43373207595032204,43.958257526006136,0.0
1122,-2.3979310404313674,0.6597076939294932,43.91559431538557,0.0
1123,-2.1753290233679627,0.874532188366836,43.879284018655014,0.0
1124,-1.9761836518151676,1.0668003481801633,43.84939553141185,0.0
1125,-1.8116246782604377,1.2266415912864084,43.82600282760208,0.0
1126,-1.6899258451607198,1.3467016741001545,43.80918519783914,0.0
1127,-1.6155890540886975,1.4228238844882453,43.7990275020984,0.0
1128,-1.58892337607655,1.4543376644819943,43.7956204379562,1.0
1129,-1.6062166049510946,1.4439231923109836,43.808795467898,0.0
1130,-1.6604821899363518,1.3970863667024476,43.847860758048206,0.0
1131,-1.7426372976518294,1.3213376953308955,43.912191648227896,0.0
1132,-1.8428721276894469,1.2252097086618632,44.001244151006375,0.0
1133,-1.9519409680004385,1.1172633064334716,44.11454808451132,0.0
1134,-2.0621501073725717,1.0052219830761864,44.251700932488845,0.0
1135,-2.1679161129104094,0.8953381238902658,44.4123623268604,0.0
1136,-2.265882639676191,0.7920461736437527,44.59624906141844,0.0
1137,-2.3546782133683886,0.6979044788678441,44.8031305563654,0.0
1138,-2.4344495531122248,0.6137816195398615,45.032824702515335,0.0
1139,-2.506312618078123,0.5392119178618033,45.28519402145551,0.0
1140,-2.571838722721646,0.47283220748528876,45.56014208405874,0.0
1141,-2.6326526045113066,0.4128171672785306,45.85761013465051,0.0
1142,-2.690176883928214,0.3572493667700815,46.17757387203744,0.0
1143,-2.745520727764312,0.30438643129474635,46.520040341631315,0.0
1144,-2.799483415234655,0.252814875438852,46.88504489517202,0.0
1145,-2.852627962158434,0.20150272904972677,47.27264817615652,0.0
1146,-2.905376864950916,0.14977766736986758,47.682933090101564,0.0
1147,-2.95809011401523,0.09726288317099271,48.116001719274585,0.0
1148,-3.011101237707888,0.04380045575229624,48.571972141581995,0.0
1149,-3.0647055779099652,-0.010615984337840612,49.05097511296456,0.0
1150,-3.1191120039554594,-0.06588775508799555,49.55315057197123,0.0
1151,-3.174381244586842,-0.1218348541219278,50.07864392422083,0.0
1152,-3.2303778435330828,-0.1782018579846053,50.62760206327589,0.0
1153,-3.286756806144179,-0.23465418649893188,51.20016908310932,0.0
1154,-3.342992014611932,-0.2907728897805542,51.79648163591758,0.0
1155,-3.3984369307264,-0.3460539266459859,52.41666388761044,0.0
1156,-3.452396067779814,-0.3999150190152003,53.06082202199016,0.0
1157,-3.50418342123533,-0.45171080447836776,53.7290382435426,0.0
1158,-3.5531523634628126,-0.5007557763999718,54.42136422804637,0.0
1159,-3.598696622936846,-0.5463543063227259,55.13781397003352,0.0
1160,-3.640237111088267,-0.5878372911574176,55.8783559767108,0.0
1161,-3.6772176857052643,-0.6246049332026403,56.64290475951295,0.0
1162,-3.709130466384056,-0.6561743774481565,57.431311577284866,0.0
1163,-3.73557866952684,-0.6822294186066625,58.2433543894997,0.0
1164,-3.756367117761035,-0.7026677386697668,59.07872698427736,0.0
1165,-3.771594938246958,-0.717639849280862,59.937027254683066,0.0
1166,-3.781718153446346,-0.7275736496753262,60.81774460831103,0.0
1167,-3.7875551593742474,-0.7331793814323104,61.720246509986026,0.0
1168,-3.790224074076349,-0.7354313456222501,62.64376417606771,0.0
1169,-3.791022028561416,-0.7355242870277281,63.58737746185604,0.0
1170,-3.7912746983738708,-0.7348031525144589,64.54999901150485,0.0
1171,-3.7921919563660897,-0.7346648216623461,65.53035777315257,0.0
1172,-3.7947579005542043,-0.7364300029623485,66.52698202109913,0.0
1173,-3.799662208134098,-0.7411841160930175,67.53818207209935,0.0
1174,-3.8072534425152704,-0.749589203036582,68.56203293432225,0.0
1175,-3.81747666248598,-0.7616757743403529,69.59635718509813,0.0
1176,-3.8297587565256705,-0.7766337789248,70.63870843675305,0.0
1177,-3.8428286009558814,-0.7926336738794106,71.68635581767477,0.0
1178,-3.8544983546523506,-0.8067184285627303,72.73626996678614,0.0
1179,-3.861472662926264,-0.8148110802338286,73.78511111168211,0.0
1180,-3.8592786058929254,-0.8118765928421232,74.82921987093594,0.0
1181,-3.842408966422831,-0.7922596146486316,75.86461148579504,0.0
1182,-3.8047395399457193,-0.7501925502704272,76.88697424110887,0.0
1183,-3.740221000244471,-0.6804355361709957,77.89167287446992,0.0
1184,-3.6437702771779894,-0.5789781808132555,78.87375779007391,0.0
1185,-3.5122170235366945,-0.44370984393277657,79.82798088305617,0.0
1186,-3.345121481889354,-0.27495713129267985,80.74881873415512,0.0
1187,-3.14528726461708,-0.07579749527027663,81.6305038468469,0.0
1188,-2.9188466716588573,0.14791443332144016,82.46706446376277,0.0
1189,-2.674881121886307,0.38783078641441104,83.25237331195096,0.0
1190,-2.4246305891493813,0.6336824950193282,83.98020538541728,0.0
1191,-2.180421571336572,0.8740760463733608,84.6443045795664,0.0
1192,-1.9544891970498957,1.0974219508962724,85.23845865080268,0.0
1193,-1.7578783129952853,1.2928883852780158,85.75658159530259,0.0
1194,-1.599577192417927,1.4512767110275557,86.19280213838458,0.0
1195,-1.4859689322859393,1.56573253754546,86.54155661930783,0.0
1196,-1.4205972452697402,1.6322313235412538,86.79768416924522,0.0
1197,-1.404168872276552,1.6498053526377936,86.95652173913044,1.0
1198,-1.434689731948321,1.6205048214171824,87.06474361104968,0.0
1199,-1.5076689931231109,1.5491077314472652,87.17183509015405,0.0
1200,-1.6163997683167854,1.4426115906919428,87.27777880522711,0.0
1201,-1.7523857813116066,1.309556006241957,87.382557372211,0.0
1202,-1.9059846387388975,1.1592398944037332,87.48615339802075,0.0
1203,-2.0672710938574306,1.000909202562367,87.58854948442067,0.0
1204,-2.2270216825444407,0.8429977349872658,87.68972823196205,0.0
1205,-2.377640690121432,0.6925011280035689,87.78967224398104,0.0
1206,-2.513830502211491,0.5545495867415589,87.88836413065631,0.0
1207,-2.632866582594754,0.43221888346325804,87.98578651312513,0.0
1208,-2.7344429551827245,0.32658505598485027,88.08192202765687,0.0
1209,-2.8201647578411855,0.23699275417634386,88.17675332988327,0.0
1210,-2.892841394189623,0.16147771061258304,88.2702630990837,0.0
1211,-2.9557573475290972,0.09726647910056727,88.36243404252477,0.0
1212,-3.0120695705782943,0.04127439289617013,88.45324889985277,0.0
1213,-3.0644176530452008,-0.009465197836394046,88.54269044753762,0.0
1214,-3.114759888902682,-0.05748511028588554,88.63074150336725,0.0
1215,-3.1643884692260364,-0.10470029488962707,88.7173849309904,0.0
1216,-3.214046327221388,-0.15234955401789532,88.80260364450717,0.0
1217,-3.26407019956251,-0.2010390425613835,88.88638061310485,0.0
1218,-3.3145101952281673,-0.25085414974393727,88.96869886573833,0.0
1219,-3.365209595806453,-0.30150507728186576,89.04954149585262,0.0
1220,-3.415854922747453,-0.3524761930408863,89.12889166614646,0.0
1221,-3.4660174645229316,-0.40315726084903747,89.20673261337456,0.0
1222,-3.5152032950881544,-0.4529434045634645,89.28304765318728,0.0
1223,-3.5629150003713677,-0.5012984945203207,89.35782018500545,0.0
1224,-3.60871337668028,-0.5477828551991696,89.43103369692828,0.0
1225,-3.6522594276177145,-0.5920507940047779,89.50267177067275,0.0
1226,-3.6933205339214927,-0.633826716492062,89.57271808654222,0.0
1227,-3.731738243746206,-0.6728706891241377,89.64115642842192,0.0
1228,-3.7673719597771247,-0.7089451411097439,89.70797068879948,0.0
1229,-3.800044459435035,-0.7417936933143416,89.77314487380804,0.0
1230,-3.829516010904428,-0.7711406583385603,89.83666310828974,0.0
1231,-3.855503383738915,-0.7967156579431348,89.89850964087742,0.0
1232,-3.8777427097276322,-0.8183025286443079,89.95866884909157,0.0
1233,-3.896078069668066,-0.835806021303699,90.01712524445097,0.0
1234,-3.910547850624795,-0.8493246417956154,90.07386347759369,0.0
1235,-3.921442136355039,-0.8592141166512447,90.12886834340642,0.0
1236,-3.9293151847927517,-0.8661239642076163,90.18212478615949,0.0
1237,-3.9349510703072976,-0.8709898678722888,90.2336179046447,0.0
1238,-3.9392900321355686,-0.8749672496239587,90.28333295731369,0.0
1239,-3.9433234358527263,-0.8792968881461836,90.33125536741379,0.0
1240,-3.947958195619489,-0.885101818278612,90.37737072811876,0.0
1241,-3.9538440164428605,-0.8931259984128856,90.42166480765182,0.0
1242,-3.9611570330209287,-0.9034386218773746,90.46412355439772,0.0
1243,-3.969345864073954,-0.9151418453768418,90.50473310200137,0.0
1244,-3.9768689973384825,-0.9261315264798299,90.5434797744502,0.0
1245,-3.9809780259371728,-0.9329670869479323,90.58035009113686,0.0
1246,-3.9776185941453797,-0.9309046783318484,90.61533077189996,0.0
1247,-3.9615200256575758,-0.9141351694260708,90.64840874203941,0.0
1248,-3.926521242912971,-0.8762446022249339,90.6795711373036,0.0
1249,-3.8661392804482846,-0.8108814695914028,90.70880530884536,0.0
1250,-3.7743397545493145,-0.7125766355356669,90.7360988281438,0.0
1251,-3.6464300491726593,-0.5776241104717668,90.76143949188884,0.0
1252,-3.47997302779791,-0.40490151380026046,90.78481532682534,0.0
1253,-3.275607930766954,-0.1964951856383245,90.80621459455415,0.0
1254,-3.037655247218252,0.041997580965475234,90.82562579628649,0.0
1255,-2.774369132751399,0.3015848558472193,90.8430376775491,0.0
1256,-2.497697161275076,0.5704557061475222,90.85843923283667,0.0
1257,-2.222441251187732,0.83498448080688,90.87181971020897,0.0
1258,-1.9648099698539692,1.0810566786491755,90.88316861582894,0.0
1259,-1.7405057197928353,1.2955430951135647,90.89247571843956,0.0
1260,-1.5626544694455575,1.467708441345276,90.89973105377558,0.0
1261,-1.4399915422162344,1.5903378467909486,90.90492492890777,0.0
1262,-1.3757091482573711,1.6604040969928329,90.90804792651643,0.0
1263,-1.3672387713764225,1.6791748332001188,90.9090909090909,1.0
1264,-1.4070220218216738,1.651757480826096,90.90253858065341,0.0
1265,-1.484084623528488,1.5861793082685658,90.88312220443515,0.0
1266,-1.5860405902124632,1.4921786488637203,90.85121042884678,0.0
1267,-1.7010702516225078,1.3799236622085937,90.80718140320583,0.0
1268,-1.8194576192393614,1.2588692156181138,90.75142177227443,0.0
1269,-1.9344220600527686,1.1369141022285787,90.6843256858637,0.0
1270,-2.0421853674321775,1.0199436447317032,90.60629382727106,0.0
1271,-2.141412563868697,0.9117567112859349,90.51773246401982,0.0
1272,-2.2322979710353725,0.8143018921865808,90.41905252406593,0.0
1273,-2.3156099225843914,0.7281009174556858,90.31066870032913,0.0
1274,-2.3919612798066137,0.6527257467710849,90.19299858609445,0.0
1275,-2.4614638075128235,0.5872169518617469,90.06646184352356,0.0
1276,-2.523787891252563,0.5303748116301086,89.93147940721005,0.0
1277,-2.578522219862597,0.48090625655802965,89.78847272441692,0.0
1278,-2.6256443444895954,0.4374557032452202,89.63786303334528,0.0
1279,-2.665895768059265,0.39857514121069715,89.48007068050667,0.0
1280,-2.700909024115556,0.3626942156021934,89.3155144780052,0.0
1281,-2.733038606610588,0.3281369003809752,89.14461110128539,0.0
1282,-2.764960844007865,0.29320519241956544,88.96777452766416,0.0
1283,-2.7991840153070124,0.25632174411947045,88.78541551574462,0.0
1284,-2.8376221153232835,0.21620113597030005,88.59794112560495,0.0
1285,-2.881338698047243,0.17200885459442922,88.40575427946716,0.0
1286,-2.9304921921876406,0.12346903172490253,88.20925336237993,0.0
1287,-2.98444783896221,0.07089403181924836,88.00883186229505,0.0
1288,-3.0419873568997944,0.015126417971790096,87.80487804878048,0.0
1289,-3.1015485853250238,-0.04259821559840371,87.59777468949119,0.0
1290,-3.1614513715555166,-0.10084439579142074,87.38789880341497,0.0
1291,-3.2200948944480903,-0.15819356408039748,87.17562144982125,0.0
1292,-3.276130088300438,-0.21344909169446163,86.96130755176634,0.0
1293,-3.3286113892140294,-0.2657967876639435,86.74531575294934,0.0
1294,-3.377117697070181,-0.3148957719175593,86.5279983066663,0.0
1295,-3.4218151593275543,-0.36088598206058375,86.30970099557665,0.0
1296,-3.4634283513211113,-0.40431236266220594,86.0907630809749,0.0
1297,-3.5030996229597346,-0.4459800922487145,85.87151728024982,0.0
1298,-3.5421459063770553,-0.48676771607821767,85.65228977121322,0.0
1299,-3.581756607148333,-0.5274332778296928,85.43340022199015,0.0
1300,-3.6227016757725856,-0.56845039756368,85.21516184518018,0.0
1301,-3.6651255896990844,-0.609905753669879,84.99788147502528,0.0
1302,-3.708487056555796,-0.6514772565243484,84.78185966635286,0.0
1303,-3.751668673528026,-0.6924957470367578,84.56739081410208,0.0
1304,-3.793234642108349,-0.732075986573175,84.35476329228618,0.0
1305,-3.831771701899916,-0.7692890447061911,84.1442596112939,0.0
1306,-3.8662231642179345,-0.8033411613447206,83.9361565924875,0.0
1307,-3.8961276699774063,-0.8337252038265761,83.73072555911284,0.0
1308,-3.9217030248932896,-0.8603191442112702,83.5282325425994,0.0
1309,-3.9437616873483115,-0.8834187065012641,83.32893850339151,0.0
1310,-3.9634931292976257,-0.9037045121776252,83.13309956552055,0.0
1311,-3.982183764801274,-0.9221538980854226,82.94096726419552,0.0
1312,-4.000955802771672,-0.9399117607057476,82.75278880576177,0.0
1313,-4.020588344098927,-0.9581332228837305,82.56880733944953,0.0
1314,-4.0414436022819915,-0.9778058419342092,82.3892622404079,0.0
1315,-4.063473651903763,-0.9995541949557627,82.21438940359562,0.0
1316,-4.086247451029386,-1.023428805521453,82.04442154817605,0.0
1317,-4.1089286722330565,-1.0486869088591608,81.87958853214134,0.0
1318,-4.130156812896236,-1.073584323098274,81.72011767696945,0.0
1319,-4.147830592204764,-1.0952126552847936,81.5662341021972,0.0
1320,-4.158848595949389,-1.1094289624635896,81.4181610698737,0.0
1321,-4.1589084136085175,-1.1109298390768079,81.27612033894093,0.0
1322,-4.142484644229237,-1.0935139398401623,81.14033252967138,0.0
1323,-4.103087771552816,-1.0505543378772073,81.01101749837979,0.0
1324,-4.033851057901958,-0.9756669850655284,80.8883947227117,0.0
1325,-3.928414560268479,-0.8635199162488219,80.77268369790413,0.0
1326,-3.781995467456862,-0.7106884920934168,80.66410434450414,0.0
1327,-3.592473433824589,-0.51643440803404,80.56287742812931,0.0
1328,-3.3612918364625792,-0.28327829533863796,80.46922499195308,0.0
1329,-3.0939842074862214,-0.017251689352556387,80.3833708027019,0.0
1330,-2.800177225489716,0.272246880733902,80.30554081106169,0.0
1331,-2.4929958264559233,0.5730109110931305,80.23596362750429,0.0
1332,-2.187900217405253,0.8709563231546751,80.1748710146675,0.0
1333,-1.9011066934959682,1.1513216379001132,80.12249839755003,0.0
1334,-1.6478524881654946,1.399994667722794,80.07908539291996,0.0
1335,-1.4408145190259491,1.6048045693543698,80.04487635948219,0.0
1336,-1.2889502391798953,1.756626005291442,80.02012097050678,0.0
1337,-1.1969031274995467,1.8501721780852967,80.00507481078978,0.0
1338,-1.1649572130099994,1.8843976860333385,80.0,1.0
1339,-1.1894034782727694,1.8624810496020348,80.00850513589141,0.0
1340,-1.2631429329034267,1.7914023721555332,80.03367302160821,0.0
1341,-1.3763970873831592,1.681169345762709,80.0749969988371,0.0
1342,-1.5174851748511318,1.5437737885858416,80.13198823583116,0.0
1343,-1.6737012029905085,1.3919824625829007,80.20417373124434,0.0
1344,-1.8323385280067943,1.2380814355153635,80.2910944219154,0.0
1345,-1.9818544784191408,1.0927021955928033,80.39230338395505,0.0
1346,-2.11306936415369,0.9638571328517428,80.50736411761622,0.0
1347,-2.2202030200159033,0.856297577791642,80.63584890744613,0.0
1348,-2.3015161076722834,0.7712760416696667,80.77733725014893,0.0
1349,-2.3593671157834533,0.7067458121883726,80.93141434343922,0.0
1350,-2.3996116161325416,0.6579707499783956,81.09766962995228,0.0
1351,-2.4304235967503236,0.6184558050843766,81.27569539100607,0.0
1352,-2.4607616141398894,0.5810568105514352,81.46508538569206,0.0
1353,-2.498788968571203,0.5390982157652164,81.6654335314138,0.0
1354,-2.55055941809985,0.4873272769620859,81.87633262260128,0.0
1355,-2.6192008404836304,0.42256416788558004,82.0973730849119,0.0
1356,-2.7047006901067787,0.3439639454914677,82.32814176278903,0.0
1357,-2.8042638661338537,0.25287712820247876,82.56822073879381,0.0
1358,-2.913111695471371,0.15236669993426782,82.81718618365628,0.0
1359,-3.025534507679184,0.046496792590328684,83.07460723651373,0.0
1360,-3.135994406720527,-0.06045855276494999,83.34004491531961,0.0
1361,-3.2400861208087317,-0.16473478681629827,83.61305105791617,0.0
1362,-3.335193579829926,-0.26359855562860696,83.89316729477306,0.0
1363,-3.4207293130074574,-0.3555947566031099,84.17992405490098,0.0
1364,-3.497918672998327,-0.4405032602315304,84.47283960695519,0.0
1365,-3.5691889976719438,-0.5190502911778188,84.77141913805075,0.0
1366,-3.637324523782934,-0.5924669663856755,85.075153873315,0.0
1367,-3.704615409919188,-0.6620122670058983,85.38352023970687,0.0
1368,-3.7722309354131647,-0.7285754274955273,85.69597907813011,0.0
1369,-3.839974719076601,-0.7924452141870326,86.01197490836172,0.0
1370,-3.9064583306173164,-0.8532883475410097,86.33093525179856,0.0
1371,-3.969604734643893,-0.9103275386124975,86.65227001749612,0.0
1372,-4.0273085295346895,-0.9626631094665574,86.9753709574245,0.0
1373,-4.078058852660342,-1.00965058382588,87.29961119729586,0.0
1374,-4.121369245468031,-1.0512353472425544,87.62434484971654,0.0
1375,-4.157932820618728,-1.0881549630901726,87.94890671677969,0.0
1376,-4.1894997002176115,-1.1219463009743595,88.27261208953334,0.0
1377,-4.218531210810871,-1.1547320581809002,88.59475665202501,0.0
1378,-4.247709832215155,-1.18880258167085,88.91461649782923,0.0
1379,-4.279379666129233,-1.2260478344198988,89.23144826709799,0.0
1380,-4.314975154811936,-1.2673258873042186,89.54448941222766,0.0
1381,-4.354483961362336,-1.3118746912455137,89.85295860019723,0.0
1382,-4.395993640504606,-1.3568802385156957,90.15605625949215,0.0
1383,-4.435388990044837,-1.3973044457442685,90.45296527927539,0.0
1384,-4.4662857592551495,-1.4260491289229094,90.7428518680913,0.0
1385,-4.480291001628115,-1.4344890866025604,91.02486657887862,0.0
1386,-4.467657726246738,-1.4133511659504834,91.2981455064194,0.0
1387,-4.4183456333742415,-1.353854285842793,91.56181166254883,0.0
1388,-4.32341469840663,-1.2489679371602942,91.81497653349523,0.0
1389,-4.176579830675003,-1.0946056500184582,92.05674182260016,0.0
1390,-3.9756682383720054,-0.8905565727219559,92.28620138038767,0.0
1391,-3.7236756607395427,-0.6409801269662045,92.50244332250456,0.0
1392,-3.4291374231432576,-0.35434657273041725,92.70455233444706,0.0
1393,-3.1056263490462537,-0.0427929227571614,92.89161216022679,0.0
1394,-2.7703542898640388,0.27903613351248424,93.06270827022114,0.0
1395,-2.4420581185948755,0.5954990716473099,93.21693070141345,0.0
1396,-2.138544432736879,0.8915908431016228,93.35337706107418,0.0
1397,-1.8743881959389574,1.154446778749027,93.47115568268785,0.0
1398,-1.6592757167356613,1.374492574593848,93.56938892061679,0.0
1399,-1.497332600520198,1.5460876476201804,93.6472165676429,0.0
1400,-1.3875162865225155,1.6676087893670717,93.70379937717628,0.0
1401,-1.3248637140187376,1.741025087586938,93.73832266960267,0.0
1402,-1.302170563281879,1.7710996717166325,93.75,1.0
1403,-1.3116168020372545,1.7644012841811911,93.74709244622268,0.0
1404,-1.3459580350268658,1.7283120851008067,93.73848772824294,0.0
1405,-1.3991168261549927,1.6701824503222866,93.7243642223263,0.0
1406,-1.4662350096211771,1.5967231100917543,93.70490208377817,0.0
1407,-1.5433981908965064,1.5136582414904423,93.68028303979455,0.0
1408,-1.627277866081741,1.425606936285935,93.65069018794925,0.0
1409,-1.714873633868318,1.3361257347607036,93.61630780064307,0.0
1410,-1.803431586397706,1.2478348027643114,93.57732113581,0.0
1411,-1.8905195844321545,1.1625610586721336,93.53391625414436,0.0
1412,-1.974187176446954,1.08145505462396,93.48627984308455,0.0
1413,-2.053130891499272,1.0050654987861491,93.43459904775904,0.0
1414,-2.1268086933286705,0.9333783223920917,93.37906130907388,0.0
1415,-2.195478350242902,0.8658415148533699,93.31985420909167,0.0
1416,-2.2601560865219255,0.8014012305467348,93.2571653238284,0.0
1417,-2.3224989727091097,0.7385702552100282,93.19118208356768,0.0
1418,-2.3846149852711935,0.6755398144475209,93.1220916407687,0.0
1419,-2.448811882048814,0.6103335168784461,93.05008074562248,0.0
1420,-2.517315372625219,0.5409912532181267,92.97533562928778,0.0
1421,-2.592007497871509,0.4657634641228813,92.89804189481985,0.0
1422,-2.6742375771013,0.3832933669352651,92.81838441578535,0.0
1423,-2.7647308695952133,0.29276619462517517,92.73654724253925,0.0
1424,-2.8635781832265113,0.19400900716653513,92.6527135161245,0.0
1425,-2.9702621999165872,0.08753064978071667,92.56706538973923,0.0
1426,-3.083683364290098,-0.02550223570212795,92.47978395770333,0.0
1427,-3.202183121178436,-0.14335110913974175,92.39104919184493,0.0
1428,-3.32359701104644,-0.2638453660062626,92.3010398852151,0.0
1429,-3.445378128073475,-0.3845623499073342,92.20993360303085,0.0
1430,-3.564807436960196,-0.5030285802818307,92.11790664073763,0.0
1431,-3.679268097754507,-0.6169196474480211,92.02513398907608,0.0
1432,-3.786529533452048,-0.7242356185929711,91.93178930603133,0.0
1433,-3.8849776024450096,-0.8234321869227382,91.83804489553944,0.0
1434,-3.9737404044617994,-0.9134952277156829,91.7440716928213,0.0
1435,-4.052687257945379,-0.9939566496233962,91.65003925621272,0.0
1436,-4.1223116971011375,-1.0648600759782474,91.55611576535777,0.0
1437,-4.183538747261923,-1.126693097852608,91.46246802563189,0.0
1438,-4.23751369173216,-1.180306137174413,91.36926147866289,0.0
1439,-4.285428232231658,-1.2268350990386916,91.2766602188188,0.0
1440,-4.3284205158433675,-1.2676364702043854,91.18482701553464,0.0
1441,-4.3675548184216,-1.3042315798340511,91.09392334135332,0.0
1442,-4.403855330794048,-1.3382448687819095,91.00410940556033,0.0
1443,-4.438346433612948,-1.3713130632832313,90.91554419329708,0.0
1444,-4.472045335646491,-1.4049412995070414,90.82838551004339,0.0
1445,-4.505863375137574,-1.4402901231050105,90.74279003136613,0.0
1446,-4.54039615351417,-1.4778934281086695,90.6589133578389,0.0
1447,-4.575613055042125,-1.5173291828512097,90.57691007504484,0.0
1448,-4.610486295979554,-1.5568878490891558,90.49693381858387,0.0
1449,-4.64262367940541,-1.5933024038683632,90.41913734401493,0.0
1450,-4.667985726855268,-1.6216135515836183,90.34367260167315,0.0
1451,-4.6807750710614355,-1.6352399510878155,90.2706908163134,0.0
1452,-4.673580089849667,-1.626304117326701,90.20034257154184,0.0
1453,-4.6378306765280275,-1.5862309994435815,90.1327778990096,0.0
1454,-4.564579403526213,-1.5065921348123938,90.06814637235462,0.0
1455,-4.445560378422157,-1.3801205788820574,90.00659720589103,0.0
1456,-4.274412357140285,-1.2017791789437227,89.94827935805874,0.0
1457,-4.047897656447618,-0.9697361451130023,89.89334163966039,0.0
1458,-3.7669181892460735,-0.6860946832595369,89.84193282692786,0.0
1459,-3.437133329452342,-0.3572418214579969,89.79420177947546,0.0
1460,-3.069024317334461,0.006274915543031501,89.75029756321439,0.0
1461,-2.6773250157858737,0.39037099139651654,89.71036957831885,0.0
1462,-2.2798418166140157,0.778503029112295,89.67456769235295,0.0
1463,-1.8957990601010344,1.1530849659508051,89.64304237868622,0.0
1464,-1.5439416790843528,1.4970693108606843,89.61594486034421,0.0
1465,-1.2406734139231739,1.7954901357127575,89.59342725946271,0.0
1466,-0.9984931337575776,2.0367659374196285,89.5756427525343,0.0
1467,-0.8249276214242154,2.2135946451803274,89.56274573165976,0.0
1468,-0.7220778584384702,2.3233345932929694,89.55489197204002,0.0
1469,-0.686820027960154,2.3678440312664386,89.55223880597015,1.0
1470,-0.7116303982477886,2.3528342198211094,89.55623734173984,0.0
1471,-0.785920046961848,2.2868628555324317,89.56806397826315,0.0
1472,-0.8976701338878545,2.180142483110365,89.58746813748805,0.0
1473,-1.0350789194146748,2.0433537721282278,89.61420273433218,0.0
1474,-1.1879106470351606,1.8866333558455293,89.64802376110447,0.0
1475,-1.3483007700794585,1.7188550022437354,89.68868988916023,0.0
1476,-1.510911830886073,1.5472527284614395,89.73596208686376,0.0
1477,-1.672506113956047,1.3773611497503957,89.78960325302842,0.0
1478,-1.831150019833779,1.2131887083721613,89.84937786509495,0.0
1479,-1.9853471687991373,1.0575067450173763,89.91505164139339,0.0
1480,-2.133391628491933,0.9121378135404199,89.98639121691575,0.0
1481,-2.2731428779218907,0.778157502784512,90.06316383210122,0.0
1482,-2.402275503498963,0.6559745165820429,90.14513703420923,0.0
1483,-2.5188916533369157,0.5453080728993913,90.23207839092314,0.0
1484,-2.6222537426192174,0.4451236153963225,90.32375521589371,0.0
1485,-2.713343602030955,0.35360553551679835,90.4199343059926,0.0
1486,-2.795004346702805,0.2682350162251327,90.52038169010693,0.0
1487,-2.871560178828827,0.1860069715218423,90.62486238936103,0.0
1488,-2.9479899136379144,0.10377416993511318,90.73314018870758,0.0
1489,-3.0288859129103267,0.018663900537582934,90.84497741988086,0.0
1490,-3.117502575080787,-0.07151386328743636,90.96013475575519,0.0
1491,-3.2151618264477166,-0.16795057461394608,91.07837101619924,0.0
1492,-3.3211551211421564,-0.27067876353114223,91.1994429855614,0.0
1493,-3.4331148153710993,-0.37859426023187714,91.32310524196531,0.0
1494,-3.54768674606802,-0.489647634242414,91.44910999863521,0.0
1495,-3.6612705872921554,-0.6011584924673347,91.57720695750963,0.0
1496,-3.770621370479023,-0.7101885407458597,91.7071431754378,0.0
1497,-3.8732010113799675,-0.8139090593422106,91.83866294328847,0.0
1498,-3.9672823523602276,-0.9099124063126443,91.97150767833065,0.0
1499,-4.051889337795344,-0.9964385485224851,92.10541583027646,0.0
1500,-4.1266796424383365,-1.0725088804788139,92.24012280140111,0.0
1501,-4.1918474258860305,-1.1379749145111422,92.37536088117903,0.0
1502,-4.248072046518211,-1.193496147910289,92.51085919589505,0.0
1503,-4.296493130044113,-1.2404601272497502,92.64634367370657,0.0
1504,-4.33867071963624,-1.2808513964037411,92.78153702564538,0.0
1505,-4.376493311762141,-1.3170686238871963,92.91615874305838,0.0
1506,-4.412016750281987,-1.351684537283626,93.0499251119909,0.0
1507,-4.447238650059326,-1.3871440651090254,93.1825492450185,0.0
1508,-4.48382468161087,-1.4254035273554362,93.31374113102984,0.0
1509,-4.522802531772883,-1.4675274287152507,93.44320770345504,0.0
1510,-4.564234669705253,-1.513277384599946,93.57065292742196,0.0
1511,-4.606883875916084,-1.5607464510424034,93.69577790630423,0.0
1512,-4.647902128039126,-1.6061069703428958,93.8182810081018,0.0
1513,-4.682600165982315,-1.6435458173438642,93.93785801206624,0.0
1514,-4.704380590523544,-1.6654530297071581,94.05420227594718,0.0
1515,-4.704928602111492,-1.6629055242498385,94.16700492419693,0.0
1516,-4.674740839005232,-1.6264474381143408,94.27595505742244,0.0
1517,-4.604028118984455,-1.5471171160666735,94.38073998332041,0.0
1518,-4.483953121145812,-1.4176163866928901,94.48104546927314,0.0
1519,-4.30807057723286,-1.2334717919327423,94.57655601671522,0.0
1520,-4.07374833851207,-0.9940116175435008,94.66695515730974,0.0
1521,-3.7832921807234117,-0.7029862603605109,94.75192577089412,0.0
1522,-3.4445010605289546,-0.36869674351451465,94.83115042507026,0.0
1523,-3.0704541229033455,-0.003563951331341908,94.90431173622319,0.0
1524,-2.678467185274523,0.3768411682961619,94.97109275165569,0.0
1525,-2.2883260829954595,0.7551949533798286,95.03117735242358,0.0
1526,-1.9200659364147212,1.1140583862915197,95.08425067634974,0.0
1527,-1.5916770005342054,1.4375227286190413,95.12999956058201,0.0
1528,-1.3171482698429224,1.71262981797698,95.16811300294427,0.0
1529,-1.1051970943395022,1.9303751040152086,95.19828264121011,0.0
1530,-0.9588858991700377,2.086178186598959,95.22020324930544,0.0
1531,-0.876127349905684,2.1798007416698573,95.23357324932181,0.0
1532,-0.8508790847781265,2.2147847566564973,95.23809523809524,1.0
1533,-0.8746890406774295,2.1975555647848823,95.23148612318937,0.0
1534,-0.9382172662130163,2.136370795381671,95.21190474817757,0.0
1535,-1.0324349577409295,2.0402935538444398,95.17972756921544,0.0
1536,-1.149347189785331,1.9183309168086635,95.13534024618988,0.0
1537,-1.282241193064134,1.7788196290996514,95.0791366553426,0.0
1538,-1.4255761094540473,1.629075792710349,95.01151791788887,0.0
1539,-1.5746819716008338,1.4752696981831037,94.93289144818115,0.0
1540,-1.725431989052665,1.3224518026156187,94.84367002468007,0.0
1541,-1.8740128059192385,1.1746459010027164,94.74427088670429,0.0
1542,-2.0168619829566614,1.03493890536813,94.63511485963456,0.0
1543,-2.150785078244984,0.9055262359508159,94.51662551095181,0.0
1544,-2.2732154243069123,0.7877075813000747,94.38922833919636,0.0
1545,-2.382542662999509,0.6818592959574815,94.25334999764604,0.0
1546,-2.478413109056921,0.587428616976987,94.10941755422938,0.0
1547,-2.561897841761685,0.5029966447234577,93.95785778891837,0.0
1548,-2.6354375055155814,0.42644179064115156,93.79909652958118,0.0
1549,-2.7025124219920573,0.3552078383624814,93.63355802702687,0.0
1550,-2.767054606100769,0.28664896724898054,93.46166436973577,0.0
1551,-2.832703263649942,0.2183974483513354,93.28383493854733,0.0
1552,-2.902079360983379,0.14868641914192432,93.10048590136863,0.0
1553,-2.9762819486896204,0.07656471167443524,92.91202974777507,0.0
1554,-3.054764268808359,0.0019625059279932966,92.7188748631978,0.0
1555,-3.1356358708969134,-0.07440024979773513,92.52142514223203,0.0
1556,-3.2162960386253583,-0.1512355636083465,92.3200796404562,0.0
1557,-3.2941903383792464,-0.22698504280177823,92.11523226402285,0.0
1558,-3.3674451020259233,-0.30012740044336017,91.90727149616963,0.0
1559,-3.435192274122815,-0.3694355115414724,91.6965801597004,0.0
1560,-3.4975264059979376,-0.43414265816503916,91.48353521440413,0.0
1561,-3.5551807579171566,-0.494004290967507,91.26850758830906,0.0
1562,-3.6091061206846384,-0.5492663792776182,91.05186204161585,0.0
1563,-3.6601429702524046,-0.6005675150447258,90.83395706210887,0.0
1564,-3.7088989462828477,-0.6488067746022255,90.61514479081555,0.0
1565,-3.7558258709781125,-0.6950047410060606,90.39577097666405,0.0
1566,-3.801395344929996,-0.7401758057859743,90.17617495888013,0.0
1567,-3.846242013408735,-0.7852211432527517,89.95668967586614,0.0
1568,-3.8911825373480218,-0.8308470165040069,89.73764169931415,0.0
1569,-3.937095441845003,-0.8775127832747337,89.51935129232399,0.0
1570,-3.9847194787482794,-0.9254148795245039,89.30213249032242,0.0
1571,-4.034464132988093,-0.9745136597771766,89.08629320361237,0.0
1572,-4.086316269729999,-1.0246063014699986,88.87213534041976,0.0
1573,-4.139883095050152,-1.0754400265604445,88.65995494934936,0.0
1574,-4.194556044752055,-1.1268471156357065,88.45004238021026,0.0
1575,-4.24973569201756,-1.1788700646536217,88.24268246222508,0.0
1576,-4.305038625013291,-1.2318361427099356,88.03815469869359,0.0
1577,-4.3604148610039735,-1.286339513119123,87.83673347724239,0.0
1578,-4.416129090278496,-1.3430984066649962,87.63868829485531,0.0
1579,-4.472588061190701,-1.4026747981050876,87.44428399694554,0.0
1580,-4.530021951950944,-1.4650724348730892,87.25378102979795,0.0
1581,-4.588049458664158,-1.5292614989072804,87.06743570578149,0.0
1582,-4.64517815992217,-1.5927085892210042,86.88550048080185,0.0
1583,-4.6983153090897725,-1.6510122202808295,86.70822424353935,0.0
1584,-4.742387052479925,-1.6977500880767686,86.53585261609145,0.0
1585,-4.770180171717912,-1.7246301120369512,86.36862826571567,0.0
1586,-4.772521669860233,-1.722001018681943,86.20679122744625,0.0
1587,-4.738888267344128,-1.6797226516709833,86.05057923743715,0.0
1588,-4.658481229125468,-1.588328829730843,85.90022807696464,0.0
1589,-4.521709450330302,-1.4403483476419316,85.7559719271041,0.0
1590,-4.321906669680121,-1.2315970625248065,85.6180437341804,0.0
1591,-4.056995251540023,-0.962229848189411,85.48667558617615,0.0
1592,-3.7307390975625245,-0.637355280502014,85.36209910037003,0.0
1593,-3.3532404117953933,-0.26707049308553826,85.2445458225688,0.0
1594,-2.940449477317597,0.13413836982706095,85.13424763838816,0.0
1595,-2.5126610940798497,0.548579194071144,85.03143719713573,0.0
1596,-2.0922169192675426,0.9569681424023602,84.9363483489489,0.0
1597,-1.700844958999774,1.340247634799486,84.84921659594491,0.0
1598,-1.357171004603735,1.6813483333129775,84.77027955825059,0.0
1599,-1.074887803904998,1.9666527869956654,84.69977745589347,0.0
1600,-0.8618757753073232,2.186980189792711,84.63795360765853,0.0
1601,-0.7203000806210947,2.33800232987588,84.58505494814236,0.0
1602,-0.6474620996324081,2.4200989273459546,84.54133256437451,0.0
1603,-0.6370474691612029,2.4377451494495332,84.50704225352113,1.0
1604,-0.6804220857272125,2.3985799216087837,84.47809509326869,0.0
1605,-0.7677461931629046,2.312324392166765,84.45020786053027,0.0
1606,-0.8888260477511087,2.1897082044300733,84.42334889929093,0.0
1607,-1.0337307471245565,2.04152617833369,84.39748670670107,0.0
1608,-1.1932400527395195,1.877901393671642,84.37258992557686,0.0
1609,-1.3591731403092557,1.7077834848551565,84.34862733715973,0.0
1610,-1.5246134729462466,1.5386712000068918,84.32556785413155,0.0
1611,-1.6840210133353835,1.3765203180209016,84.3033805138813,0.0
1612,-1.8332227427788441,1.225783134140812,84.2820344720197,0.0
1613,-1.969293677208012,1.0895230995751883,84.26149899613857,0.0
1614,-2.0903712872993587,0.969555787987185,84.24174345981164,0.0
1615,-2.19546993145972,0.8665823468380363,84.22273733683379,0.0
1616,-2.284362885227647,0.780300516097953,84.204450195696,0.0
1617,-2.357569720199957,0.7094971522986919,84.18685169429344,0.0
1618,-2.4164324420799743,0.6521408032707307,84.16991157486417,0.0
1619,-2.463207007292402,0.6054996792222468,84.15359965915601,0.0
1620,-2.5010668275850843,0.5663074493771447,84.13788584381984,0.0
1621,-2.5339317493820657,0.5309872470174627,84.12274009602696,0.0
1622,-2.5660972011326146,0.49592636818168434,84.10813244930878,0.0
1623,-2.6017180738789363,0.45777565159254446,84.09403299961727,0.0
1624,-2.6442651664996006,0.4137341398707799,84.0804119016042,0.0
1625,-2.6960919261597542,0.36177570287645,84.06723936511814,0.0
1626,-2.7582191209926457,0.30078141993561824,84.05448565191735,0.0
1627,-2.8303789264962425,0.2305579279805524,84.04212107259787,0.0
1628,-2.9112840832835256,0.15174319921156182,84.03011598373499,0.0
1629,-2.9990298742869017,0.06562163897199919,84.0184407852374,0.0
1630,-3.0915149754753437,-0.02611510922677357,84.0070659179132,0.0
1631,-3.1867841637786345,-0.12161974136319542,83.99596186124597,0.0
1632,-3.283238409436134,-0.21911508294523918,83.98509913138135,0.0
1633,-3.37970585828572,-0.31706670831214423,83.97444827932209,0.0
1634,-3.4754042350204566,-0.4142891094922937,83.96397988933143,0.0
1635,-3.5698445197513626,-0.5099856239201332,83.95366457754429,0.0
1636,-3.6627280142829446,-0.6037322530016912,83.94347299078504,0.0
1637,-3.7538767881259,-0.6954205798662699,83.93337580559175,0.0
1638,-3.843214066270983,-0.785175676207097,83.92334372744612,0.0
1639,-3.9307828323172873,-0.8732628438908998,83.91334749020845,0.0
1640,-4.016769025501958,-0.9599942928055676,83.90335785575739,0.0
1641,-4.101491418506074,-1.0456449114337036,83.89334561383379,0.0
1642,-4.185336638461349,-1.1303855303005454,83.88328158208786,0.0
1643,-4.268646414310899,-1.2142417191801718,83.87313660632988,0.0
1644,-4.35159021313707,-1.2970846815759707,83.86288156098303,0.0
1645,-4.434067741807742,-1.3786567709906379,83.85248734973851,0.0
1646,-4.515678129608575,-1.4586269928284779,83.8419249064121,0.0
1647,-4.5957694721123,-1.5366624038168688,83.83116519600166,0.0
1648,-4.673552042493615,-1.612491800672297,83.8201792159449,0.0
1649,-4.748231220210311,-1.6859315996963269,83.80893799757705,0.0
1650,-4.819101990573114,-1.7568434448611525,83.79741260778736,0.0
1651,-4.885551625729957,-1.825000965203439,83.78557415087424,0.0
1652,-4.946939431288415,-1.8898595940456786,83.77339377059762,0.0
1653,-5.0023539421947865,-1.950246670559039,83.76084265242855,0.0
1654,-5.050278708720686,-2.004015312190793,83.74789202599425,0.0
1655,-5.088222154773487,-2.047729400025179,83.73451316771846,0.0
1656,-5.112384978663592,-2.0764624731388137,83.72067740365569,0.0
1657,-5.117451854035633,-2.08379493388687,83.70635611251798,0.0
1658,-5.096600627278043,-2.0620780588529195,83.69152072889398,0.0
1659,-5.041814415176219,-2.002999173028589,83.67614274665773,0.0
1660,-4.9445512454198335,-1.8984330409740604,83.66019372256714,0.0
1661,-4.796768311079797,-1.7415071061411083,83.64364528004955,0.0
1662,-4.5922189508049245,-1.5277530208199668,83.6264691131736,0.0
1663,-4.327854880541144,-1.2561759512361186,83.6086369908054,0.0
1664,-4.005094638353727,-0.9300575830686608,83.59012076094729,0.0
1665,-3.6306838980818474,-0.5573261086553205,83.57089235525717,0.0
1666,-3.216894247682599,-0.15037813762903862,83.55092379374668,0.0
1667,-2.780896508147733,0.2746826644366682,83.53018718965552,0.0
1668,-2.343298025151855,0.6993305759363495,83.50865475450051,0.0
1669,-1.9260200691947074,1.1042751074225405,83.48629880329577,0.0
1670,-1.5498575770923158,1.4712696639790348,83.46309175994267,0.0
1671,-1.232152047866964,1.784818707871302,83.43900616278611,0.0
1672,-0.9849883473478499,2.0335440761887167,83.41401467033435,0.0
1673,-0.8142076066712548,2.2110282266573553,83.38809006713964,0.0
1674,-0.7193527357195187,2.3160414495242256,83.36120526983638,0.0
1675,-0.694478653506809,2.3521631569643513,83.33333333333334,1.0
1676,-0.7296044035501923,2.3269033377228037,83.30053769255105,0.0
1677,-0.8124854021882357,2.250500504233022,83.259065328067,0.0
1678,-0.9303586687445438,2.1346047093672738,83.20916809103359,0.0
1679,-1.0713659537333915,1.9910450391926149,83.15110192512651,0.0
1680,-1.2254721448054948,1.8308360379716342,83.08512637291126,0.0
1681,-1.384833595078908,1.6635096332979968,83.0115040927451,0.0
1682,-1.5436941404882307,1.4967849299761045,82.93050038746861,0.0
1683,-1.697969324130107,1.3365241160160841,82.84238274603048,0.0
1684,-1.8447130010332122,1.1868811723006938,82.74742039907711,0.0
1685,-1.9816479856313292,1.0505372603766174,82.6458838894273,0.0
1686,-2.106891847915796,0.9289315808166343,82.53804465824328,0.0
1687,-2.218932781375873,0.8224318239425125,82.42417464760089,0.0
1688,-2.316826743748699,0.730432602156329,82.30454592005667,0.0
1689,-2.4005171179802325,0.651410782867149,82.17943029570812,0.0
1690,-2.471139568371811,0.5829925921483157,82.049099007144,0.0
1691,-2.531175025519155,0.5220921944993215,81.91382237258871,0.0
1692,-2.584348876315718,0.46516433326460427,81.7738694874538,0.0
1693,-2.6352335044547237,0.40857945799288764,81.62950793442533,0.0
1694,-2.6885823073822745,0.34908800104205734,81.4810035121359,0.0
1695,-2.7484954838893287,0.28430276565898693,81.32861998239495,0.0
1696,-2.817579136969364,0.21310582130246963,81.17261883588199,0.0
1697,-2.8962930468911203,0.1358865254574267,81.01325907614313,0.0
1698,-2.9826710351357937,0.054542390598834256,80.85079702167258,0.0
1699,-3.0725320035613835,-0.027779919262533703,80.68548612580791,0.0
1700,-3.1601882793440934,-0.1071703713693668,80.51757681411972,0.0
1701,-3.239528051407378,-0.17958273088707666,80.34731633893404,0.0
1702,-3.3052373712565406,-0.24148269879844392,80.17494865058784,0.0
1703,-3.3538694195328795,-0.2903889066933078,80.00071428498654,0.0
1704,-3.3844881001988645,-0.325201490872555,79.82485026700367,0.0
1705,-3.398713960116046,-0.34626143962055306,79.64759002924055,0.0
1706,-3.4001618764981885,-0.35514594658004206,79.46916334564514,0.0
1707,-3.3934353512749316,-0.3542645242879472,79.28979627947484,0.0
1708,-3.382972421156867,-0.34636204236846685,79.10971114507717,0.0
1709,-3.3720752468833806,-0.33404759810269763,78.92912648295652,0.0
1710,-3.362385107466816,-0.31944981390180494,78.74825704759107,0.0
1711,-3.3539129674182138,-0.30405623317196334,78.56731380746447,0.0
1712,-3.345557471464983,-0.2887401828844164,78.38650395678029,0.0
1713,-3.3358971598783436,-0.2739286794145051,78.20603093833238,0.0
1714,-3.323976090067117,-0.2598333799516904,78.02609447701349,0.0
1715,-3.3098277471909645,-0.24666073332216784,77.84689062345498,0.0
1716,-3.294586394125313,-0.2347367392916978,77.66861180730339,0.0
1717,-3.280179360435319,-0.22451800434593458,77.4914468996544,0.0
1718,-3.2687296290422907,-0.21650149185588657,77.31558128418179,0.0
1719,-3.2618831864170845,-0.21107757705745145,77.14119693651622,0.0
1720,-3.260287115921471,-0.2083854997000473,76.96847251144942,0.0
1721,-3.2633839756789773,-0.20822414955908322,76.79758343755873,0.0
1722,-3.269578408094777,-0.2100482088771363,76.62870201886989,0.0
1723,-3.2767088231823713,-0.21304898221818366,76.46199754319808,0.0
1724,-3.2826590852245654,-0.2162915818431475,76.29763639683101,0.0
1725,-3.285904038404635,-0.21886450231552945,76.13578218524181,0.0
1726,-3.2858128310925494,-0.21999831883649285,75.97659585954516,0.0
1727,-3.2826252708890955,-0.2191257251877806,75.82023584843434,0.0
1728,-3.2771354884103787,-0.2158788306558931,75.66685819536397,0.0
1729,-3.2702195859414473,-0.2100425263593587,75.51661670076865,0.0
1730,-3.2623926389866225,-0.20149657348649402,75.36966306913489,0.0
1731,-3.2535603283913668,-0.19017928226011024,75.22614706077034,0.0
1732,-3.2430523830318014,-0.17609279189906893,75.08621664814223,0.0
1733,-3.2299190838709646,-0.15934932032764682,74.95001817668383,0.0
1734,-3.2133760990026063,-0.140237322211947,74.8176965299964,0.0
1735,-3.193229704153623,-0.11927405111567357,74.68939529940187,0.0
1736,-3.1701214038456222,-0.09721136654142658,74.56525695783041,0.0
1737,-3.1454944474774886,-0.07497494044987218,74.44542303805608,0.0
1738,-3.1212815577902036,-0.053538865980367445,74.33003431532322,0.0
1739,-3.0994093327954135,-0.03376060385163271,74.21923099443583,0.0
1740,-3.0812775417824567,-0.01621735547215557,74.113152901414,0.0
1741,-3.0673803277256657,-0.0010887301854799886,74.01193967985097,0.0
1742,-3.0571889206921767,0.011879504753060023,73.91573099213794,0.0
1743,-3.0493285654477025,0.02331669809971422,73.82466672575613,0.0
1744,-3.0419864188796497,0.03408498392708108,73.7388872048692,0.0
1745,-3.0334160735684783,0.0450867045333596,73.65853340748492,0.0
1746,-3.022382755216952,0.05706730239798333,73.58374718849097,0.0
1747,-3.0084264195079125,0.07045899798888693,73.51467150890777,0.0
1748,-2.9918916266234685,0.08529826002605191,73.4514506717408,0.0
1749,-2.9737528307706365,0.10123007295608905,73.39423056485677,0.0
1750,-2.955321139650762,0.11759030195796688,73.34315891135087,0.0
1751,-2.937936288262562,0.13353984262465202,73.29838552791891,0.0
1752,-2.922726897355456,0.14821469674266996,73.26006259179695,0.0
1753,-2.9104795039622084,0.1608559912523972,73.22834491688205,0.0
1754,-2.901614115268491,0.17089210335142369,73.20339023970335,0.0
1755,-2.896237758239274,0.1779586098095218,73.18535951597086,0.0
1756,-2.8942426592522996,0.18185721786669937,73.17441722849256,0.0
1757,-2.895425461276432,0.18246886578263463,73.17073170731707,1.0
1758,-2.8996153719304876,0.17964627452397386,73.20455578304279,0.0
1759,-2.9068018411940955,0.17311580215567343,73.30438168633701,0.0
1760,-2.9172444909117043,0.16241684122746197,73.46798676557484,0.0
1761,-2.9315368011736105,0.14689944313200182,73.6934447027973,0.0
1762,-2.9505913933915755,0.12578850262352714,73.97908857762873,0.0
1763,-2.975525953987056,0.09830776693033796,74.32347797408866,0.0
1764,-3.0074541432959414,0.06384201297445755,74.72536932266534,0.0
1765,-3.0472167507795955,0.02210421912945954,75.18368878844795,0.0
1766,-3.095113137083627,-0.02673057040739163,75.69750710950987,0.0
1767,-3.1507023111753893,-0.08195980025837016,76.2660158633313,0.0
1768,-3.212733676302346,-0.14237977886710684,76.88850469696497,0.0
1769,-3.2792425763968986,-0.20640889807432014,77.56433910218968,0.0
1770,-3.3478115201373937,-0.27229140748427033,78.29293835276668,0.0
1771,-3.4159607254678654,-0.3383461050249534,79.0737532494041,0.0
1772,-3.4815972784912073,-0.40321188065432784,79.9062433411464,0.0
1773,-3.5434275638455075,-0.4660402754661395,80.78985331147915,0.0
1774,-3.6012312261623376,-0.5265954301367515,81.72398823523258,0.0
1775,-3.6559144947674627,-0.5852422578697527,82.70798743015035,0.0
1776,-3.7093079533056783,-0.6428296420631509,83.74109664660453,0.0
1777,-3.7637400019671308,-0.7005001151786984,84.82243836236147,0.0
1778,-3.8214833532795995,-0.759473651207199,85.95097997869334,0.0
1779,-3.884214868859127,-0.8208554635301949,87.12549975186658,0.0
1780,-3.9526312566367134,-0.8855042372634815,88.34455034272975,0.0
1781,-4.026320283172678,-0.9539709320737843,89.60641992961476,0.0
1782,-4.103910368266626,-1.026486531082758,90.90909090909092,0.0
1783,-4.18343318134323,-1.1029500799428131,92.25019630841774,0.0
1784,-4.262760244693403,-1.182856341143339,93.62697415595909,0.0
1785,-4.339937963212805,-1.265112578123854,95.03622020424424,0.0
1786,-4.413259779196554,-1.3477277681598965,96.47423957718043,0.0
1787,-4.480981800621314,-1.4274090856723416,97.93679811961348,0.0
1788,-4.5406986249558665,-1.4991572271674358,99.41907446409144,0.0
1789,-4.588524859311266,-1.5559972889564782,100.91561409438597,0.0
1790,-4.61833988461249,-1.5889986411896166,102.42028697345049,0.0
1791,-4.6214105160521814,-1.5877135780150677,103.92625060692932,0.0
1792,-4.586678608923816,-1.5410976113108572,105.42592071970762,0.0
1793,-4.501878653603839,-1.438872826876949,106.91095201494359,0.0
1794,-4.35545156167353,-1.2731795815959988,108.37223173971246,0.0
1795,-4.138989156796237,-1.040258352838467,109.79988897035228,0.0
1796,-3.849739914117185,-0.7418413992877814,111.18332262020253,0.0
1797,-3.492591190937792,-0.38593547247492993,112.51125112511252,0.0
1798,-3.0809608996352047,0.013248519628806354,113.77178653864358,0.0
1799,-2.636197608957998,0.4363231677496141,114.95253533181126,0.0
1800,-2.1853830134198815,0.8606340507093895,116.0407275103787,0.0
1801,-1.757800200608089,1.2627938386866928,117.02337471695947,0.0
1802,-1.3806901461660168,1.6214421655404254,117.88745677459922,0.0
1803,-1.0751642503852734,1.9197665830301611,118.62013467655613,0.0
1804,-0.8531783346997535,2.147349309376675,119.20898638665166,0.0
1805,-0.7162585189758321,2.3010262656147646,119.64226007100689,0.0
1806,-0.6562419409802361,2.384633551765724,119.90913765185294,0.0
1807,-0.6577827191207063,2.407729866945563,120.0,1.0
1808,-0.7019445624986316,2.383573330016505,119.9722535165768,0.0
1809,-0.769991546717769,2.326756176441177,119.89018810371122,0.0
1810,-0.8465424350880143,2.250936358087591,119.75566845477843,0.0
1811,-0.921518558840074,2.1670490038235384,119.57068453588175,0.0
1812,-0.9906803038539511,2.0822522735914317,119.33733529847112,0.0
1813,-1.0548978249182641,1.9996954919985541,119.05781238640678,0.0
1814,-1.118553456585937,1.9190318426490103,118.73438402736957,0.0
1815,-1.1875845862153822,1.8374678262616586,118.36937928154389,0.0
1816,-1.2676465263844396,1.7510694318188826,117.96517280164035,0.0
1817,-1.3627409205255467,1.656037307931629,117.52417023821388,0.0
1818,-1.4744743519671237,1.5497123089329476,117.04879440347298,0.0
1819,-1.6019430795460934,1.4311603680077736,116.54147228591762,0.0
1820,-1.7421228560310122,1.3012888211048348,116.0046229876808,0.0
1821,-1.89058867744491,1.1625431368994914,115.44064663679941,0.0
1822,-2.0423854614643497,1.0183066460489818,114.85191430815217,0.0
1823,-2.192894192419523,0.8721665964353151,114.24075896974817,0.0
1824,-2.338569088374273,0.7272152761447414,113.60946745562129,0.0
1825,-2.477449940187778,0.5855287744152204,112.96027345291787,0.0
1826,-2.609379953755738,0.447916326286257,112.29535147891688,0.0
1827,-2.735889123600405,0.31397084767270333,111.61681181370692,0.0
1828,-2.8597439920672176,0.18238794341864306,110.92669634602409,0.0
