,PPG_Raw,PPG_Clean,PPG_Rate,PPG_Peaks
0,-0.3017809969263734,-0.06721463221772507,86.67736757624398,0.0
1,-0.3268528351393789,-0.088467737825958,86.67736757624398,0.0
2,-0.3503278383637759,-0.10861473070571881,86.67736757624398,0.0
3,-0.37092664193142394,-0.12667671690461177,86.67736757624398,0.0
4,-0.387906180281741,-0.14197650876158788,86.67736757624398,0.0
5,-0.4011488965236535,-0.15422239779509278,86.67736757624398,0.0
6,-0.4110983091871767,-0.1635261135079894,86.67736757624398,0.0
7,-0.4185821099707136,-0.17035616152212757,86.67736757624398,0.0
8,-0.4245921148055935,-0.17543932079887695,86.67736757624398,0.0
9,-0.43008904423504707,-0.1796305972219343,86.67736757624398,0.0
10,-0.4358737535773855,-0.18377443241149505,86.67736757624398,0.0
11,-0.4425296012627795,-0.1885780134927753,86.67736757624398,0.0
12,-0.4504106623412543,-0.19451267344713893,86.67736757624398,0.0
13,-0.4596403205598266,-0.20175337821564487,86.67736757624398,0.0
14,-0.47009710152799206,-0.2101604757548945,86.67736757624398,0.0
15,-0.481390813347079,-0.21930280043966432,86.67736757624398,0.0
16,-0.4928560574728162,-0.22851686519795367,86.67736757624398,0.0
17,-0.5035965275779942,-0.23699307053244348,86.67736757624398,0.0
18,-0.5125964821161471,-0.2438767343191749,86.67736757624398,0.0
19,-0.5188837015720998,-0.24836985148633584,86.67736757624398,0.0
20,-0.5216992399824911,-0.24981958939339716,86.67736757624398,0.0
21,-0.5206201744875925,-0.24778211335049702,86.67736757624398,0.0
22,-0.5155976517976775,-0.24205521819615955,86.67736757624398,0.0
23,-0.506905253741583,-0.23267937736789546,86.67736757624398,0.0
24,-0.49502579784172157,-0.21991260180660455,86.67736757624398,0.0
25,-0.4805236279782441,-0.2041883259190324,86.67736757624398,0.0
26,-0.46394794083868984,-0.1860664364262925,86.67736757624398,0.0
27,-0.4457937437685134,-0.16618558052607535,86.67736757624398,0.0
28,-0.4265199243822804,-0.14522107799900275,86.67736757624398,0.0
29,-0.40659970316755994,-0.12384874137951904,86.67736757624398,0.0
30,-0.3865663842937032,-0.10271224137463317,86.67736757624398,0.0
31,-0.3670210510784841,-0.08239124440628906,86.67736757624398,0.0
32,-0.3485869189112844,-0.06336931918476645,86.67736757624398,0.0
33,-0.33181991012141066,-0.0460035794370208,86.67736757624398,0.0
34,-0.31710576530481926,-0.030500744655321974,86.67736757624398,0.0
35,-0.30458133759945194,-0.01690542835250254,86.67736757624398,0.0
36,-0.2941089437367049,-0.005105323478351159,86.67736757624398,0.0
37,-0.2853131447968981,0.005145229839952553,86.67736757624398,0.0
38,-0.27766870073962935,0.014186017729161005,86.67736757624398,0.0
39,-0.2706142561013558,0.022402604363959217,86.67736757624398,0.0
40,-0.26366112304285744,0.03017752471275828,86.67736757624398,0.0
41,-0.2564699118190361,0.03784940475146595,86.67736757624398,0.0
42,-0.2488783514027589,0.04568581949832813,86.67736757624398,0.0
43,-0.24087844295254163,0.0538716900107378,86.67736757624398,0.0
44,-0.23255563274589025,0.062510908537475,86.67736757624398,0.0
45,-0.22401305432321209,0.07163600857663367,86.67736757624398,0.0
46,-0.21530772496688086,0.0812199626861774,86.67736757624398,0.0
47,-0.20642180473550845,0.09118573685834916,86.67736757624398,0.0
48,-0.19728066246429593,0.10141237025932914,86.67736757624398,0.0
49,-0.18781244865830288,0.11173978090575407,86.67736757624398,0.0
50,-0.17802598299937833,0.12197674466005334,86.67736757624398,0.0
51,-0.16807227845174966,0.13191644859221782,86.67736757624398,0.0
52,-0.15825658352491706,0.1413614018075631,86.67736757624398,0.0
53,-0.14898439409739994,0.1501550465371957,86.67736757624398,0.0
54,-0.14065149217367867,0.1582127522531295,86.67736757624398,0.0
55,-0.1335141258492277,0.16554192588846534,86.67736757624398,0.0
56,-0.12758932995691405,0.17224127634302464,86.67736757624398,0.0
57,-0.12262998983975384,0.17847334930718362,86.67736757624398,0.0
58,-0.11819548056673666,0.18441147941166036,86.67736757624398,0.0
59,-0.11380508608181271,0.19017030038856347,86.67736757624398,0.0
60,-0.109130260244411,0.19573536482667978,86.67736757624398,0.0
61,-0.10416446970178356,0.20091001308333528,86.67736757624398,0.0
62,-0.09931241049028268,0.20529525965612078,86.67736757624398,0.0
63,-0.095363653113966,0.2083115438076398,86.67736757624398,0.0
64,-0.09335221509204596,0.2092615856489529,86.67736757624398,1.0
65,-0.09434103101642007,0.2074240220227627,86.60496973565371,0.0
66,-0.0991952751427317,0.20216064151851088,86.53272059884854,0.0
67,-0.1084110906175391,0.19301763251624682,86.4606475410211,0.0
68,-0.12204455096628722,0.1798035666228038,86.38877775411069,0.0
69,-0.13974750636908623,0.16263266423814832,86.31713824839227,0.0
70,-0.1608780560752215,0.14192911816034348,86.24575585422922,0.0
71,-0.18463088947113812,0.11839471970119245,86.1746572239863,0.0
72,-0.21013654107555987,0.09294632957504548,86.10386883410034,0.0
73,-0.2365055061215102,0.06663163017688131,86.03341698730566,0.0
74,-0.2628285163173125,0.04053190078160288,85.96332781501157,0.0
75,-0.28817025318272826,0.015660533614286806,85.89362727982925,0.0
76,-0.31159842441938684,-0.007133407226786043,85.82434117824518,0.0
77,-0.33227198443818695,-0.027246050558359623,85.7554951434391,0.0
78,-0.3495796916627334,-0.04437254451687818,85.68711464824344,0.0
79,-0.3632873495702069,-0.05852325433412375,85.61922500824227,0.0
80,-0.37363363734216165,-0.06999566616624395,85.55185138500724,0.0
81,-0.38132005084528897,-0.07930252674056193,85.4850187894686,0.0
82,-0.3873708243449478,-0.08706597913463857,85.41875208541876,0.0
83,-0.39288465498916714,-0.09389622665946337,85.35307599314667,0.0
84,-0.3987451291975126,-0.10027860580500605,85.28801509320118,0.0
85,-0.40538211274829056,-0.106492561950647,85.22359383028108,0.0
86,-0.4126678982598632,-0.11257924620040594,85.15983651725074,0.0
87,-0.4199881111332313,-0.11836276381698302,85.09676733927911,0.0
88,-0.426463542950593,-0.12351677662842883,85.03441035810101,0.0
89,-0.43124235203099776,-0.12765720116345405,84.972789516399,0.0
90,-0.43375797292744045,-0.13043648441777464,84.9119286423046,0.0
91,-0.43386678763268016,-0.13161683475214714,84.85185145401788,0.0
92,-0.43183112644207394,-0.1311079020642601,84.79258156454387,0.0
93,-0.4281735801142908,-0.1289658029553178,84.73414248654532,0.0
94,-0.4234724285491488,-0.12536125142903587,84.6765576373106,0.0
95,-0.41817955585977523,-0.12053156074553277,84.61985034383613,0.0
96,-0.41252133308183425,-0.11473271243905613,84.56404384802275,0.0
97,-0.4065029052724758,-0.10820387593444028,84.50916131198545,0.0
98,-0.39999581547868657,-0.10114975242286518,84.4552258234763,0.0
99,-0.39286275624663125,-0.09373876736039487,84.40226040141994,0.0
100,-0.3850673513810525,-0.08611003381895256,84.35028800156205,0.0
101,-0.3767289822523432,-0.07838060923482432,84.2993315222302,0.0
102,-0.3681061375571339,-0.07064682711463868,84.249413810208,0.0
103,-0.35951853220158114,-0.06297805052397683,84.2005576667218,0.0
104,-0.3512401247409433,-0.05540602362520133,84.15278585354176,0.0
105,-0.34340504663181,-0.0479161524613892,84.10612109919627,0.0
106,-0.3359626538258541,-0.040447372488458644,84.06058610530185,0.0
107,-0.328698523658679,-0.03290473421417505,84.01620355300845,0.0
108,-0.3213131168736539,-0.025184483934974904,83.97299610956155,0.0
109,-0.31352929672801677,-0.017206859657702675,83.93098643498217,0.0
110,-0.30519168524807344,-0.0089486684635201,83.89019718886608,0.0
111,-0.29632666292007187,-0.00046698789483272385,83.8506510373036,0.0
112,-0.28714747239082977,0.00809281273936895,83.81237065992183,0.0
113,-0.27800728107062755,0.016507803115082303,83.77537875705082,0.0
114,-0.2693178349394986,0.02450565736820621,83.73969805701589,0.0
115,-0.26145892639264173,0.03180517370190295,83.705351323558,0.0
116,-0.25470351701904853,0.038161849161086225,83.67236136338488,0.0
117,-0.24917596040071757,0.04341084339047023,83.64075103385458,0.0
118,-0.24484849844746145,0.047500838656874454,83.61054325079535,0.0
119,-0.24156768286042957,0.050514308036500186,83.58176099646332,0.0
120,-0.23909258439576175,0.05267177328237085,83.5544273276422,0.0
121,-0.23712511424931965,0.05431927350066096,83.52856538388743,0.0
122,-0.235320848809385,0.055899430248892525,83.50419839591865,0.0
123,-0.2332832408289609,0.057907539886655465,83.48134969416402,0.0
124,-0.23055838021643538,0.06083554535785905,83.46004271746014,0.0
125,-0.22665420132490943,0.06510881062625114,83.44030102191185,0.0
126,-0.22110230174014686,0.07102310426889892,83.42214828991607,0.0
127,-0.21356244432620505,0.07869128937445824,83.40560833935416,0.0
128,-0.2039456674206023,0.08800979135562276,83.39070513295782,0.0
129,-0.19251272775699926,0.0986530210315727,83.3774627878532,0.0
130,-0.1799014654844574,0.11009932243685934,83.36590558528876,0.0
131,-0.16705493425657264,0.12168548587126408,83.3560579805522,0.0
132,-0.1550572526781418,0.1326801685585048,83.3479446130825,0.0
133,-0.14492226528145624,0.14236187965296476,83.34159031678293,0.0
134,-0.1374037946950483,0.15008630751368407,83.33702013054123,0.0
135,-0.1328929229123182,0.15533131948138118,83.33425930896429,0.0
136,-0.13143644347455305,0.15771500614506617,83.33333333333334,1.0
137,-0.13286344249937715,0.15699037537342236,83.33333333333334,0.0
138,-0.13696383713819557,0.15302685977030378,83.33333333333334,0.0
139,-0.14364238959019737,0.14579133060037675,83.33333333333334,0.0
140,-0.15298309089612178,0.13533891228176365,83.33333333333334,0.0
141,-0.16519676755071563,0.12181752686658773,83.33333333333334,0.0
142,-0.1804730167970917,0.10548227538746083,83.33333333333334,0.0
143,-0.19879663543821374,0.08670959939455598,83.33333333333334,0.0
144,-0.21980425859602437,0.06599918841838945,83.33333333333334,0.0
145,-0.24274425866904553,0.04395474794861134,83.33333333333334,0.0
146,-0.266566786449907,0.021241966889167532,83.33333333333334,0.0
147,-0.29012293304323705,-0.001469365815241909,83.33333333333334,0.0
148,-0.31240851585814006,-0.023565482142674538,83.33333333333334,0.0
149,-0.3327658527210028,-0.044535368743080034,83.33333333333334,0.0
150,-0.3509677352143508,-0.06399213252159817,83.33333333333334,0.0
151,-0.3671511574874452,-0.08166517165830715,83.33333333333334,0.0
152,-0.3816284763438395,-0.09736907909355691,83.33333333333334,0.0
153,-0.39465453296580705,-0.11096296803389963,83.33333333333334,0.0
154,-0.40624586576736244,-0.12231679356548605,83.33333333333334,0.0
155,-0.41612375882801156,-0.13129818372146393,83.33333333333334,0.0
156,-0.4237984110039011,-0.13778543603194787,83.33333333333334,0.0
157,-0.428753043836102,-0.1417025666368107,83.33333333333334,0.0
158,-0.4306503240566317,-0.1430641015694739,83.33333333333334,0.0
159,-0.4294821880458272,-0.14201344419497092,83.33333333333334,0.0
160,-0.4256137792496039,-0.13884024146111493,83.33333333333334,0.0
161,-0.41971598141794253,-0.13396838057013888,83.33333333333334,0.0
162,-0.41261949471771797,-0.1279147921748247,83.33333333333334,0.0
163,-0.40514335326435186,-0.12122730161402655,83.33333333333334,0.0
164,-0.3979492443483345,-0.11441500568390776,83.33333333333334,0.0
165,-0.3914555491673523,-0.10788586696335228,83.33333333333334,0.0
166,-0.38582101763155274,-0.10190357745930188,83.33333333333334,0.0
167,-0.38098611288428297,-0.09657049691738234,83.33333333333334,0.0
168,-0.37674632201833697,-0.09183737450235503,83.33333333333334,0.0
169,-0.3728289758158698,-0.08753525435060819,83.33333333333334,0.0
170,-0.3689526822626627,-0.08342151096225163,83.33333333333334,0.0
171,-0.36486204146916346,-0.07923068410931047,83.33333333333334,0.0
172,-0.3603432821918895,-0.07472138722538277,83.33333333333334,0.0
173,-0.35523296681069966,-0.06971242456912063,83.33333333333334,0.0
174,-0.34942970576014915,-0.06410373847678019,83.33333333333334,0.0
175,-0.3429102543594806,-0.05788047824705678,83.33333333333334,0.0
176,-0.33574196258434286,-0.05110111139383203,83.33333333333334,0.0
177,-0.3280790920596983,-0.043872956568919666,83.33333333333334,0.0
178,-0.320134036827256,-0.036320612092287416,83.33333333333334,0.0
179,-0.3121247014069079,-0.028554143632529547,83.33333333333334,0.0
180,-0.304211374453959,-0.020644148476269428,83.33333333333334,0.0
181,-0.2964445890183636,-0.012609597433437543,83.33333333333334,0.0
182,-0.28874555962334403,-0.004421654136826013,83.33333333333334,0.0
183,-0.280931824027125,0.00397706769009009,83.33333333333334,0.0
184,-0.2727850933556419,0.012642251057346149,83.33333333333334,0.0
185,-0.2641414598191653,0.02159406286947157,83.33333333333334,0.0
186,-0.2549730610347941,0.03078839037379056,83.33333333333334,0.0
187,-0.245430755546379,0.0401006789089357,83.33333333333334,0.0
188,-0.2358304115915921,0.04932691934009911,83.33333333333334,0.0
189,-0.22658624093030605,0.05820228829508883,83.33333333333334,0.0
190,-0.21811444580791875,0.06643406819830139,83.33333333333334,0.0
191,-0.21074066129462338,0.07374283803229045,83.33333333333334,0.0
192,-0.20464090555492603,0.07990506852338203,83.33333333333334,0.0
193,-0.19983004804270035,0.0847910132989972,83.33333333333334,0.0
194,-0.1961916671076529,0.08839342218279292,83.33333333333334,0.0
195,-0.1935277510802985,0.09084417477612702,83.33333333333334,0.0
196,-0.19160225699024733,0.09241675860885581,83.33333333333334,0.0
197,-0.1901598199681955,0.09351250972453297,83.33333333333334,0.0
198,-0.18891579126392222,0.09462827401618787,83.33333333333334,0.0
199,-0.18753012486780946,0.09630363617158964,83.33333333333334,0.0
200,-0.1855897920370607,0.09904804791318077,83.33333333333334,0.0
201,-0.18262811478944413,0.10325243652876763,83.33333333333334,0.0
202,-0.1782018320334879,0.10909560883389943,83.33333333333334,0.0
203,-0.17202741136658206,0.11646142190458644,83.33333333333334,0.0
204,-0.16415103561103175,0.12488609519466656,83.33333333333334,0.0
205,-0.15510091641021,0.13355411281847895,83.33333333333334,0.0
206,-0.14595797198892843,0.14135477488921822,83.33333333333334,0.0
207,-0.1382909978148934,0.14700008035177464,83.33333333333334,0.0
208,-0.1339372302808863,0.14919055195529252,83.33333333333334,1.0
209,-0.13466024035991492,0.14680251046507914,83.33806796770554,0.0
210,-0.1417668963199013,0.1390621727465433,83.35208177257408,0.0
211,-0.155792885895551,0.12567180140069792,83.37509396141319,0.0
212,-0.17635666508270378,0.10686184045716304,83.40682906903339,0.0
213,-0.20223324185544936,0.08335873106053648,83.4470163575843,0.0
214,-0.23162766053973952,0.05627682347036293,83.49538924785145,0.0
215,-0.26256142172191566,0.026959330405904803,83.55168477414286,0.0
216,-0.29325112594340574,-0.003196965013221073,83.61564306123019,0.0
217,-0.322370981193645,-0.032898013094896206,83.68700682196862,0.0
218,-0.3491418587986573,-0.061062947361927564,83.76552087436687,0.0
219,-0.37325502814026523,-0.08687609137780802,83.85093167701864,0.0
220,-0.3946908101401979,-0.10978362232078309,83.94298688193744,0.0
221,-0.4135135458985897,-0.12945060238007713,84.04143490396049,0.0
222,-0.42971327922975017,-0.1457005233560496,84.14602450600475,0.0
223,-0.4431334968061063,-0.1584588382544641,84.25650439956952,0.0
224,-0.45348952097933054,-0.16771542253698524,84.37262285998703,0.0
225,-0.4604556073014396,-0.17351128158395532,84.49412735602294,0.0
226,-0.46378447231354836,-0.17594537395017004,84.62076419352789,0.0
227,-0.46341947734999445,-0.17519092994793325,84.75227817293361,0.0
228,-0.45956472184934594,-0.17150866877653564,84.88841226047847,0.0
229,-0.45269062673639326,-0.16524689400979908,85.0289072731338,0.0
230,-0.443470708567627,-0.15682424653962224,85.17350157728707,0.0
231,-0.4326655014186734,-0.14669772396494413,85.32193080131911,0.0
232,-0.4209863134362439,-0.13532409183432456,85.4739275622913,0.0
233,-0.40897905127187373,-0.1231252346281438,85.62922120703438,0.0
234,-0.3969633716696401,-0.11046663014059208,85.78753756800435,0.0
235,-0.3850454728262928,-0.09765355772205984,85.94859873434069,0.0
236,-0.3731987093212803,-0.0849435016469679,86.11212283863053,0.0
237,-0.3613827785529236,-0.07256762251997617,86.27782385994648,0.0
238,-0.3496578684685076,-0.06075106652179703,86.44541144378776,0.0
239,-0.3382506295400042,-0.049722328181069336,86.61459073961153,0.0
240,-0.327544846933498,-0.03970572061604137,86.78506225669658,0.0
241,-0.317996290858401,-0.03089691970324533,86.95652173913042,0.0
242,-0.30999931505966216,-0.023427521404162308,87.12866006075755,0.0
243,-0.303752169799695,-0.01732858874575297,87.30116314096645,0.0
244,-0.2991709076090692,-0.012503996590590823,87.47371188222924,0.0
245,-0.2958856913562442,-0.008721901650288105,87.64598213033611,0.0
246,-0.293322769428296,-0.0056279255345215475,87.81764465829144,0.0
247,-0.29084165257525657,-0.002778402190873455,87.98836517485292,0.0
248,-0.28787488069364614,0.0003119459069450062,88.15780435870515,0.0
249,-0.28401882512506244,0.004115246188291781,88.32561791925913,0.0
250,-0.27904946771248457,0.00903545950283123,88.49145668506084,0.0
251,-0.27287515262525686,0.01535822442930744,88.6549667207752,0.0
252,-0.26546915148755235,0.023209163269252153,88.8157894736842,0.0
253,-0.2568318893798123,0.032523963450243325,88.97356195059994,0.0
254,-0.24701217613528806,0.04303457120351137,89.12791692604543,0.0
255,-0.2361800713046363,0.05427720822598253,89.27848318249458,0.0
256,-0.2247105545279482,0.06562808372614719,89.42488578339157,0.0
257,-0.21322386439170146,0.0763702368237899,89.56674637958385,0.0
258,-0.2025413152838959,0.08578945650954628,89.70368354970682,0.0
259,-0.19354810914604414,0.09328956345028028,89.835313174946,0.0
260,-0.1869923269194112,0.0985095427833931,89.96124884848,0.0
261,-0.18327620378863257,0.10141965346440686,90.08110231976949,0.0
262,-0.18230214085186536,0.10237291677356826,90.19448397370738,0.0
263,-0.18342110456510408,0.10209338780591005,90.3010033444816,0.0
264,-0.1855026759451965,0.10159289745458801,90.40026966382581,0.0
265,-0.18711528435333016,0.10202162758495996,90.49189244314512,0.0
266,-0.18678175076113476,0.10447209013144859,90.57548208880364,0.0
267,-0.18326358836028056,0.10976769614379797,90.65065054965014,0.0
268,-0.17582615455020525,0.11827344021171066,90.71701199563795,0.0
269,-0.16444105683166116,0.12976560842496332,90.7741835261667,0.0
270,-0.1498885302856788,0.14338950019081687,90.82178590653723,0.0
271,-0.13373124979248685,0.15772002450107822,90.85944433067104,0.0
272,-0.11814610476582062,0.17092207507207824,90.88678920799993,0.0
273,-0.10562499174519742,0.18098912322962357,90.90345697218663,0.0
274,-0.0985872857038432,0.186023155356073,90.9090909090909,1.0
275,-0.09897589862250734,0.1845101828510298,90.90817955385332,0.0
276,-0.10792278383038405,0.17554515180933378,90.90548223261266,0.0
277,-0.12555893320473557,0.15896850497436069,90.90105421019919,0.0
278,-0.15100865784457415,0.13539229054857058,90.894950931944,0.0
279,-0.1825598684994959,0.10611335707132599,90.8872280029552,0.0
280,-0.2179592563185027,0.07293078448018538,90.87794116802793,0.0
281,-0.25475919735070346,0.03790041579479222,90.86714629219908,0.0
282,-0.29064679999902543,0.0030683724898201495,90.854899341956,0.0
283,-0.32370739468698917,-0.02977345625128136,90.84125636710783,0.0
284,-0.35260070137367494,-0.05927334977233642,90.8262734833272,0.0
285,-0.37664576253804,-0.08462269582708244,90.81000685536853,0.0
286,-0.395816977471854,-0.10556699911413037,90.79251268096965,0.0
287,-0.41065375389769854,-0.12233206272851566,90.77384717544068,0.0
288,-0.4220898156051525,-0.13548638835896631,90.75406655694506,0.0
289,-0.4312211608327016,-0.14577042318446917,90.73322703247595,0.0
290,-0.4390518396281566,-0.15392689793140157,90.71138478453042,0.0
291,-0.4462737695665646,-0.1605634968052862,90.68859595848375,0.0
292,-0.45313807112018417,-0.16607003900378367,90.66491665066471,0.0
293,-0.4594542758928627,-0.17059910066645945,90.64040289713283,0.0
294,-0.4647152194298858,-0.17410449220643037,90.61511066315744,0.0
295,-0.4683045299621894,-0.17641959424956855,90.58909583339798,0.0
296,-0.46971770929317547,-0.17735018201792216,90.5624142027846,0.0
297,-0.4687274306032224,-0.1767556994772569,90.53512146809761,0.0
298,-0.4654476345828232,-0.17459886975488081,90.50727322024349,0.0
299,-0.46028777222210693,-0.17095418108590432,90.47892493722529,0.0
300,-0.45382285397245237,-0.1659781020825139,90.45013197780452,0.0
301,-0.4466254576732622,-0.1598544868097032,90.42094957585162,0.0
302,-0.43910938349402373,-0.15273479380555777,90.39143283538131,0.0
303,-0.43142518794234264,-0.14469306194669707,90.36163672626905,0.0
304,-0.4234317099419812,-0.13571027959551246,90.3316160806453,0.0
305,-0.4147494746778697,-0.12569354124282905,90.30142558996258,0.0
306,-0.4048835703372133,-0.11452486154162693,90.27111980273173,0.0
307,-0.3933867293634332,-0.10212561808028822,90.24075312292268,0.0
308,-0.38002081465322685,-0.08851773818869357,90.21037980902521,0.0
309,-0.364871113849454,-0.07386324018358575,90.18005397376511,0.0
310,-0.3483766881225626,-0.05846944032041166,90.14982958447145,0.0
311,-0.33126191270422,-0.04275646651562401,90.11976046408996,0.0
312,-0.31438408475299207,-0.027194082185792435,90.08990029283817,0.0
313,-0.29853955496941414,-0.01222331762908295,90.06030261049801,0.0
314,-0.28428554953154617,0.001817343598404679,90.03102081934117,0.0
315,-0.27183043008133473,0.014742626941912501,90.00210818768328,0.0
316,-0.261022828503464,0.026535538361155755,89.97361785406265,0.0
317,-0.2514380556447383,0.03732376341487809,89.94560283204007,0.0
318,-0.24253009943307713,0.047324228058561846,89.91811601561521,0.0
319,-0.233799931672586,0.0567704577146214,89.89121018525755,0.0
320,-0.2249309304061593,0.06584113211532068,89.86493801454726,0.0
321,-0.21585802601601495,0.07460725729887142,89.83935207742468,0.0
322,-0.2067611189567244,0.08301027231792714,89.81450485604468,0.0
323,-0.19799606892849117,0.09087576851197897,89.79044874923505,0.0
324,-0.1899908357373749,0.09795933459941719,89.76723608155615,0.0
325,-0.18313713783846677,0.10401419294767306,89.74491911296165,0.0
326,-0.17770096239675956,0.10886600947579603,89.72355004905869,0.0
327,-0.17376358820440796,0.1124790361196683,89.70318105196777,0.0
328,-0.17119458055886277,0.11499940898629177,89.68386425178265,0.0
329,-0.16965354901653756,0.11676537375750203,89.66565175863037,0.0
330,-0.16861842964658114,0.118279656527473,89.648595675334,0.0
331,-0.1674410880795261,0.12014534047723377,89.63274811067848,0.0
332,-0.165431393050445,0.12297268291281382,89.61816119328388,0.0
333,-0.16196604033103476,0.12726957471460587,89.60488708608811,0.0
334,-0.15660989500604497,0.13333208187018292,89.59297800144356,0.0
335,-0.1492300154503559,0.14115305824964075,89.58248621683228,0.0
336,-0.14007993202437816,0.15036570455642773,89.57346409120541,0.0
337,-0.12983509242044922,0.16023502408400514,89.56596408195281,0.0
338,-0.11956757882042682,0.16970369105771943,89.56003876250995,0.0
339,-0.11065669540749506,0.17749068583615318,89.55574084061041,0.0
340,-0.10464088235661133,0.1822323688788407,89.55312317719259,0.0
341,-0.1030260980461619,0.1826479272461125,89.55223880597015,1.0
342,-0.10707616711472337,0.17770581253843756,89.5541175083721,0.0
343,-0.11761911946547576,0.1667660963005553,89.5596762035198,0.0
344,-0.13490587153698647,0.14967622801188937,89.56879941062617,0.0
345,-0.15855030149459248,0.12680434470085783,89.58137242413798,0.0
346,-0.1875635524102392,0.09900406982124545,89.59728122344943,0.0
347,-0.22047575790589496,0.06751597548019578,89.6164123859318,0.0
348,-0.2555225076805403,0.03382150268935343,89.63865300318454,0.0
349,-0.2908653779212646,-0.0005269020732909108,89.66389060042184,0.0
350,-0.3248144505784831,-0.03407197580451676,89.69201305891761,0.0
351,-0.35602155150980636,-0.06558809946624752,89.72290854144119,0.0
352,-0.3836135311101727,-0.0941683539365917,89.75646542062377,0.0
353,-0.40723798510464726,-0.11925269366677671,89.79257221020293,0.0
354,-0.4270052604427015,-0.14059973134458426,89.83111749910168,0.0
355,-0.44333373095834305,-0.15821576784394673,89.87198988830347,0.0
356,-0.45673580806588204,-0.17226240767743867,89.9150779304935,0.0
357,-0.46760773887381973,-0.1829664501532345,89.96027007244156,0.0
358,-0.4760923913762758,-0.19055213710532884,90.0074546001088,0.0
359,-0.4820626359677274,-0.19520731495194968,90.05651958646637,0.0
360,-0.48522825324663826,-0.19708415118720476,90.10735284201954,0.0
361,-0.4853194213664241,-0.19632500895303845,90.15984186803641,0.0
362,-0.48226812342309294,-0.19309789969489144,90.2138738124851,0.0
363,-0.47631148974833903,-0.18762525136304195,90.26933542868854,0.0
364,-0.4679773211295114,-0.18019430891749358,90.32611303670991,0.0
365,-0.457963807442629,-0.17114533657399755,90.38409248748705,0.0
366,-0.4469678536980165,-0.1608419730210749,90.44315912973673,0.0
367,-0.43553139563110327,-0.1496338197559407,90.50319777965488,0.0
368,-0.423959609977018,-0.13782298116002278,90.56409269344124,0.0
369,-0.4123298301572916,-0.12564379658688873,90.6257275426807,0.0
370,-0.400572472316601,-0.11325980933470431,90.6879853926161,0.0
371,-0.38858077221651866,-0.10077623743377347,90.75074868334997,0.0
372,-0.37630271603935617,-0.08826184286901197,90.81389921401542,0.0
373,-0.3637847309608878,-0.07577231474766122,90.87731812995742,0.0
374,-0.3511626910251219,-0.06336817933216579,90.9408859129684,0.0
375,-0.3386184182655989,-0.05112302030577631,91.00448237462298,0.0
376,-0.3263293227776468,-0.0391212142497142,91.06798665275753,0.0
377,-0.31443335331598016,-0.027447343354782786,91.13127721114122,0.0
378,-0.3030169630710091,-0.016171275603043704,91.19423184238582,0.0
379,-0.2921196011469432,-0.005333461427357959,91.25672767414056,0.0
380,-0.2817416998822478,0.005065485111433468,91.31864117861927,0.0
381,-0.2718464032874802,0.015068012624952089,91.37984818550483,0.0
382,-0.26235489192814,0.0247542868081677,91.4402238982764,0.0
383,-0.2531443103698988,0.034228579190104025,91.49964291400167,0.0
384,-0.24405983467653797,0.043599363410842945,91.55797924663577,0.0
385,-0.2349463353654103,0.052956514227937734,91.61510635386554,0.0
386,-0.22569367986869013,0.06234988483550667,91.67089716753479,0.0
387,-0.21627958158779031,0.0717735931740482,91.72522412768352,0.0
388,-0.20679114215373914,0.08115945295040308,91.77795922023017,0.0
389,-0.19741304639768262,0.09038129038956898,91.82897401832166,0.0
390,-0.1883839040162852,0.09926981871270846,91.87813972737159,0.0
391,-0.17993609497544974,0.10763585701251627,91.9253272338022,0.0
392,-0.17224192588846346,0.11529843988533249,91.97040715749961,0.0
393,-0.16538608827813325,0.12211393073369413,92.01324990798673,0.0
394,-0.15937213838563008,0.1280024250469008,92.05372574431115,0.0
395,-0.15415421894913722,0.1329680776589278,92.09170483863873,0.0
396,-0.14967225923984437,0.1371101199922622,92.12705734353706,0.0
397,-0.14586663514101558,0.14062119027871747,92.1596534629238,0.0
398,-0.14265978244523186,0.14376959116725982,92.18936352664835,0.0
399,-0.1399136668527862,0.14686296889326367,92.21605806866582,0.0
400,-0.13739303451763465,0.15019339435775425,92.23960790875356,0.0
401,-0.13477279616370796,0.15396811157711354,92.25988423771162,0.0
402,-0.1317160805646957,0.15823560936287218,92.27675870597827,0.0
403,-0.12801916298137864,0.16282158125748739,92.29010351558223,0.0
404,-0.12378239924867984,0.16729172726101876,92.2997915153427,0.0
405,-0.1195400767086361,0.17095650126218676,92.30569629921803,0.0
406,-0.11628222074361619,0.1729262375193159,92.3076923076923,1.0
407,-0.11533269999487268,0.17221463356511074,92.29700984301901,0.0
408,-0.11810019944576507,0.16787686524772188,92.26532724130408,0.0
409,-0.12576974059817161,0.1591589655692187,92.21321208485757,0.0
410,-0.13902884410677702,0.14563046519526163,92.14125714662596,0.0
411,-0.15791102221773037,0.12727422315982176,92.05007788148991,0.0
412,-0.18179469879200702,0.10451547856862255,91.94030992274831,0.0
413,-0.2095387818662699,0.07818426164944699,91.81260659916848,0.0
414,-0.23969380185363182,0.049418275209079016,91.66763648696727,0.0
415,-0.2707182440668517,0.01952414249590676,91.50608100998659,0.0
416,-0.30115310176297366,-0.010178580028160689,91.32863210016144,0.0
417,-0.3297449502897167,-0.03850477323450199,91.13598992916964,0.0
418,-0.3555338177619703,-0.06451985484532004,90.92886072091608,0.0
419,-0.377921931164291,-0.08760870166672549,90.70795465326131,0.0
420,-0.39671823842330023,-0.10749042571187165,90.47398385616789,0.0
421,-0.4121322123887452,-0.12418174495641288,90.22766051222526,0.0
422,-0.4246897157593023,-0.13792068880818437,89.96969506433571,0.0
423,-0.43506962012901024,-0.149069100127398,89.70079453421371,0.0
424,-0.4438992047985558,-0.15801537216408046,89.42166095427564,0.0
425,-0.4515752351745861,-0.16509715873877154,89.13298991448728,0.0
426,-0.4581766526542422,-0.17055753121146347,88.83546922479545,0.0
427,-0.463501196721779,-0.17453864649117562,88.5297776929049,0.0
428,-0.4672075967778124,-0.17710694152740084,88.21658401637333,0.0
429,-0.4690019796830957,-0.1782960446117206,87.89654578728884,0.0
430,-0.46879186673151535,-0.17815024026702497,87.57030860716482,0.0
431,-0.4667489590662641,-0.17675326282616,87.23850530913664,0.0
432,-0.46326270631650396,-0.1742335237192262,86.90175528407207,0.0
433,-0.45881146323262534,-0.17074533534589917,86.56066390680756,0.0
434,-0.4538081214558193,-0.16643350611316726,86.21582205839583,0.0
435,-0.4484812558971158,-0.16139354984506044,85.86780573999015,0.0
436,-0.442831338819282,-0.15564058264755395,85.5171757737939,0.0
437,-0.43666594371160733,-0.14909707766803376,85.16447758636596,0.0
438,-0.4296856198931114,-0.14160438015243199,84.81024106948938,0.0
439,-0.42157821499107845,-0.13295701027674645,84.45498051377463,0.0
440,-0.412088435605675,-0.12295378073651517,84.0991946101805,0.0
441,-0.4010533672726892,-0.1114564494644978,83.74336651468252,0.0
442,-0.3884178310428929,-0.09844517749734995,83.38796397140507,0.0
443,-0.3742517217882355,-0.08406026293270456,83.03343948964653,0.0
444,-0.35878075714256524,-0.06862124024187607,82.68023057036775,0.0
445,-0.34242077518505204,-0.05261737139865097,82.32875997787716,0.0
446,-0.32578919560013636,-0.036667754813604334,81.9794360526261,0.0
447,-0.3096674150195114,-0.02145446869222395,81.63265306122449,0.0
448,-0.29490541591312736,-0.0076376431717824,81.28879157999357,0.0
449,-0.2822845732740569,0.004234015625827682,80.94821890858908,0.0
450,-0.2723731650310026,0.013801244789249503,80.61128951045025,0.0
451,-0.26541325051736336,0.020945470731358863,80.27834547705586,0.0
452,-0.26126787656532224,0.02580215832207361,79.94971701319676,0.0
453,-0.2594407390748953,0.02873226195687649,79.62572294070212,0.0
454,-0.25916406375723955,0.030256409778795915,79.30667121828293,0.0
455,-0.2595385407018053,0.0309646371512061,78.99285947538094,0.0
456,-0.25970094352760675,0.03142019641740313,78.68457555813065,0.0
457,-0.25898803297815687,0.03207761666323838,78.38209808575846,0.0
458,-0.2570596779916816,0.03323205539490758,78.08569701595434,0.0
459,-0.25394497945037126,0.03500951499718628,77.79563421795612,0.0
460,-0.24998941252516543,0.037397316163238464,77.51216405228735,0.0
461,-0.24570994493695678,0.04030384882068192,77.23553395628389,0.0
462,-0.2415995513998597,0.04362886946002848,76.96598503473302,0.0
463,-0.23794584323560564,0.04732278641498012,76.70375265513239,0.0
464,-0.23472677920805105,0.0514165198537088,76.44906704725493,0.0
465,-0.23161845029430445,0.05601201206890431,76.20215390687927,0.0
466,-0.22810883001820623,0.06123508628633505,75.96323500371525,0.0
467,-0.22367630538625663,0.06716392900772701,75.73252879372077,0.0
468,-0.21797621334835357,0.07375477203134279,75.51025103616924,0.0
469,-0.21098356850885908,0.08078900892115326,75.29661541598992,0.0
470,-0.203056990844241,0.08786211681123303,75.09183417206334,0.0
471,-0.19490782082439462,0.09442516320783903,74.89611873231573,0.0
472,-0.1874757401046535,0.09987659160154672,74.70968035661828,0.0
473,-0.18172967395452017,0.10368851721069093,74.53273078866172,0.0
474,-0.17843177226182105,0.10554120568618622,74.36548291814468,0.0
475,-0.17791882272553722,0.10543444506773803,74.20815145478761,0.0
476,-0.17996069951946392,0.10374661847007934,74.06095361586364,0.0
477,-0.1837419108423342,0.1012212933792237,73.92410982912537,0.0
478,-0.18798080613171722,0.0988752919372717,73.79784445320485,0.0
479,-0.1911625875870273,0.09783850113393096,73.68238651777287,0.0
480,-0.19183261237437524,0.09915062327215096,73.5779704859684,0.0
481,-0.1888863287307919,0.1035504793714397,73.4848370418482,0.0
482,-0.18180134063296416,0.11129720132122493,73.40323390586623,0.0
483,-0.17077643105858567,0.12205891869067687,73.3334166816738,0.0
484,-0.1567616205320949,0.13489401986298982,73.27564973783674,0.0
485,-0.1413774910080945,0.14833457481960755,73.23020712840176,0.0
486,-0.12673201957745114,0.16056367120294443,73.19737355661111,0.0
487,-0.11515241303104791,0.16966124582401643,73.17744538646986,0.0
488,-0.10886026973089405,0.1738794949922105,73.17073170731707,1.0
489,-0.10963095533483266,0.1719017218485679,73.17659685379778,0.0
490,-0.11849019737683025,0.16303930413754789,73.19398450210804,0.0
491,-0.1355079561033133,0.14733086267086903,73.22259068284606,0.0
492,-0.15974510929747132,0.12552460543032837,73.26212095661215,0.0
493,-0.18938667900508563,0.09894645023574654,73.31228950245034,0.0
494,-0.22205564326270674,0.06927873204251309,73.37281824848402,0.0
495,-0.2552518634732323,0.038292282993336535,73.44343604096169,0.0
496,-0.28681754307404456,0.007584118408484379,73.52387784827631,0.0
497,-0.3153124680749199,-0.02162875836842776,73.61388399683891,0.0
498,-0.34020076019243994,-0.04862183791551054,73.7131994359797,0.0
499,-0.3618034346802682,-0.07316558778860037,73.82157302931904,0.0
500,-0.3810401816283337,-0.09542629208302525,73.93875687030088,0.0
501,-0.3990442501905911,-0.11579558331651965,74.06450561981406,0.0
502,-0.4167647767890588,-0.13469304025035905,74.19857586404457,0.0
503,-0.4346634536828628,-0.1523892007032001,74.34072549090712,0.0
504,-0.4525745876407403,-0.1688880869629322,74.49071308359787,0.0
505,-0.469746196612715,-0.18389156322445632,74.64829732999529,0.0
506,-0.4850318844656036,-0.19684720948037113,74.8132364468119,0.0
507,-0.4971700998591049,-0.2070621717530385,74.98528761756985,0.0
508,-0.5050739088895948,-0.21385208567272945,75.16420644363744,0.0
509,-0.5080609611677358,-0.21668924497088596,75.34974640772313,0.0
510,-0.5059765501856444,-0.215317940594464,75.54165834938044,0.0
511,-0.4991951604330372,-0.20981543514933257,75.7396899522299,0.0
512,-0.48851752280367383,-0.20059105518707193,75.94358524275592,0.0
513,-0.47500199723487396,-0.18832966471137685,76.15308410068658,0.0
514,-0.45977702553766664,-0.17389618253594624,76.3679217811127,0.0
515,-0.4438768482979032,-0.15822295542416193,76.5878284486515,0.0
516,-0.428129893891287,-0.14220138940580063,76.8125287241082,0.0
517,-0.413112418268956,-0.12659437050887662,77.04174124423646,0.0
518,-0.39916237089491713,-0.11197868524322799,77.27517823534698,0.0
519,-0.38643331594554575,-0.09871914497865648,77.51254510166149,0.0
520,-0.3749595051320865,-0.08697029940665207,77.7535400294563,0.0
521,-0.3647045925140928,-0.07669851446091083,77.99785360818798,0.0
522,-0.3555787666693394,-0.06771680096888384,78.24516846993872,0.0
523,-0.34742765038107476,-0.05972628080629347,78.49515894866475,0.0
524,-0.3400120777160454,-0.05236031590206596,78.74749076087356,0.0
525,-0.333002319128527,-0.04522894764311229,79.00182070949546,0.0
526,-0.3260016623343469,-0.03796176319284481,79.2577964128517,0.0
527,-0.31859878577281353,-0.03024667750371797,79.51505606075203,0.0
528,-0.3104355855047459,-0.021861035306567574,79.77322819987997,0.0
529,-0.30127262624952883,-0.012690798641782644,80.03193155074186,0.0
530,-0.291036889188012,-0.0027341694948047404,80.29077485856433,0.0
531,-0.2798410350847264,0.007911860732134603,80.5493567806223,0.0
532,-0.26796709708552247,0.019080106066964718,80.80726581256641,0.0
533,-0.25581202010392956,0.03057109819187076,81.06408025638831,0.0
534,-0.24380100716290334,0.0421913339623121,81.31936823271818,0.0
535,-0.23228695451103573,0.05378170013290344,81.57268774018439,0.0
536,-0.22146493977401185,0.06522757906623924,81.82358676458033,0.0
537,-0.21133272856784452,0.07644674414892232,82.07160344057546,0.0
538,-0.20171805482701638,0.08735784519807811,82.3162662686751,0.0
539,-0.1923731732883191,0.09783932142246328,82.55709439007026,0.0
540,-0.18311314188372207,0.10769374109397983,82.79359792193,0.0
541,-0.173954130028558,0.1166338073735258,83.02527835556208,0.0
542,-0.16519917869498674,0.12430244323313924,83.25162901971184,0.0
543,-0.15742707371253803,0.13033077773217241,83.47213561107252,0.0
544,-0.1513669024195563,0.13442639837552778,83.68627679384794,0.0
545,-0.14768062487818073,0.13647302727085248,83.89352486993535,0.0
546,-0.1467149512276115,0.13661531315363534,84.0933465209822,0.0
547,-0.1483050837656717,0.13530148548497942,84.28520362321568,0.0
548,-0.1517046591691116,0.1332632879543328,84.46855413554583,0.0
549,-0.15567913344717224,0.13142581673000153,84.6428530610046,0.0
550,-0.15874798425773037,0.13075656193027616,84.80755348110299,0.0
551,-0.15951514937810685,0.13207885809972814,84.9621076621691,0.0
552,-0.1570035907323899,0.13588590619051355,85.10596823217365,0.0
553,-0.15091361589961697,0.14219457337064786,85.23858942595812,0.0
554,-0.14174895801744647,0.15047234827681866,85.3594283961595,0.0
555,-0.13078771486044125,0.1596573556382195,85.46794658647757,0.0
556,-0.11990696142580534,0.16827323176856848,85.5636111632616,0.0
557,-0.11129526584013141,0.1746219324659931,85.64589650071021,0.0
558,-0.1071055285368214,0.1770222124976864,85.71428571428572,1.0
559,-0.1091109673162677,0.174052744229657,85.77538503808273,0.0
560,-0.11842730115438323,0.16475829465226838,85.8361298606859,0.0
561,-0.13535156101924534,0.1487849290716009,85.89650447201592,0.0
562,-0.1593431633006995,0.12642404219604142,85.9564930898487,0.0
563,-0.18914186953991394,0.09856208966834143,86.01607986103173,0.0
564,-0.22298916096512902,0.0665496424807755,86.07524886276306,0.0
565,-0.2589022206000496,0.03201652560801267,86.13398410393373,0.0
566,-0.2949462532312422,-0.003332994858891908,86.19226952653365,0.0
567,-0.3294593689188558,-0.0379106867917335,86.25008900712231,0.0
568,-0.36119994801593,-0.0703922323339055,86.30742635836374,0.0
569,-0.3894042754536394,-0.09980490592705057,86.36426533062723,0.0
570,-0.41375861113586765,-0.12555021936440755,86.42058961365352,0.0
571,-0.4343029560966573,-0.1473689343923336,86.47638283828726,0.0
572,-0.4512932678619514,-0.16526521277193973,86.5316285782761,0.0
573,-0.4650546827645172,-0.17941164220700828,86.58631035213665,0.0
574,-0.47585917477377065,-0.19005692535183594,86.64041162508775,0.0
575,-0.48385475905869657,-0.19745368597216936,86.69391581105147,0.0
576,-0.4890588799368481,-0.2018165490577764,86.74680627472195,0.0
577,-0.4914090094564727,-0.20331232420431433,86.7990663337024,0.0
578,-0.4908456862135593,-0.20207673224713726,86.85067926071054,0.0
579,-0.48739475071224647,-0.1982471839526973,86.90162828585258,0.0
580,-0.4812200501431375,-0.19199937267646947,86.95189659896607,0.0
581,-0.47263300048150836,-0.1835767134038245,87.00146735203145,0.0
582,-0.46206381097367455,-0.17330506411266722,87.05032366165257,0.0
583,-0.45001238066429045,-0.1615894755547325,87.09844861160643,0.0
584,-0.43699947636882425,-0.14889378864438302,87.14582525546156,0.0
585,-0.4235312158962377,-0.13570698539869913,87.19243661926559,0.0
586,-0.4100777294170479,-0.12250204270298516,87.2382657043017,0.0
587,-0.3970574866377435,-0.10969375894694958,87.2832954899136,0.0
588,-0.38481710246497275,-0.09760189027307409,87.3275089363994,0.0
589,-0.3736026035303919,-0.08642515076577159,87.37088898797359,0.0
590,-0.3635277878824609,-0.07623025392707469,87.41341857579727,0.0
591,-0.35455238353394547,-0.06695816894096415,87.45508062107615,0.0
592,-0.3464831730030614,-0.058447172630590356,87.49585803822589,0.0
593,-0.33900521621235363,-0.050469353618355244,87.53573373810474,0.0
594,-0.33174109937937635,-0.04277449210421147,87.57469063131235,0.0
595,-0.32432747202083284,-0.03513339278914713,87.61271163155507,0.0
596,-0.31649214399926984,-0.02737244987373405,87.64977965907642,0.0
597,-0.3081125651000604,-0.019392845093430127,87.68587764415264,0.0
598,-0.2992384715751655,-0.011171206563742923,87.72098853065243,0.0
599,-0.2900688477722048,-0.0027431091610187475,87.75509527966007,0.0
600,-0.2808857846014795,0.005824662034399998,87.78818087316137,0.0
601,-0.27196231261689924,0.014463954870825704,87.82022831779135,0.0
602,-0.26347257369585037,0.023127302013674897,87.85122064864309,0.0
603,-0.2554354319628652,0.031794465297832,87.88114093313644,0.0
604,-0.2477140628821599,0.04046053937936655,87.9099722749456,0.0
605,-0.24007579975175938,0.04910886115997053,87.93769781798498,0.0
606,-0.23229457939972392,0.057677769737838086,87.96430075045154,0.0
607,-0.22426119559985322,0.06603383534500698,87.98976430892277,0.0
608,-0.2160615476520577,0.07396419136580827,88.01407178250912,0.0
609,-0.2079926061997287,0.08119668772444591,88.03720651705933,0.0
610,-0.20050608514266124,0.08744949235736718,88.05915191941742,0.0
611,-0.19409273982530492,0.09250321250458779,88.07989146172983,0.0
612,-0.18913764581296633,0.09628080322874479,88.09940868580141,0.0
613,-0.18578407279151168,0.09891560393790756,88.11768720749825,0.0
614,-0.1838405391053816,0.10078728916921853,88.13471072119627,0.0
615,-0.1827553686042114,0.10250983767324046,88.15046300427339,0.0
616,-0.18166942883703507,0.10486420924950411,88.16492792164392,0.0
617,-0.17954359589719218,0.10867969479203116,88.17808943033302,0.0
618,-0.17534435094922068,0.11467964048635727,88.18993158408956,0.0
619,-0.16825956210780002,0.12331698537192297,88.20043853803558,0.0
620,-0.1579080670889661,0.13463057610919696,88.20959455334972,0.0
621,-0.1445029491328261,0.14815299507810667,88.21738400198348,0.0
622,-0.12893124366335265,0.16289414368097824,88.22379137140734,0.0
623,-0.11272312243876005,0.17741276646264734,88.22880126938523,0.0
624,-0.09790070424929957,0.18997239383254008,88.23239842877449,0.0
625,-0.08671829710310189,0.19876168581172685,88.23456771234962,0.0
626,-0.08132865573189116,0.20214520937379607,88.23529411764706,1.0
627,-0.08342959456403606,0.19890242218097848,88.23529411764706,0.0
628,-0.09395751916276793,0.18841230527017538,88.23529411764706,0.0
629,-0.112894536973305,0.17074940112042358,88.23529411764706,0.0
630,-0.13924007120950269,0.14667280976029065,88.23529411764706,0.0
631,-0.17116586067309397,0.11750999543476413,88.23529411764706,0.0
632,-0.20633037037068327,0.08495779641094367,88.23529411764706,0.0
633,-0.2422866583961772,0.05083920256086069,88.23529411764706,0.0
634,-0.27689066229358755,0.016862458190526675,88.23529411764706,0.0
635,-0.3086148924798702,-0.015573117747413143,88.23529411764706,0.0
636,-0.3366975353390247,-0.04549206294696784,88.23529411764706,0.0
637,-0.3611018699132929,-0.072364611957743,88.23529411764706,0.0
638,-0.3823122385439775,-0.09604255430941769,88.23529411764706,0.0
639,-0.4010351235091559,-0.11663437226046033,88.23529411764706,0.0
640,-0.4178945392250399,-0.13435605613293178,88.23529411764706,0.0
641,-0.43320441131852194,-0.14939583079789875,88.23529411764706,0.0
642,-0.44687055103871715,-0.16182373123903301,88.23529411764706,0.0
643,-0.45843274442440984,-0.17156298034569545,88.23529411764706,0.0
644,-0.4672179402551773,-0.17842337075023362,88.23529411764706,0.0
645,-0.47255025547403134,-0.1821816061833298,88.23529411764706,0.0
646,-0.47395726076676487,-0.18268331823675882,88.23529411764706,0.0
647,-0.4713221945208634,-0.17993817752052169,88.23529411764706,0.0
648,-0.4649515539850401,-0.17418323560046853,88.23529411764706,0.0
649,-0.4555498736782307,-0.16589877964229421,88.23529411764706,0.0
650,-0.44411360234717134,-0.1557728928664157,88.23529411764706,0.0
651,-0.4317712789326721,-0.14462260699857235,88.23529411764706,0.0
652,-0.41960612394303276,-0.13328842774721114,88.23529411764706,0.0
653,-0.40849832513620393,-0.12252346960994775,88.23529411764706,0.0
654,-0.3990170684266231,-0.11289800195026226,88.23529411764706,0.0
655,-0.39137818586064,-0.10473557336028769,88.23529411764706,0.0
656,-0.3854662406935607,-0.09808956284443004,88.23529411764706,0.0
657,-0.3809053784175694,-0.09276088100774932,88.23529411764706,0.0
658,-0.37715558139255295,-0.08835035808619252,88.23529411764706,0.0
659,-0.37361120871472375,-0.08433434223429966,88.23529411764706,0.0
660,-0.36968502264883096,-0.08014973014981154,88.23529411764706,0.0
661,-0.3648700210520635,-0.07527494271864145,88.23529411764706,0.0
662,-0.3587799676630647,-0.06929566444710812,88.23529411764706,0.0
663,-0.35117457127902457,-0.06194772666309568,88.23529411764706,0.0
664,-0.3419747981390826,-0.053133621026612954,88.23529411764706,0.0
665,-0.3312682616299772,-0.042913241724792474,88.23529411764706,0.0
666,-0.3192979661132433,-0.031473187024422,88.23529411764706,0.0
667,-0.30642570809350245,-0.0190819740927282,88.23529411764706,0.0
668,-0.2930678842933538,-0.006040468206213366,88.23529411764706,0.0
669,-0.27961463020575417,0.007362702063422523,88.23529411764706,0.0
670,-0.26635603187809836,0.020882281105954185,88.23529411764706,0.0
671,-0.253442855990677,0.03432869930764454,88.23529411764706,0.0
672,-0.24089894681017954,0.04756059194073514,88.23529411764706,0.0
673,-0.22868132485249054,0.0604613535425184,88.23529411764706,0.0
674,-0.21676277541947406,0.07290759624386545,88.23529411764706,0.0
675,-0.20520235410754056,0.08473961562167276,88.23529411764706,0.0
676,-0.19417701426759476,0.09574381425726347,88.23529411764706,0.0
677,-0.18396717819068992,0.1056545329704104,88.23529411764706,0.0
678,-0.17490853574503942,0.11417849250191942,88.23529411764706,0.0
679,-0.1673313707259328,0.12103996591645128,88.23529411764706,0.0
680,-0.16150487310119194,0.12603982756005286,88.23529411764706,0.0
681,-0.15759262296935653,0.12911755595387242,88.23529411764706,0.0
682,-0.15561537191388491,0.13040273224464555,88.23529411764706,0.0
683,-0.1554151221691834,0.13024209291538982,88.23529411764706,0.0
684,-0.15662196273356926,0.12919021172121206,88.23529411764706,0.0
685,-0.1586380076016739,0.12795667473623418,88.23529411764706,0.0
686,-0.1606628386796936,0.12731003705014168,88.23529411764706,0.0
687,-0.1617837216930252,0.1279480921145685,88.23529411764706,0.0
688,-0.1611378977901125,0.13035341650600568,88.23529411764706,0.0
689,-0.15812740026228753,0.13466050150083442,88.23529411764706,0.0
690,-0.15263933551736053,0.14056364185067521,88.23529411764706,0.0
691,-0.14520807947487527,0.147291326538382,88.23529411764706,0.0
692,-0.13705829022050878,0.15366272484388804,88.23529411764706,0.0
693,-0.12999051139661222,0.1582263491492438,88.23529411764706,0.0
694,-0.1261096908792142,0.159463217122137,88.23529411764706,1.0
695,-0.12744161378760457,0.15602105504209246,88.23106751526822,0.0
696,-0.13552036377732296,0.14693652917334493,88.21854378068527,0.0
697,-0.15104833160466807,0.13180219294805665,88.19796033619454,0.0
698,-0.1737198295211697,0.11084459474190936,88.16955867352563,0.0
699,-0.20225976599133053,0.08489794651862394,88.13358392450482,0.0
700,-0.23467074269171026,0.055279737969609,88.09028444027577,0.0
701,-0.2686239227613388,0.02359528353067402,88.03991138014304,0.0
702,-0.30189047297292043,-0.008487742976199392,87.98271831101714,0.0
703,-0.3327038555729839,-0.039449631625583126,87.91896081835293,0.0
704,-0.35996977715821493,-0.06807527375454654,87.84889612938545,0.0
705,-0.38328981419350433,-0.09353377771446222,87.77278274938094,0.0
706,-0.40281935281694925,-0.115377241207307,87.69088011153596,0.0
707,-0.41902312388646434,-0.13347349171016035,87.60344824107364,0.0
708,-0.43241088052698634,-0.1479007528042989,87.51074743400513,0.0
709,-0.4433292032876315,-0.15883703969364876,87.41303795094575,0.0
710,-0.451858705083927,-0.16647322494248168,87.3105797262994,0.0
711,-0.457829478427465,-0.17096803715820505,87.203632093053,0.0
712,-0.4609328309135882,-0.1724492226133896,87.09245352335309,0.0
713,-0.4608834514818545,-0.17105166713311376,86.97730138497211,0.0
714,-0.4575782500374759,-0.16697380362959963,86.85843171371052,0.0
715,-0.45120609133141365,-0.16053008850935974,86.73609900172349,0.0
716,-0.4422816357777353,-0.15217996422628433,86.6105560017076,0.0
717,-0.4315992308084228,-0.14252121802794265,86.4820535468347,0.0
718,-0.4201226140180388,-0.1322456506307991,86.35084038627423,0.0
719,-0.40883899968116194,-0.12206481570383454,86.21716303610552,0.0
720,-0.39861054015183334,-0.11262097240836222,86.08126564538432,0.0
721,-0.39005277471351546,-0.10440184093048627,85.94338987709607,0.0
722,-0.38346051060504643,-0.09767684603725452,85.80377480369914,0.0
723,-0.37878969448730326,-0.0924678426876056,85.66265681693713,0.0
724,-0.37569262964669303,-0.08856012734740584,85.52026955157841,0.0
725,-0.37359593907337224,-0.08555149178635196,85.37684382272333,0.0
726,-0.3718067070757654,-0.0829298099474022,85.23260757630658,0.0
727,-0.36963107855997196,-0.08016450578049306,85.08778585241069,0.0
728,-0.3664892125699163,-0.07679509249113181,84.94260076100036,0.0
729,-0.36200967716206855,-0.07250109085691578,84.7972714696821,0.0
730,-0.3560860820951158,-0.06714172681408968,84.65201420309263,0.0
731,-0.348881791549866,-0.060760036916071285,84.50704225352113,0.0
732,-0.3407775322881183,-0.053553117438717684,84.36256600237277,0.0
733,-0.3322712464687364,-0.04581677703146233,84.21879295208875,0.0
734,-0.3238549802908436,-0.037877424252225914,84.07592776814455,0.0
735,-0.3159026274164634,-0.0300256906177999,83.93417233076003,0.0
736,-0.30859923525840827,-0.022464788994456433,83.79372579596568,0.0
737,-0.3019274854942978,-0.01528243921748098,83.65478466568419,0.0
738,-0.2957066858027987,-0.008449492482756019,83.51754286650186,0.0
739,-0.28966368885278887,-0.0018425846561032702,83.38219183682092,0.0
740,-0.2835099803822792,0.004716439062662406,83.24892062210296,0.0
741,-0.27700468327693756,0.011414102385471393,83.11791597793281,0.0
742,-0.2699941474917294,0.01840185547061661,82.98936248065336,0.0
743,-0.26242874765720453,0.025763792769555233,82.86344264534394,0.0
744,-0.25436251793707065,0.03350059696289318,82.7403370509377,0.0
745,-0.245940942206876,0.0415311361914838,82.62022447229762,0.0
746,-0.23737900500158213,0.049709705443677074,82.50328201909598,0.0
747,-0.2289290493185915,0.05785422533925412,82.38968528136756,0.0
748,-0.2208388768447704,0.06577915752178803,82.27960848163451,0.0
749,-0.2133051451347942,0.07332664380036415,82.1732246335275,0.0
750,-0.20643259759705226,0.08039041009869423,82.07070570685724,0.0
751,-0.20021158509012402,0.08692906006394653,81.97222279911954,0.0
752,-0.19452204379446278,0.09296804993019045,81.87794631344761,0.0
753,-0.18916311377595507,0.09859223862863364,81.78804614305682,0.0
754,-0.1838987415497702,0.10393275149892461,81.70269186225941,0.0
755,-0.1785053744620419,0.10915243559224214,81.62205292416044,0.0
756,-0.17280924677387408,0.11443320892510137,81.54629886518102,0.0
757,-0.16670552425665539,0.11996635351514087,81.47559951659065,0.0
758,-0.16015695361177507,0.1259439488633508,81.41012522326858,0.0
759,-0.15317469126141395,0.1325471606081705,81.35004706995235,0.0
760,-0.14578921218914756,0.13992600982072229,81.2955371152734,0.0
761,-0.1380245698426758,0.14816632326785045,81.24676863392143,0.0
762,-0.12989270323905958,0.15724303786234312,81.20391636732457,0.0
763,-0.12142267364586903,0.16696440298490745,81.1671567832789,0.0
764,-0.11273054499301191,0.1769176325480915,81.13666834501144,0.0
765,-0.1041201183926845,0.1864313909877588,81.11263179021175,0.0
766,-0.0961872788577014,0.1945722246927415,81.09523042062425,0.0
767,-0.08988773259027591,0.20018921865056546,81.08465040285131,0.0
768,-0.08652577447261625,0.2020133716003723,81.08108108108108,1.0
769,-0.08763446605160317,0.1988064792673696,81.0861561471681,0.0
770,-0.09474486177611709,0.18954115382684456,81.10118104641484,0.0
771,-0.10907777835179311,0.17358239085198865,81.12586048924175,0.0
772,-0.13122524520423615,0.1508352862885558,81.15990549248689,0.0
773,-0.1609074304996821,0.1218255692609657,81.2030326908064,0.0
774,-0.19688450177411165,0.08769010294669694,81.25496367796707,0.0
775,-0.23706914446523855,0.050071623560481546,81.31542437584604,0.0
776,-0.2788320219277115,0.010931869726879297,81.384144429168,0.0
777,-0.3194355443286242,-0.02768507616596841,81.46085662421031,0.0
778,-0.35649025179373345,-0.0638966320435833,81.54529632989275,0.0
779,-0.3883181922142404,-0.0961891989963313,81.6372009598437,0.0
780,-0.4141340448410687,-0.12355489326089777,81.73630945419717,0.0
781,-0.43400981074893213,-0.1455398358558345,81.84236178003094,0.0
782,-0.4486544067143599,-0.1622059251690932,81.95509844950108,0.0
783,-0.45909289911528006,-0.17402529867292788,82.07426005486754,0.0
784,-0.4663527888516837,-0.1817373710757625,82.19958681973728,0.0
785,-0.4712491360651354,-0.1862004031775387,82.3308181659786,0.0
786,-0.47431326222948084,-0.18826370838702475,82.46769229588084,0.0
787,-0.47585064405970817,-0.18867578745602795,82.60994578925161,0.0
788,-0.47606667933134394,-0.18803188976291874,82.75731321525575,0.0
789,-0.4751827513575887,-0.18675532049386545,82.90952675890966,0.0
790,-0.4734837172354251,-0.18510227607537882,83.06631586225093,0.0
791,-0.4712801522262205,-0.18318011192254832,83.22740688030534,0.0
792,-0.4688133967190734,-0.18097208908410825,83.39252275207367,0.0
793,-0.4661583870060943,-0.17836545745028437,83.56138268685766,0.0
794,-0.4631779747340518,-0.1751822267622229,83.73370186633866,0.0
795,-0.45955612174571875,-0.1712122957739648,83.90919116291438,0.0
796,-0.4548999059464132,-0.16624719358672804,84.08755687488694,0.0
797,-0.44886915621784856,-0.16011084381939347,84.26850047918195,0.0
798,-0.4412811610559331,-0.15268290660897682,84.45171840235955,0.0
799,-0.43215045949566344,-0.14391118376677614,84.63690181075744,0.0
800,-0.4216537423374279,-0.13381211127325957,84.82373642068048,0.0
801,-0.41004299104033265,-0.12246149306531467,85.01190232962117,0.0
802,-0.39755050283694787,-0.10998002061307002,85.20107386956116,0.0
803,-0.3843282768567764,-0.09651877634062958,85.39091948346334,0.0
804,-0.37044349796966225,-0.0822486237666546,85.58110162611766,0.0
805,-0.35592345010209664,-0.06735478309380574,85.77127669055152,0.0
806,-0.34082183941176303,-0.05203514525863966,85.96109496125415,0.0
807,-0.32527350072841676,-0.036499150021907165,86.15020059549677,0.0
808,-0.3095150788985894,-0.020964006118675764,86.33823163405157,0.0
809,-0.29386668420318474,-0.005646586045091877,86.52482004262619,0.0
810,-0.2786836798116136,0.009248254676911295,86.70959178533123,0.0
811,-0.2642941211842776,0.023539980696963253,86.89216693148893,0.0
812,-0.250938151457886,0.03708135441433412,87.0721597970691,0.0
813,-0.23872517807057778,0.04976089940454967,87.24917912200223,0.0
814,-0.22762359234534915,0.061498064881741143,87.42282828457034,0.0
815,-0.21749226885646805,0.07223358198060854,87.5927055540112,0.0
816,-0.20814969024353036,0.08192042230319459,87.75840438239086,0.0
817,-0.19945826635976668,0.0905220350802661,87.91951373670234,0.0
818,-0.19138800614726942,0.0980232586709897,88.07561847203387,0.0
819,-0.18402534988479935,0.10445539969250735,88.22629974651863,0.0
820,-0.17751253568574504,0.10993136482906164,88.37113547862762,0.0
821,-0.17193299064883918,0.11468113899603494,88.50970084719913,0.0
822,-0.16718510094571012,0.11907433034772166,88.64156883441153,0.0
823,-0.16289744087986252,0.1236165268864737,88.7663108117022,0.0
824,-0.15842756858162102,0.1289103818316508,88.8834971684109,0.0
825,-0.15295804881518177,0.1355799221076118,88.99269798268759,0.0
826,-0.1456692480632963,0.14416570876246043,89.0934837339462,0.0
827,-0.13594252689700126,0.15500679160547018,89.18542605587494,0.0
828,-0.12353946894975161,0.16813071735645366,89.26809852872547,0.0
829,-0.10871428135343149,0.18317381682825815,89.34107750930514,0.0
830,-0.09224051379530995,0.19935037673098782,89.40394299678576,0.0
831,-0.07535784093958657,0.21548190129013542,89.45627953212298,0.0
832,-0.05965902877315619,0.23008798396772215,89.49767712855655,0.0
833,-0.04693757406109493,0.24153009391123473,89.52773223033186,0.0
834,-0.03900827261650662,0.24819050628898015,89.54604869645543,0.0
835,-0.03750704736197618,0.24866207930889667,89.55223880597015,1.0
836,-0.043681333886373255,0.24192167975702664,89.5490870414644,0.0
837,-0.05819765933509591,0.22746145114588195,89.53975254781633,0.0
838,-0.08100844437236032,0.20535790723008035,89.52441833324029,0.0
839,-0.11132173190793924,0.17626835852135003,89.50326961975033,0.0
840,-0.14769773369030845,0.14135591867690378,89.47649360090234,0.0
841,-0.1882594496984026,0.10215606896622698,89.44427920535236,0.0
842,-0.23096705737842008,0.060407036100474334,89.40681686666841,0.0
843,-0.2738857676001935,0.017871066316464956,89.36429829979598,0.0
844,-0.31538450984692873,-0.02382686882532689,89.31691628453879,0.0
845,-0.35423373082686954,-0.06332188610601935,89.26486445637958,0.0
846,-0.38960862304780736,-0.0995812777106373,89.20833710492906,0.0
847,-0.42103113985169016,-0.13192350273667447,89.14752898025526,0.0
848,-0.44829028157666145,-0.1599905210858035,89.0826351073109,0.0
849,-0.47136782596090215,-0.18368616610301752,89.01385060864261,0.0
850,-0.49037743605008616,-0.20309637862699964,88.94137053553327,0.0
851,-0.505511633573407,-0.21840730462501298,88.86538970769796,0.0
852,-0.5169899599371497,-0.22983511340880805,88.786102561624,0.0
853,-0.5250100263323098,-0.2375776490698573,88.70370300761739,0.0
854,-0.5297122510887466,-0.2417933272635271,88.61838429559154,0.0
855,-0.5311709637658646,-0.24260758289703294,88.53033888960873,0.0
856,-0.5294177290086012,-0.2401422059147615,88.43975835116193,0.0
857,-0.5244920679283556,-0.23455868241757505,88.34683323116205,0.0
858,-0.5165064806208114,-0.22610384386032775,88.25175297057636,0.0
859,-0.5057094952841138,-0.21514530616893615,88.15470580964514,0.0
860,-0.4925308866759461,-0.2021857068639718,88.05587870558637,0.0
861,-0.4775949339651862,-0.18784858781441072,87.95545725868459,0.0
862,-0.4616908179249261,-0.17283441471607697,87.85362564664462,0.0
863,-0.44569622063879955,-0.1578516994018495,87.75056656708098,0.0
864,-0.4304617958750026,-0.1435341960261826,87.64646118800201,0.0
865,-0.41667756676581397,-0.13035929919196534,87.54148910614016,0.0
866,-0.4047518823279055,-0.11858395891445508,87.43582831297155,0.0
867,-0.3947344898399528,-0.108212104137899,87.329655168263,0.0
868,-0.3863064206772029,-0.09900199188970413,87.22314438097983,0.0
869,-0.3788435808369714,-0.0905141468100118,87.11646899738452,0.0
870,-0.37154302422103647,-0.08219230228728035,87.0098003961551,0.0
871,-0.3635855401100073,-0.0734628820439193,86.90330829035076,0.0
872,-0.35429894761984443,-0.06383468176842272,86.79716073605319,0.0
873,-0.3432856610677346,-0.05298044434433315,86.69152414751414,0.0
874,-0.3304864350710488,-0.04078595066010406,86.58656331864154,0.0
875,-0.3161682270172988,-0.027359115120154827,86.48244145066153,0.0
876,-0.300843755511765,-0.012999743046744353,86.37932018579711,0.0
877,-0.2851478087855796,0.0018618044392417488,86.27735964681125,0.0
878,-0.26970511221200066,0.016743411367967212,86.17671848226732,0.0
879,-0.2550233066178895,0.031191644458289126,86.07755391736832,0.0
880,-0.24143269012988355,0.044849099802142425,85.98002181024384,0.0
881,-0.22907632466074704,0.057497692876523274,85.88427671356243,0.0
882,-0.21793744249424626,0.06907222765645542,85.79047194135747,0.0
883,-0.20788319573491093,0.0796442169731553,85.69875964096381,0.0
884,-0.19870757672904515,0.08938093582977087,85.6092908699744,0.0
885,-0.1901678673377444,0.09848850357927924,85.522215678137,0.0
886,-0.18201971937170391,0.1071501784796732,85.43768319412375,0.0
887,-0.17405857790332135,0.11547193307039724,85.35584171711884,0.0
888,-0.166168336862781,0.12344666890219766,85.27683881318335,0.0
889,-0.1583669081134469,0.13094597553009169,85.20082141636993,0.0
890,-0.15083029994340308,0.13774406054729052,85.12793593457505,0.0
891,-0.14387718552260687,0.14357258560217262,85.05832836013145,0.0
892,-0.13790550970827611,0.14819833270754298,84.99214438515986,0.0
893,-0.13328780094678036,0.15150911156939456,84.9295295217148,0.0
894,-0.1302467002794313,0.1535886603347925,84.8706292267774,0.0
895,-0.12874155900038003,0.15476002456206986,84.81558903216553,0.0
896,-0.1283982784876857,0.1555800847767794,84.76455467945051,0.0
897,-0.1285084782870677,0.156775727885365,84.71767225998886,0.0
898,-0.12811284187677968,0.15912369635003465,84.67508836019867,0.0
899,-0.12616893382787717,0.1632893765962945,84.63695021223026,0.0
900,-0.12178645146806726,0.16965187249970093,84.60340585020442,0.0
901,-0.11449325296995626,0.17815056207166852,84.57460427221346,0.0
902,-0.1044763955874955,0.18818934268523946,84.55069560830631,0.0
903,-0.09273041248349467,0.1986275691253099,84.53183129470294,0.0
904,-0.08104921700917331,0.20787177787024022,84.5181642545122,0.0
905,-0.07182533554102927,0.21406225124647912,84.50984908525446,0.0
906,-0.06766956612037485,0.21532761968959957,84.50704225352113,1.0
907,-0.07092292190082398,0.2100641210128664,84.50726536503096,0.0
908,-0.08317888645503013,0.1971883310595648,84.50793585420166,0.0
909,-0.10494532253736218,0.1763156634247712,84.5090554637351,0.0
910,-0.13554105636624642,0.1478313117706897,84.51062595080101,0.0
911,-0.17325111167935847,0.11284221272921742,84.51264908722314,0.0
912,-0.21568407796177877,0.07302261340710411,84.51512665966742,0.0
913,-0.2602185543207002,0.030386045799474584,84.51806046983188,0.0
914,-0.30441506669110646,-0.01297167387652784,84.52145233463878,0.0
915,-0.3463042653252097,-0.0551124779939863,84.52530408642858,0.0
916,-0.3845194718623192,-0.09444154111941991,84.52961757315605,0.0
917,-0.41829298123688435,-0.12981563005931387,84.5343946585883,0.0
918,-0.44736203619182957,-0.1605690435227369,84.53963722250518,0.0
919,-0.47183100428615915,-0.1864675248433108,84.54534716090153,0.0
920,-0.4920233442021535,-0.20761156787491836,84.5515263861918,0.0
921,-0.5083445537460252,-0.22431559470205092,84.55817682741687,0.0
922,-0.521171590906256,-0.23698869654508067,84.56530043045305,0.0
923,-0.5307820127295815,-0.246037248648907,84.57289915822341,0.0
924,-0.5373307904995358,-0.25180161651987587,84.58097499091141,0.0
925,-0.5408720517892112,-0.2545303960545344,84.58952992617695,0.0
926,-0.5414109614192992,-0.25438795499767086,84.59856597937484,0.0
927,-0.538964291615094,-0.25148570468864967,84.60808518377557,0.0
928,-0.5336103950983425,-0.24592506738941985,84.61808959078877,0.0
929,-0.5255179634593787,-0.23784036593840355,84.62858127018903,0.0
930,-0.5149525642475948,-0.22743217990072082,84.63956231034435,0.0
931,-0.5022661945481628,-0.2149851661534278,84.65103481844733,0.0
932,-0.48787713642164743,-0.20086804095573996,84.66300092074873,0.0
933,-0.4722466235175816,-0.18551670592260025,84.67546276279406,0.0
934,-0.4558564181540151,-0.16940402395096738,84.6884225096626,0.0
935,-0.4391877690618624,-0.15300143251510878,84.70188234620949,0.0
936,-0.42269838351764155,-0.13673848353667012,84.71584447731048,0.0
937,-0.40679249223993713,-0.1209665873134704,84.73031112810959,0.0
938,-0.39178228829114753,-0.10593269428707552,84.74528454426985,0.0
939,-0.37784671492810995,-0.09176728070318396,84.76076699222673,0.0
940,-0.36500169050083847,-0.07848875989128218,84.77676075944494,0.0
941,-0.3530986442216534,-0.06602346952695606,84.79326815467803,0.0
942,-0.34186215889273175,-0.054237157146602065,84.81029150823134,0.0
943,-0.33096390391902064,-0.04297117422901127,84.82783317222803,0.0
944,-0.3201145741694319,-0.03207527448757365,84.84589552087822,0.0
945,-0.3091451756280267,-0.021429660088898787,84.86448095075178,0.0
946,-0.29804860324692434,-0.010951849890048757,84.88359188105414,0.0
947,-0.2869631764617541,-0.0005884453022292971,84.9032307539056,0.0
948,-0.27609905198462176,0.009703326044229063,84.92340003462427,0.0
949,-0.2656305765169349,0.019975873588311432,84.94410221201215,0.0
950,-0.2555947504064745,0.030303973328395323,84.96533979864529,0.0
951,-0.24583968161023134,0.040782879476351945,84.98711533116715,0.0
952,-0.23605222706535928,0.05150966290264329,85.00943137058589,0.0
953,-0.22586374237784357,0.06255169509602942,85.03229050257548,0.0
954,-0.21499877136007528,0.07391134947453651,85.05569533778038,0.0
955,-0.20340955942905992,0.08549835874363128,85.0796485121244,0.0
956,-0.19134082036497557,0.09711990896575766,85.10415268712329,0.0
957,-0.1792943800835736,0.10849386038359027,85.12921055020158,0.0
958,-0.1679014509688206,0.1192840750522034,85.15482481501327,0.0
959,-0.1577458550588068,0.12915092860085176,85.18099822176697,0.0
960,-0.1492009382259306,0.1378066548956603,85.2077335375549,0.0
961,-0.1423385825740262,0.14506514225816838,85.2350335566866,0.0
962,-0.13694095320291186,0.15087868965130888,85.26290110102678,0.0
963,-0.1326037348972347,0.15535839214216837,85.29133902033769,0.0
964,-0.12888058571132385,0.15877819065294124,85.320350192626,0.0
965,-0.12540090850814611,0.16156367741740027,85.34993752449427,0.0
966,-0.12190751810063208,0.1642652982460735,85.38010395149726,0.0
967,-0.11820290343752687,0.1675129464583802,85.41085243850283,0.0
968,-0.11404333693131895,0.171947399191038,85.44218598005776,0.0
969,-0.10905403792026684,0.17812583243212574,85.47410760075851,0.0
970,-0.10273784123010463,0.1864047686237605,85.506620355627,0.0
971,-0.09461256121217292,0.19681330269854916,85.5397273304916,0.0
972,-0.08445405339926079,0.20893945651331342,85.57343164237298,0.0
973,-0.0725683286341253,0.22185914344939736,85.60773643987577,0.0
974,-0.059990510651364175,0.2341369776577893,85.64264490358507,0.0
975,-0.048522095013629155,0.24391928679206148,85.67816024646889,0.0
976,-0.04056506934868752,0.24912301975551107,85.71428571428572,1.0
977,-0.0387726597681676,0.2477031700213609,85.7902791015214,0.0
978,-0.045588629864926296,0.2379609237605767,85.94339100627732,0.0
979,-0.06277403973406935,0.21884032967693756,86.17089087762902,0.0
980,-0.09101903463400168,0.1901570303650467,86.47037666384963,0.0
981,-0.12971568237714012,0.1527103686869109,86.83972841654332,0.0
982,-0.17693774219720385,0.10824909378188008,87.27706643843675,0.0
983,-0.22964153326333564,0.05928744474512601,87.78071298752864,0.0
984,-0.28406870415828683,0.008797210341948816,88.34915669406445,0.0
985,-0.33629454186333896,-0.04017369562845918,88.98101896116819,0.0
986,-0.3828279488389853,-0.0848901488822966,89.67502171155238,0.0
987,-0.42114323615618643,-0.12325803349760495,90.42995591685353,0.0
988,-0.4500245216135945,-0.15403559092353103,91.24465040718063,0.0
989,-0.4696394282427501,-0.17689560386937125,92.11794051012497,0.0
990,-0.48132481020711926,-0.19233661230065,93.04863611402837,0.0
991,-0.4871442352426201,-0.20147146966194918,94.0354887927255,0.0
992,-0.48933888688834537,-0.20574429742016279,95.07715767111297,0.0
993,-0.48981832763588706,-0.20663717973641813,96.17217375555097,0.0
994,-0.48981642768466827,-0.2054239109064508,97.3189025031188,0.0
995,-0.4897791184453272,-0.20301163250177567,98.51550446204654,0.0
996,-0.4894766788407646,-0.19988721894712863,99.75989388526978,0.0
997,-0.48827057780494987,-0.19616029656658876,101.04969530313278,0.0
998,-0.4854330263705759,-0.1916749914166642,102.38219814295928,0.0
999,-0.48042149023976644,-0.18615208918651038,103.75430960561565,0.0
1000,-0.4730418867307017,-0.17932352738429372,105.16250615514913,0.0
1001,-0.46347769062354466,-0.17103037156838763,106.60278414943788,0.0
1002,-0.45220312012982217,-0.1612698975252816,108.0706103390445,0.0
1003,-0.4398270058278616,-0.15019255915258206,109.56087318834602,0.0
1004,-0.42692505740544695,-0.13806147233257762,111.06783622593481,0.0
1005,-0.4139119428995036,-0.12519315668254027,112.58509490621901,0.0
1006,-0.4009849588344207,-0.111898211063497,114.10553875394075,0.0
1007,-0.38814508132961645,-0.09843571768034451,115.62132085697156,0.0
1008,-0.37527664726372284,-0.0849879573027953,117.12383705474579,0.0
1009,-0.362250450523938,-0.07165516283919449,118.60371741957135,0.0
1010,-0.34901088236061056,-0.058465570794514185,120.05083282018084,0.0
1011,-0.3356168910754451,-0.04539476582724028,121.4543194607675,0.0
1012,-0.32222602715060467,-0.03238974619635348,122.80262427003699,0.0
1013,-0.3090339762579927,-0.01939578411011924,124.08357383714174,0.0
1014,-0.29620032715599687,-0.0063862171696511955,125.28446921924115,0.0
1015,-0.28379790868263566,0.006604582361695352,126.39220834814272,0.0
1016,-0.27181503475546503,0.019447026156380907,127.39343692001769,0.0
1017,-0.26021963618082117,0.03188660669259945,128.27472755682808,0.0
1018,-0.2490680469525902,0.04352787689142433,129.0227856961066,0.0
1019,-0.23861825517607071,0.05384262862237997,129.6246791383156,0.0
1020,-0.2293969719058632,0.062210433335294454,130.06808652861287,0.0
1021,-0.22217802123010058,0.06799342692908865,130.34155837250586,0.0
1022,-0.21785598707253248,0.0706382248350284,130.43478260869566,1.0
1023,-0.21723578998442533,0.06978858704110097,130.388911371319,0.0
1024,-0.22079270254353575,0.06538587000783233,130.25284185729677,0.0
1025,-0.22847504312245864,0.057732892962125366,130.02915731933496,0.0
1026,-0.23961560087122355,0.047501748679896434,129.72077000227168,0.0
1027,-0.2529884943497447,0.03567661105218731,129.3308857078122,0.0
1028,-0.2670050210616841,0.023436323215332764,128.86296684768863,0.0
1029,-0.2800000313819222,0.011995046772965506,128.32069465671148,0.0
1030,-0.29053444343518453,0.0024290615518538887,127.70793120611529,0.0
1031,-0.2976386514694465,-0.004478521730668605,127.02868181234447,0.0
1032,-0.30094467384671086,-0.008346616768270552,126.2870583797911,0.0
1033,-0.3006912654397391,-0.009239225742308604,125.48724415094007,0.0
1034,-0.29762083162966124,-0.0076360791466865505,124.63346026684208,0.0
1035,-0.29280778003858976,-0.004337576325816555,123.7299344676246,0.0
1036,-0.2874612549565285,-0.00032203124303378274,122.78087218941523,0.0
1037,-0.28273594535205765,0.003419469549270717,121.79043024281366,0.0
1038,-0.27957179153273165,0.006042813457863193,120.76269319075294,0.0
1039,-0.2785740301098695,0.0069796614659781205,119.70165248168502,0.0
1040,-0.27994105707003447,0.006015871291441547,118.61118833855205,0.0
1041,-0.28344656711596716,0.0033089042179326837,117.49505435563749,0.0
1042,-0.2884805122529624,-0.0006563698868585245,116.3568647144471,0.0
1043,-0.29414818635339157,-0.005164185730945561,115.20008389628323,0.0
1044,-0.2994181169091285,-0.009399154305272786,114.02801874291679,0.0
1045,-0.3032992204581102,-0.012589309111599377,112.84381269731925,0.0
1046,-0.30501856046267956,-0.014136316826966309,111.65044204322442,0.0
1047,-0.30416595375603833,-0.013710844691858227,110.4507139546935,0.0
1048,-0.3007733267396153,-0.011297633953974123,109.24726616413633,0.0
1049,-0.29530702086339383,-0.007184279423328312,108.0425680586723,0.0
1050,-0.2885698998585894,-0.0018983087913776956,106.83892301956524,0.0
1051,-0.28153319232361684,0.0038932401952606974,105.63847182705632,0.0
1052,-0.2751381569348623,0.009500968683258594,104.443196962604,0.0
1053,-0.270116942116818,0.014324084070991325,103.2549276517431,0.0
1054,-0.2668759759042675,0.017934989460211725,102.07534550298763,0.0
1055,-0.2654655057339319,0.020124088102811962,100.90599061098075,0.0
1056,-0.26563276109333955,0.02090053010235867,99.74826800507215,0.0
1057,-0.2669332902818299,0.020453887260592656,98.60345433737012,0.0
1058,-0.268863093882727,0.019089025893787782,97.47270471683345,0.0
1059,-0.27097582018826794,0.01715032134588483,96.35705960794492,0.0
1060,-0.2729613029963946,0.01495135727130908,95.25745172381204,0.0
1061,-0.27467745984188946,0.012722884812671021,94.17471285407039,0.0
1062,-0.27614059453955003,0.01058629576429068,93.10958057766817,0.0
1063,-0.2774861399422971,0.008553701981539975,92.06270481945508,0.0
1064,-0.27891338377216046,0.006550312239180418,91.03465421748318,0.0
1065,-0.28062658988047295,0.004451149690030698,90.02592227506746,0.0
1066,-0.28278353212480245,0.0021227003546385797,89.03693327797983,0.0
1067,-0.28546085548230327,-0.0005392729901795575,88.06804796270427,0.0
1068,-0.2886422620981968,-0.003582296753565693,87.11956892651251,0.0
1069,-0.2922294459523718,-0.006983637007146383,86.19174577428115,0.0
1070,-0.2960686323683569,-0.010651061468536794,85.28478000052286,0.0
1071,-0.29998101778622227,-0.014435843421542083,84.39882960809798,0.0
1072,-0.3037861826265823,-0.018154349592469005,83.53401346756982,0.0
1073,-0.30731356106820223,-0.021613884046528146,82.69041542321919,0.0
1074,-0.3104049763348719,-0.024638487389876364,81.86808815339327,0.0
1075,-0.3129165054796887,-0.02709082203308214,81.06705679418049,0.0
1076,-0.31472750889849854,-0.028886908505042663,80.28732233642116,0.0
1077,-0.31575886056356345,-0.030001293276615985,79.52886480682577,0.0
1078,-0.315994521478442,-0.03046135293899792,78.79164624451589,0.0
1079,-0.31549490967393007,-0.030331013351867456,78.07561348466223,0.0
1080,-0.31439023498576174,-0.02968616532645739,77.38070076110037,0.0
1081,-0.3128478593204707,-0.02858619184731679,76.70683213988623,0.0
1082,-0.311017851749311,-0.027047719895694194,76.05392379573206,0.0
1083,-0.30897126016907345,-0.025027298841720013,75.42188614316557,0.0
1084,-0.3066518925194651,-0.022418664804859496,74.81062583409464,0.0
1085,-0.30386177937311887,-0.019067466567327253,74.2200476332577,0.0
1086,-0.3002926237244853,-0.014802257738952114,73.65005618280799,0.0
1087,-0.2956022407599967,-0.009476181103406927,73.10055766703371,0.0
1088,-0.2895195314457395,-0.003010342896024824,72.571461387964,0.0
1089,-0.2819483710574461,0.004571457609476699,72.06268126236503,0.0
1090,-0.273035192855058,0.013125597775902047,71.5741372503994,0.0
1091,-0.263171573083156,0.022394159740762597,71.10575672601252,0.0
1092,-0.2529227182200252,0.03203280091999321,70.65747579893014,0.0
1093,-0.24289999332093623,0.04165538202011836,70.22924059800847,0.0
1094,-0.23361904947567022,0.05088621209679207,69.82100852557576,0.0
1095,-0.22539235169038124,0.05940996416472433,69.43274949235253,0.0
1096,-0.21829048444173843,0.06701131472250994,69.06444714253946,0.0
1097,-0.21217665987555293,0.07360020407307744,68.71610007872351,0.0
1098,-0.20678848990354917,0.07922269620886324,68.387723096383,0.0
1099,-0.20182548656712124,0.0840601360432658,68.07934843797612,0.0
1100,-0.19700615837032176,0.08841970927192554,67.79102707688254,0.0
1101,-0.19207939575139835,0.09271768815939133,67.52283004184454,0.0
1102,-0.18679851042446888,0.09745366757697509,67.27484979302993,0.0
1103,-0.1808817333201842,0.10317159872182623,67.04720166142765,0.0
1104,-0.17398650640697896,0.11040299242807865,66.84002536399842,0.0
1105,-0.16571978099673557,0.11959021329006521,66.65348660785487,0.0
1106,-0.1556976359675622,0.13099321044492745,66.48777879775248,0.0
1107,-0.1436565291052225,0.14459012735138518,66.3431248623576,0.0
1108,-0.12960394285592036,0.15998896700897958,66.21977921614241,0.0
1109,-0.1139779442012172,0.1763715243376479,66.11802987536836,0.0
1110,-0.09776835701910931,0.19249017616623548,66.03820074849096,0.0
1111,-0.08254625341170574,0.2067319298168656,65.98065412348772,0.0
1112,-0.07036142450328971,0.21725295891451496,65.94579337712251,0.0
1113,-0.06350016891464229,0.22217282981215947,65.93406593406593,1.0
1114,-0.06413920551994985,0.21980397461240733,65.94419179805881,0.0
1115,-0.07396979272085956,0.2088821705516657,65.97419830802465,0.0
1116,-0.09388274417841218,0.18876053590295316,66.0235542699805,0.0
1117,-0.12379091122338456,0.15953393262156654,66.09175983181353,0.0
1118,-0.16262486934737397,0.12207180704641626,66.1783434571895,0.0
1119,-0.2084867519582276,0.07795286799845337,66.2828590909791,0.0
1120,-0.258908178095798,0.029311193672466013,66.4048834924428,0.0
1121,-0.3111460066938034,-0.02138290646214787,66.54401371487401,0.0
1122,-0.362463886957802,-0.07157501858186974,66.69986471255946,0.0
1123,-0.4103736841937965,-0.1188763948269578,66.87206705782043,0.0
1124,-0.45283054751440593,-0.1612785838525589,67.06026475258432,0.0
1125,-0.48837907363033495,-0.19730731504922963,67.2641131204375,0.0
1126,-0.5162400096514126,-0.22610035014446234,67.4832767664549,0.0
1127,-0.5363201411016636,-0.24740584978189367,67.71742759331526,0.0
1128,-0.5491333547395161,-0.26150947456586127,67.96624286331428,0.0
1129,-0.5556395642500679,-0.26910829102537287,68.2294032969027,0.0
1130,-0.5570316076450479,-0.2711560803868413,68.50659119931873,0.0
1131,-0.5545162012513916,-0.2687067668258361,68.79748860777036,0.0
1132,-0.5491356771065301,-0.2627800310499633,69.10177545246951,0.0
1133,-0.5416630222472644,-0.25426632281124495,69.41912772563721,0.0
1134,-0.5325807836115423,-0.24387890500386308,69.74921565340249,0.0
1135,-0.5221331216181313,-0.23215034005599192,70.09170186631655,0.0
1136,-0.5104250752440368,-0.21946218605697504,70.44623956501145,0.0
1137,-0.49753557868448034,-0.20609142199430586,70.81247067835716,0.0
1138,-0.4836107695739802,-0.1922562454257494,71.19002401232298,0.0
1139,-0.4689113414362013,-0.17814729417535544,71.57851338863934,0.0
1140,-0.45380138164906536,-0.1639369236188415,71.97753577328879,0.0
1141,-0.4386837831489402,-0.14976707786422933,72.38666939584341,0.0
1142,-0.42390423522088577,-0.135723423925185,72.80547186171148,0.0
1143,-0.40965646878969647,-0.12180795072597377,73.23347826046995,0.0
1144,-0.39592172317521157,-0.1079230884338507,73.67019927464246,0.0
1145,-0.382464548033751,-0.09387749303950502,74.11511929454159,0.0
1146,-0.3688886469099089,-0.07941785447243431,74.56769454612986,0.0
1147,-0.3547376167257219,-0.06428399880737204,75.02735124026749,0.0
1148,-0.33961360647101874,-0.04827797583233623,75.49348375320535,0.0
1149,-0.32328576559928374,-0.031333326406587765,75.96545284974401,0.0
1150,-0.30576766283181644,-0.013569299034013937,76.44258396210923,0.0
1151,-0.28735268105405004,0.004683314437035999,76.92416553928004,0.0
1152,-0.26860379867861106,0.022893268820156784,77.40944748323555,0.0
1153,-0.25029843198821455,0.04037872221324154,77.89763969034286,0.0
1154,-0.2333327579481576,0.056390349500789416,78.38791071787237,0.0
1155,-0.21859564712937127,0.0702155632375924,78.87938659736945,0.0
1156,-0.2068297628305607,0.08128700087289588,79.37114981830496,0.0
1157,-0.19850368527682383,0.0892766195481253,79.8622385070359,0.0
1158,-0.19372063658367533,0.09415824422650995,80.35164582758793,0.0
1159,-0.19218442543128494,0.09622610605364508,80.83831963208239,0.0
1160,-0.1932319999024809,0.0960640576544272,81.32116238971528,0.0
1161,-0.19592745256005933,0.09446855346678032,81.79903142400362,0.0
1162,-0.19919902866714717,0.09233667031185122,82.2707394884815,0.0
1163,-0.20199304516928107,0.0905369662928333,82.73505571109399,0.0
1164,-0.20341877413019302,0.08978465848471441,83.1907069371332,0.0
1165,-0.20286469232944082,0.09054272009330844,83.63637949962424,0.0
1166,-0.20007433832594845,0.09296687245845199,84.07072144453132,0.0
1167,-0.19517475646664753,0.09690543926398903,84.49234523595572,0.0
1168,-0.18865145124289928,0.10195552211250224,84.89983096358002,0.0
1169,-0.1812649030662203,0.10756631173915503,85.29173007092979,0.0
1170,-0.17391022135378809,0.11317033736966191,85.66656961853752,0.0
1171,-0.16743509193589476,0.11831608268804432,86.02285709078137,0.0
1172,-0.16244792293736432,0.12277257925396534,86.35908574903046,0.0
1173,-0.15916079224904006,0.1265796995380054,86.6737405267744,0.0
1174,-0.1573140300549947,0.130027237857081,86.96530445468849,0.0
1175,-0.15621806230115684,0.13356039447810591,87.23226559515805,0.0
1176,-0.15492416978200058,0.13762638415609438,87.47312445674753,0.0
1177,-0.15250278982587184,0.14249285768548114,87.68640184958556,0.0
1178,-0.1483727894222333,0.14807957032068886,87.87064713279952,0.0
1179,-0.14259799436092932,0.15384684992741726,88.02444679516198,0.0
1180,-0.13605978906034844,0.15877623750058134,88.14643330022436,0.0
1181,-0.1304349964875726,0.16146098275109672,88.23529411764706,1.0
1182,-0.12795563732778265,0.16030025154988448,88.30683579951852,0.0
1183,-0.1309890684578162,0.15376627493610934,88.3777001791706,0.0
1184,-0.14153265027472953,0.1406942668874969,88.44787435150191,0.0
1185,-0.16074604970059442,0.12053589100523131,88.51734537794941,0.0
1186,-0.18863612820264056,0.0935211675714358,88.58610028827903,0.0
1187,-0.22396882552194,0.06069061775080478,88.65412608241648,0.0
1188,-0.26442620816491097,0.02378561810897898,88.72140973231843,0.0
1189,-0.3069735237064773,-0.014985455082181895,88.78793818388405,0.0
1190,-0.34836172626049094,-0.05326142069823468,88.85369835890684,0.0
1191,-0.3856673856194474,-0.08886202160501361,88.91867715706633,0.0
1192,-0.41676319439811443,-0.12007673311991685,88.98286145796035,0.0
1193,-0.44062086287739866,-0.14585472036113692,89.04623812317664,0.0
1194,-0.4573786062569524,-0.16586431002503518,89.10879399840464,0.0
1195,-0.46815718771467674,-0.18041922027728674,89.17051591558665,0.0
1196,-0.4746709650713199,-0.19029745145169266,89.23139069510836,0.0
1197,-0.4787352680056803,-0.19650040702494104,89.2914051480287,0.0
1198,-0.48180030306886173,-0.2000094591501462,89.35054607834824,0.0
1199,-0.4846335266408895,-0.20159283992351218,89.40880028531656,0.0
1200,-0.4872273858966379,-0.2016990837124182,89.46615456577753,0.0
1201,-0.48894026861913087,-0.20044907323915445,89.52259571655287,0.0
1202,-0.4888079059096454,-0.19771364656943044,89.57811053686305,0.0
1203,-0.4859150508663227,-0.19324421239448578,89.63268583078542,0.0
1204,-0.4797093306652204,-0.1868145108687016,89.6863084097492,0.0
1205,-0.4701707768653253,-0.17833408032533002,89.73896509506672,0.0
1206,-0.4578060170729874,-0.1679063852582927,89.79064272050036,0.0
1207,-0.4434928789009066,-0.15582263913115516,89.84132813486508,0.0
1208,-0.42824041529183315,-0.14250073424066226,89.89100820466548,0.0
1209,-0.4129424099822731,-0.1283924919826871,89.93966981676728,0.0
1210,-0.3981910034903304,-0.11388856342354028,89.98729988110222,0.0
1211,-0.38418993755991493,-0.09924801688376761,90.0338853334061,0.0
1212,-0.3707752173197421,-0.08457048361604724,90.07941313798916,0.0
1213,-0.3575242178687755,-0.06981579662202991,90.123870290538,0.0
1214,-0.34391761265898846,-0.054863026845609154,90.16724382094846,0.0
1215,-0.32951249312472514,-0.03959096571495954,90.2095207961888,0.0
1216,-0.3140873145670388,-0.023957556904780963,90.25068832319214,0.0
1217,-0.29772741227149563,-0.008057179374666781,90.29073355177744,0.0
1218,-0.28083294744607734,0.007858808793294488,90.32964367759857,0.0
1219,-0.26404883909091875,0.023403204238168822,90.36740594511974,0.0
1220,-0.24813569698745086,0.03811044317370359,90.40400765061737,0.0
1221,-0.2338159906286119,0.05151669431083322,90.43943614520671,0.0
1222,-0.22163453191646904,0.06324407285510658,90.47367883789262,0.0
1223,-0.21186483483312,0.07307023112656078,90.50672319864354,0.0
1224,-0.20447673833947638,0.08096852605202355,90.53855676148734,0.0
1225,-0.1991629403306993,0.08711091739778345,90.56916712762829,0.0
1226,-0.1954093815267543,0.09183399546379413,90.59854196858387,0.0
1227,-0.19258977360763194,0.09557627367200028,90.62666902934043,0.0
1228,-0.19006662482338316,0.09880060036963757,90.6535361315266,0.0
1229,-0.18728568455851247,0.10191825140555882,90.67913117660284,0.0
1230,-0.18385376128521086,0.10523056243975916,90.70344214906676,0.0
1231,-0.17958999189170527,0.1089000284239285,90.72645711967216,0.0
1232,-0.17453972735957726,0.11295634109415792,90.7481642486608,0.0
1233,-0.16894194312308183,0.11733500822422414,90.76855178900611,0.0
1234,-0.1631485254578053,0.12193849613565236,90.7876080896665,0.0
1235,-0.15750698190482262,0.12670390308217178,90.80532159884801,0.0
1236,-0.15223317118049556,0.1316584971625619,90.82168086727424,0.0
1237,-0.14731102758637116,0.13694600298299855,90.8366745514623,0.0
1238,-0.14245599873828493,0.14281238422852016,90.85029141700365,0.0
1239,-0.1371656313638141,0.14954906783081606,90.86252034184804,0.0
1240,-0.1308568643845844,0.15740213832426653,90.87335031958922,0.0
1241,-0.12306183398499582,0.16646547631831315,90.88277046275105,0.0
1242,-0.1136315755590301,0.17658166935966643,90.89077000607224,0.0
1243,-0.10288872076965389,0.18727509702124442,90.89733830978844,0.0
1244,-0.0916807897264749,0.19773648404342686,90.90246486291016,0.0
1245,-0.0813126146385694,0.20686848028087282,90.90613928649451,0.0
1246,-0.07337064091917644,0.21338970539196683,90.90835133690977,0.0
1247,-0.06948120552993178,0.21598299077862146,90.9090909090909,1.0
1248,-0.07105968755298799,0.21346484345386038,90.902000077585,0.0
1249,-0.07910411896983076,0.2049491392783377,90.8809850850422,0.0
1250,-0.09406846298936038,0.18997918140707462,90.84644125307892,0.0
1251,-0.11582492300250773,0.16860780941633485,90.79877505273097,0.0
1252,-0.1437009086301388,0.1414137083777394,90.7384029360887,0.0
1253,-0.17656339792129208,0.10945170176225436,90.6657501834068,0.0
1254,-0.21292584460398592,0.07414410662187097,90.58124977043929,0.0
1255,-0.2510674201229957,0.037128128127370236,90.48534126038336,0.0
1256,-0.28917062391580356,8.011303004427928e-05,90.37846972443971,0.0
1257,-0.3254881388934794,-0.035459222863822415,90.26108469461163,0.0
1258,-0.3585363350308694,-0.06823423700233913,90.13363915197745,0.0
1259,-0.3872863651305281,-0.09737741498919072,89.99658855328417,0.0
1260,-0.4113005649416365,-0.12245197860068999,89.85038989832637,0.0
1261,-0.43075958713383183,-0.14343009055501155,89.6955008402006,0.0
1262,-0.44635193955539226,-0.1606142956366422,89.53237884015985,0.0
1263,-0.459043966429557,-0.17452043920288532,89.36148036844185,0.0
1264,-0.46979446703868744,-0.18574717667439578,89.18326015210877,0.0
1265,-0.4793025100120946,-0.19485827743367512,88.99817047061724,0.0
1266,-0.4878672824152376,-0.20229870942867165,88.80666049953746,0.0
1267,-0.4953975114596099,-0.20835534572787534,88.60917570256046,0.0
1268,-0.5015516143030885,-0.2131610185458161,88.40615727167308,0.0
1269,-0.5059421038204232,-0.2167301440946972,88.19804161514244,0.0
1270,-0.508319300499044,-0.21900823804848216,87.9852598927363,0.0
1271,-0.5086668710641186,-0.21991770383818487,87.76823759741008,0.0
1272,-0.5071849798930481,-0.21938764589435386,87.54739418251991,0.0
1273,-0.5041847399871217,-0.21736379962236763,87.32314273346856,0.0
1274,-0.49994938946928635,-0.213802895272618,87.09588968256078,0.0
1275,-0.4946224897484655,-0.20866117685864757,86.86603456573313,0.0
1276,-0.48816395802541074,-0.20188792572213193,86.63396981973229,0.0
1277,-0.4803829796110115,-0.19343182413065804,86.40008061824112,0.0
1278,-0.4710274045688897,-0.18326230119203585,86.16474474539706,0.0
1279,-0.4598929549892492,-0.1714017613537217,85.92833250510509,0.0
1280,-0.44691605997106254,-0.15795983063807892,85.69120666452459,0.0
1281,-0.43222743815437453,-0.14315879677956983,85.45372243009672,0.0
1282,-0.4161607397289009,-0.12734064250543597,85.21622745448123,0.0
1283,-0.39922273262072466,-0.11094997560515153,84.9790618727854,0.0
1284,-0.38203495142745136,-0.09449265668989115,84.74255836649114,0.0
1285,-0.36525468555600227,-0.07847568561068831,84.50704225352113,0.0
1286,-0.34948239777944723,-0.06333865263330316,84.27283160292617,0.0
1287,-0.33516703271015236,-0.04938977445094747,84.04023737272664,0.0
1288,-0.32252762163737275,-0.03675960816694282,83.80956356949746,0.0
1289,-0.3115123782316656,-0.02538286591923089,83.5811074283486,0.0
1290,-0.30181023266618084,-0.015013785731440625,83.35515961202096,0.0
1291,-0.29291574528247155,-0.005274190883181318,83.13200442788924,0.0
1292,-0.28423310652541534,0.004273052982040948,82.9119200617397,0.0
1293,-0.275195448535929,0.014037695501996086,82.69517882726927,0.0
1294,-0.2653748974664305,0.02431834889005574,82.48204743033394,0.0
1295,-0.2545646532745578,0.03523690467492622,82.27278724705826,0.0
1296,-0.24282247763341896,0.046703899941410984,82.06765461500314,0.0
1297,-0.23047182654745935,0.05842238006864907,81.86690113667558,0.0
1298,-0.21806147922311886,0.06993101426434746,81.6707739947527,0.0
1299,-0.2062877634354617,0.08068000616666836,81.4795162784804,0.0
1300,-0.19588677926639533,0.09012694836693172,81.2933673207982,0.0
1301,-0.1875083994758217,0.09783539729471055,81.11256304583054,0.0
1302,-0.1815893800984974,0.10355757691195307,80.93733632647813,0.0
1303,-0.17824842565708982,0.10728482222448746,80.76791735193333,0.0
1304,-0.17722886561053733,0.10925509302567508,80.60453400503778,0.0
1305,-0.17791135626155113,0.10991530822340277,80.44741224949371,0.0
1306,-0.17940728471864903,0.1098457945463626,80.29677652703612,0.0
1307,-0.18072364138146016,0.10966269154034027,80.15285016476967,0.0
1308,-0.18096638693602274,0.10991949824440572,80.01585579297253,0.0
1309,-0.17953005867084157,0.11102939412852048,79.88601577377082,0.0
1310,-0.17621644282894752,0.11322493931130231,79.76355264119012,0.0
1311,-0.17124117748154424,0.1165621542262959,79.64868955319783,0.0
1312,-0.16512204281012854,0.12096411215686953,79.5416507564601,0.0
1313,-0.15848413578214698,0.12628824174763809,79.44266206465213,0.0
1314,-0.15184768106916058,0.1323946966344042,79.35195135128035,0.0
1315,-0.14547057702875385,0.13919256270383723,79.2697490581011,0.0
1316,-0.13929778916233418,0.1466467704805557,79.19628872035254,0.0
1317,-0.13303263332886456,0.1547398744091294,79.1318075101573,0.0
1318,-0.12630553766207855,0.16339635921168583,79.07654679960258,0.0
1319,-0.11888709538891314,0.17238920079054143,79.03075274516355,0.0
1320,-0.1108814761115247,0.1812557929559599,78.99467689530708,0.0
1321,-0.10284464296270927,0.18925104333240286,78.96857682329643,0.0
1322,-0.09579511251530622,0.19535913710009442,78.95271678741638,0.0
1323,-0.09111482681454695,0.1983735373388817,78.94736842105263,1.0
1324,-0.09036366016596944,0.19703984753831166,78.95640426443617,0.0
1325,-0.09504479080211074,0.19024139666039122,78.98314344940624,0.0
1326,-0.10635811767035899,0.1771959152545334,79.02705018817399,0.0
1327,-0.12497198479204034,0.15762591155057556,79.08760909301549,0.0
1328,-0.1508401872814345,0.13186679175062138,79.16432290481784,0.0
1329,-0.1830965288718554,0.10088564383741042,79.25671034342639,0.0
1330,-0.22006627674069335,0.06619881488908477,79.36430406675049,0.0
1331,-0.25942775408836277,0.029695486283232563,79.48664872697164,0.0
1332,-0.29852735225361865,-0.006606241166692617,79.62329911344725,0.0
1333,-0.3348025022562228,-0.04082892335109571,79.77381837303739,0.0
1334,-0.3662205166443096,-0.07148174161665737,79.93777629961704,0.0
1335,-0.39162112703912655,-0.09763647686528582,80.11474768548703,0.0
1336,-0.4108696857897975,-0.11900040223567362,80.30431072827655,0.0
1337,-0.42478018259057343,-0.13587415940023517,80.50604548775014,0.0
1338,-0.43483213234152124,-0.14900693085856304,80.71953238770239,0.0
1339,-0.44276001179675945,-0.15938281005361385,80.94435075885328,0.0
1340,-0.4501224540288262,-0.16798599696070793,81.18007741935484,0.0
1341,-0.45795596389510895,-0.1755950650210946,81.42628529019048,0.0
1342,-0.4665889145417484,-0.18264762545198068,81.68254204340133,0.0
1343,-0.4756462115855792,-0.18919869769336384,81.948408781711,0.0
1344,-0.4842260116512564,-0.19497357635368665,82.22343874874903,0.0
1345,-0.49118976436370115,-0.19949446998910297,82.507176069696,0.0
1346,-0.49548497382249107,-0.20224467651332304,82.79915452279349,0.0
1347,-0.4964201322465261,-0.20282785618472282,83.09889634278295,0.0
1348,-0.4938305421307466,-0.20108397805060424,83.40591105796051,0.0
1349,-0.4881048703618761,-0.19713621410968127,83.71969436316007,0.0
1350,-0.4800765137513202,-0.19136098616310954,84.03972703160765,0.0
1351,-0.4708136308905211,-0.1842921021567126,84.36547386922251,0.0
1352,-0.4613616361485516,-0.1764851216025063,84.69638271557606,0.0
1353,-0.45249902461841063,-0.16837650132144194,85.03188349635494,0.0
1354,-0.44456111640529294,-0.1601721502374472,85.37138733280851,0.0
1355,-0.4373688659027385,-0.15179216570686843,85.71428571428571,0.0
1356,-0.4302756201398636,-0.14288486634231828,86.05994974058314,0.0
1357,-0.4223190235481415,-0.13290707567480556,86.40772944142269,0.0
1358,-0.4124434629983864,-0.12125263535433103,86.75695318095148,0.0
1359,-0.3997448240400448,-0.10740060302751905,87.10692715569796,0.0
1360,-0.3836863259792219,-0.09105068625865162,87.45693499491783,0.0
1361,-0.36424171253623505,-0.07221683063761887,87.8062374727124,0.0
1362,-0.34193749489868286,-0.05125956342023891,88.1540723416867,0.0
1363,-0.3177854377872236,-0.028851378117422624,88.4996542982254,0.0
1364,-0.2931168041295853,-0.005883970358519619,88.84217508968581,0.0
1365,-0.2693491156950551,0.01666181361990151,89.18080377392724,0.0
1366,-0.24773244672090677,0.037855609882158775,89.51468714159728,0.0
1367,-0.2291317356780782,0.056938912093543126,89.84295031146726,0.0
1368,-0.21389876010531067,0.07340679631590367,90.16469750883151,0.0
1369,-0.20186829060692213,0.0870398101276835,90.47901303654724,0.0
1370,-0.19247917491210648,0.09788869772938341,90.78496244767724,0.0
1371,-0.1849817643264217,0.10622552816184072,91.08159392789375,0.0
1372,-0.17866247947504016,0.1124806528262584,91.36793989479638,0.0
1373,-0.1730083049236445,0.11718417593373148,91.64301882008121,0.0
1374,-0.16775522455959915,0.12092379863179935,91.90583727906218,0.0
1375,-0.16280977794290918,0.12432052723592213,92.15539223038847,0.0
1376,-0.15808534067368443,0.12801358951677785,92.39067352691978,0.0
1377,-0.15333250609513252,0.1326397346312329,92.61066665661778,0.0
1378,-0.14804864638833193,0.13879232762065993,92.81435570999857,0.0
1379,-0.14152133961409427,0.1469524999478092,93.00072656817632,0.0
1380,-0.13300636546146682,0.15739596515851054,93.16877030283356,0.0
1381,-0.12198679013671875,0.17009121425208434,93.3174867766053,0.0
1382,-0.10842778922086128,0.18461357673118126,93.44588842938872,0.0
1383,-0.09294319495948868,0.20010198021075246,93.55300423302981,0.0
1384,-0.07682003325087054,0.21528003325553544,93.63788379373261,0.0
1385,-0.06189139406801609,0.22855138529446614,93.69960157843566,0.0
1386,-0.05028828008099906,0.23816405250055595,93.737261238359,0.0
1387,-0.044125468619342426,0.24242326095076516,93.75,1.0
1388,-0.04518199177083338,0.23992088024801786,93.74930932257415,0.0
1389,-0.054628489609309404,0.2297442054827531,93.74725884846455,0.0
1390,-0.07283938354078738,0.2116287145149482,93.74388099944983,0.0
1391,-0.09931368345734594,0.18602797297967288,93.73920830261332,0.0
1392,-0.13271585510418374,0.1540873060660562,93.7332733812659,0.0
1393,-0.17103493727563657,0.11752360534497912,93.72610894607493,0.0
1394,-0.21184276635864027,0.07842878778249243,93.71774778640336,0.0
1395,-0.2526116053358867,0.039026293503556825,93.70822276186203,0.0
1396,-0.2910347648981152,0.0014166255267912542,93.69756679407851,0.0
1397,-0.3252907369161656,-0.03265160877968945,93.68581285868513,0.0
1398,-0.354207052183288,-0.0619540955877383,93.67299397752865,0.0
1399,-0.377309605759264,-0.08588547854105652,93.65914321110455,0.0
1400,-0.394773309570354,-0.1044674500359869,93.64429365121738,0.0
1401,-0.4073071571373564,-0.11827405743265895,93.62847841386944,0.0
1402,-0.41600590978547647,-0.12828912909322843,93.61173063237972,0.0
1403,-0.42218729647507813,-0.13571913425456783,93.594083450734,0.0
1404,-0.42721974164574755,-0.14178985722855833,93.57557001716832,0.0
1405,-0.4323414201790188,-0.1475567039888624,93.55622347798594,0.0
1406,-0.4384797633651392,-0.1537561233751438,93.53607697160956,0.0
1407,-0.44609614894285915,-0.16071948565926397,93.5151636228691,0.0
1408,-0.4550933526766583,-0.1683610996130833,93.49351653752579,0.0
1409,-0.4648236810726216,-0.17623977348685602,93.47116879703299,0.0
1410,-0.47421867713448485,-0.18368018845909723,93.44815345353386,0.0
1411,-0.482029245923296,-0.18992886415183677,93.42450352509627,0.0
1412,-0.4871272267394301,-0.19431242652494307,93.40025199118463,0.0
1413,-0.48878963419283994,-0.19636546362591306,93.37543178836862,0.0
1414,-0.48687935383988834,-0.19590228963404652,93.35007580626856,0.0
1415,-0.48185988002521596,-0.19302027645797878,93.32421688373685,0.0
1416,-0.4746333802740144,-0.1880389651931475,93.29788780527507,0.0
1417,-0.46625299057574165,-0.18139465092954304,93.271121297686,0.0
1418,-0.45760576153113885,-0.17352031826900677,93.24395002695996,0.0
1419,-0.44917146970223115,-0.16474288093931633,93.2164065953944,0.0
1420,-0.4409309331878858,-0.15522319624203262,93.18852353894606,0.0
1421,-0.4324405569504656,-0.14495135457353875,93.16033332481443,0.0
1422,-0.42303259031995705,-0.13379418717189406,93.13186834925578,0.0
1423,-0.41206501598955314,-0.12157824359914607,93.10316093562605,0.0
1424,-0.39914055960623906,-0.10818327831983907,93.07424333265222,0.0
1425,-0.3842363036857108,-0.0936203166463188,93.04514771292989,0.0
1426,-0.367720527441862,-0.07807422175438195,93.01590617164675,0.0
1427,-0.3502677278466594,-0.061901115702649244,92.98655072552985,0.0
1428,-0.33270697375315583,-0.045582817525048516,92.95711331201574,0.0
1429,-0.3158492130085947,-0.029650501844380145,92.92762578864176,0.0
1430,-0.30033664102351365,-0.014595799160744334,92.89811993265745,0.0
1431,-0.2865449744911675,-0.0007886584158552923,92.86862744085418,0.0
1432,-0.27455181520660954,0.011582049250085519,92.839179929612,0.0
1433,-0.2641660022432319,0.022535499150028136,92.80980893516191,0.0
1434,-0.25499858297814004,0.032291080274542146,92.78054591406233,0.0
1435,-0.24654943025691528,0.041229939312954864,92.75142224388834,0.0
1436,-0.23828603145131713,0.049834677021075524,92.7224692241322,0.0
1437,-0.2297010079289704,0.05861818313472911,92.69371807731383,0.0
1438,-0.2203481687913928,0.06805265364661674,92.66519995029972,0.0
1439,-0.20986761249166475,0.07850834832323109,92.63694591582956,0.0
1440,-0.1980134927108751,0.09020926099825037,92.60898697424824,0.0
1441,-0.18469154725528306,0.1032100270835706,92.58135405544326,0.0
1442,-0.17000009879782513,0.11739526582631699,92.55407802098539,0.0
1443,-0.15425521035907908,0.13249923287438978,92.52718966647191,0.0
1444,-0.137976741580704,0.1481403720817353,92.50071972407136,0.0
1445,-0.12182251158818447,0.1638626570452455,92.47469886526879,0.0
1446,-0.106480258657264,0.17917433681558564,92.44915770381051,0.0
1447,-0.0925510595833461,0.1935756621172756,92.42412679884762,0.0
1448,-0.08046946617118472,0.2065707117110055,92.3996366582777,0.0
1449,-0.07049578174594716,0.21766404863783834,92.37571774228365,0.0
1450,-0.06278671622848736,0.22634915583145204,92.35240046706953,0.0
1451,-0.05751516879380303,0.23210036806278905,92.32971520879275,0.0
1452,-0.054985194587914926,0.23438135283360223,92.3076923076923,1.0
1453,-0.05568620427947322,0.2326799830526116,92.28620426457128,0.0
1454,-0.060251844285661826,0.22657199731396394,92.26509157526877,0.0
1455,-0.0693239374001155,0.21580596906486638,92.24433657882102,0.0
1456,-0.08335589766659884,0.2003926568294198,92.22392165395453,0.0
1457,-0.10241144401253717,0.18067583049057012,92.20382921774468,0.0
1458,-0.12601838677009877,0.1573614489231347,92.1840417243437,0.0
1459,-0.15312536060051898,0.13148837648522754,92.16454166377761,0.0
1460,-0.18218632752200165,0.10433561536967664,92.14531156081136,0.0
1461,-0.21136828917161096,0.0772756152143094,92.12633397388194,0.0
1462,-0.2388465732141832,0.051596954660236415,92.10759149409942,0.0
1463,-0.26312549359812515,0.028328916665069072,92.0890667443149,0.0
1464,-0.28330843471847156,0.008102535504411874,92.07074237825549,0.0
1465,-0.2992479432473079,-0.008923321351414937,92.05260107972578,0.0
1466,-0.31153481720941056,-0.02305517427155801,92.03462556187554,0.0
1467,-0.32132816489205285,-0.03497856724683911,92.01679856653341,0.0
1468,-0.3300717379465497,-0.04560982188808953,91.99910286360594,0.0
1469,-0.33917047232693326,-0.055916022403851115,91.9815212505422,0.0
1470,-0.3497059955937183,-0.06673870659807993,91.96403655186324,0.0
1471,-0.362251511857693,-0.07865405664808062,91.9466316187563,0.0
1472,-0.376814167243078,-0.0918927076900442,91.92928932873353,0.0
1473,-0.39289918102569593,-0.10632831976476947,91.91199258535492,0.0
1474,-0.40966431735269815,-0.12152932631634117,91.89472431801502,0.0
1475,-0.4261195177593759,-0.1368562017946803,91.87746748179364,0.0
1476,-0.4413240275266657,-0.1515796601364488,91.86020505736961,0.0
1477,-0.4545398900395334,-0.16499443180577722,91.84292005099813,0.0
1478,-0.46531426209360793,-0.1765081402079731,91.82559549455063,0.0
1479,-0.47348166759686744,-0.18569349890310877,91.80821444561772,0.0
1480,-0.47909797078548966,-0.19230204633685052,91.79075998767425,0.0
1481,-0.48233560104794215,-0.19624635853382585,91.77321523030682,0.0
1482,-0.4833785438248742,-0.1975631832656096,91.75556330950292,0.0
1483,-0.4823516807087634,-0.19637133781593757,91.73778738800213,0.0
1484,-0.4793028421878322,-0.19283581798422844,91.71987065570833,0.0
1485,-0.4742338164726188,-0.18714466801688578,91.70179633016326,0.0
1486,-0.46715809828407795,-0.17949954352148448,91.68354765708112,0.0
1487,-0.4581561134554839,-0.17011625785994924,91.66510791094323,0.0
1488,-0.44740484717450774,-0.15922906318474248,91.64646039565356,0.0
1489,-0.4351735873083413,-0.14709230565436557,91.62758844525379,0.0
1490,-0.4217927775719243,-0.13397499675536464,91.60847542469845,0.0
1491,-0.4076116355298079,-0.12014688561242204,91.58910473068906,0.0
1492,-0.3929594365214555,-0.10585781838307746,91.5694597925675,0.0
1493,-0.3781176826981638,-0.09131471777419556,91.54952407326802,0.0
1494,-0.3633017549867559,-0.07666189492052766,91.5292810703275,0.0
1495,-0.3486468377883723,-0.061970395739400067,91.50871431695373,0.0
1496,-0.33419580695653006,-0.04724068725048518,91.48780738315129,0.0
1497,-0.3198934244779872,-0.03242038837944922,91.46654387690428,0.0
1498,-0.3055961688273802,-0.017435318699128496,91.4449074454162,0.0
1499,-0.2911062438650213,-0.002228483667088006,91.42288177640577,0.0
1500,-0.2762312182412084,0.013201431755561321,91.40045059945874,0.0
1501,-0.26086000094660217,0.02877198853674348,91.37759768743486,0.0
1502,-0.24503550968402052,0.044308416119463984,91.35430685793003,0.0
1503,-0.22899850883312392,0.05956006238046059,91.3305619747923,0.0
1504,-0.2131791193531309,0.07424152669583543,91.30634694969216,0.0
1505,-0.19812428573991694,0.08809111988890457,91.28164574374551,0.0
1506,-0.1843695888332929,0.10093298383554553,91.25644236918977,0.0
1507,-0.17228638987766046,0.11272563401100705,91.23072089111159,0.0
1508,-0.1619515371574544,0.12358047524373045,91.20446542922616,0.0
1509,-0.15308873820098115,0.13373955323881506,91.1776601597072,0.0
1510,-0.1451149380970859,0.14351157933105838,91.150289317067,0.0
1511,-0.13729482661429016,0.1531768416541078,91.12233719608572,0.0
1512,-0.1289706410259002,0.16288184076957546,91.09378815378936,0.0
1513,-0.11980455318889699,0.1725501991489522,91.06462661147549,0.0
1514,-0.10995856816425982,0.18183541271116574,91.03483705678602,0.0
1515,-0.10014878462068252,0.19013292760527747,91.00440404582622,0.0
1516,-0.09154551806733606,0.19665548026498278,90.9733122053292,0.0
1517,-0.08553762112293431,0.2005599839366378,90.94154623486455,0.0
1518,-0.08342218745450712,0.2011006277463919,90.9090909090909,1.0
1519,-0.08610420251049972,0.19777502121239,90.87481661348122,0.0
1520,-0.09388643782579359,0.19043041083812556,90.83765622065911,0.0
1521,-0.1064009329058356,0.1793053042370218,90.79768852554662,0.0
1522,-0.12269211309792748,0.1649961917513394,90.75499259392753,0.0
1523,-0.14142292723386696,0.14835584849706357,90.70964771564915,0.0
1524,-0.1611497161383662,0.1303448041720699,90.66173335909784,0.0
1525,-0.18060182147368584,0.1118674290462634,90.61132912697774,0.0
1526,-0.19890623064419236,0.09362658065317292,90.55851471342012,0.0
1527,-0.21571274254402353,0.0760256294985298,90.50336986244679,0.0
1528,-0.23119845516110413,0.05913548140657655,90.44597432780844,0.0
1529,-0.24595803213713838,0.04272980424710286,90.38640783421593,0.0
1530,-0.26081213522846675,0.026377464299701565,90.32475003997911,0.0
1531,-0.2765834576294532,0.00957030493049981,90.26108050106576,0.0
1532,-0.293892966136868,-0.008141030258795263,90.19547863659018,0.0
1533,-0.3130182002928711,-0.027029831453942693,90.12802369573801,0.0
1534,-0.3338356928074233,-0.04711516637948747,90.05879472613252,0.0
1535,-0.3558478476259223,-0.06813388254731247,89.9878705436441,0.0
1536,-0.3782767281727976,-0.08956330159215492,89.91532970364302,0.0
1537,-0.40019607286217473,-0.11068595254375413,89.8412504736933,0.0
1538,-0.4206692791370383,-0.1306815260063621,89.7657108076837,0.0
1539,-0.43886509064376455,-0.14872882447440253,89.68878832138964,0.0
1540,-0.4541333898722912,-0.16410158879186676,89.61056026945782,0.0
1541,-0.46603792963233587,-0.17624570195052797,89.53110352380482,0.0
1542,-0.4743559997973998,-0.18483006869486962,89.45049455341753,0.0
1543,-0.47906175255073635,-0.18976819562066388,89.36880940554381,0.0
1544,-0.48030780212959495,-0.19121133189945402,89.28612368825871,0.0
1545,-0.4784107367017025,-0.18951671344815763,89.20251255439125,0.0
1546,-0.47383566229195506,-0.18519618255422957,89.11805068679585,0.0
1547,-0.46716863333337605,-0.1788516322259844,89.0328122849504,0.0
1548,-0.4590671267331705,-0.17110465780450188,88.94687105286324,0.0
1549,-0.45018706474932313,-0.1625285022424764,88.86030018826963,0.0
1550,-0.44109647628631304,-0.15359055782747377,88.77317237309803,0.0
1551,-0.4321953887316613,-0.1446128872094582,88.68555976518554,0.0
1552,-0.42366434819111076,-0.13575611474447988,88.59753399122185,0.0
1553,-0.41545816575300976,-0.12702863545049647,88.50916614089971,0.0
1554,-0.40734889817143455,-0.11831887743955621,88.42052676225074,0.0
1555,-0.3990075314296802,-0.10944420214178148,88.33168585814393,0.0
1556,-0.39010288473350796,-0.10020694104000288,88.24271288392481,0.0
1557,-0.38039249753602217,-0.09044687451244504,88.15367674617306,0.0
1558,-0.36978407948253805,-0.08008053140694026,88.06464580255573,0.0
1559,-0.3583552980068053,-0.06912081584896002,87.97568786275416,0.0
1560,-0.3463311351954024,-0.05767490445342485,87.88687019044185,0.0
1561,-0.3340288341326119,-0.045923031352235494,87.79825950629183,0.0
1562,-0.32178794862262716,-0.034084590812501106,87.70992199199083,0.0
1563,-0.30990501494084427,-0.02238010064905848,87.62192329523968,0.0
1564,-0.29858815685403717,-0.010997608992694398,87.53432853571815,0.0
1565,-0.2879384227881337,-7.023673134508301e-05,87.44720231199365,0.0
1566,-0.27795585217511226,0.010331693907371625,87.36060870935384,0.0
1567,-0.26856279137922867,0.020194261281536237,87.27461130854302,0.0
1568,-0.25963574243023674,0.02954302517138821,87.1892731953836,0.0
1569,-0.25103843217838245,0.03842171471683742,87.104656971264,0.0
1570,-0.24265085334332237,0.04687351561494843,87.02082476447526,0.0
1571,-0.2343908245929525,0.054931127191642684,86.93783824237937,0.0
1572,-0.22622584117799296,0.06261937613377216,86.85575862439302,0.0
1573,-0.21817323485313414,0.0699706256694795,86.77464669577135,0.0
1574,-0.2102860283882047,0.0770491551692967,86.6945628221772,0.0
1575,-0.2026220211470729,0.08397696076426353,86.6155669650221,0.0
1576,-0.19519722229416359,0.09095101305635742,86.5377186975661,0.0
1577,-0.18793285237927487,0.09824181858806998,86.46107722176535,0.0
1578,-0.18061506874290378,0.10616577527151688,86.38570138585547,0.0
1579,-0.17289232275331043,0.11502930311859923,86.3116497026624,0.0
1580,-0.16433089741734497,0.12505027618812314,86.23898036863073,0.0
1581,-0.1545329762860441,0.1362702575157045,86.16775128356319,0.0
1582,-0.14329793453697223,0.14847726252328675,86.09802007106366,0.0
1583,-0.13078516962088196,0.16116104895202668,86.02984409967975,0.0
1584,-0.11762478467211007,0.1735197344957242,85.96328050473976,0.0
1585,-0.1049266705349195,0.1845276672794931,85.898386210882,0.0
1586,-0.09416013372108509,0.19306133853099167,85.83521795527469,0.0
1587,-0.0869113062765339,0.1980656264016002,85.77383231152598,0.0
1588,-0.08456517300134359,0.1987305137437486,85.71428571428572,1.0
1589,-0.0879901375533498,0.19464216827456726,85.65526367992113,0.0
1590,-0.0973125385192871,0.18587419751550882,85.59544802277233,0.0
1591,-0.11184964543651915,0.1729952406733107,85.5348893666311,0.0
1592,-0.130226800782116,0.15698582193422878,85.47363810364713,0.0
1593,-0.1506522848651095,0.1390767451936325,85.41174438647292,0.0
1594,-0.1712805440398053,0.1205386445312028,85.34925812102733,0.0
1595,-0.1905742046649962,0.10246345911431336,85.28622895987176,0.0
1596,-0.20758172113175283,0.08558096975270045,85.22270629619207,0.0
1597,-0.22207538279583783,0.0701466799616106,85.15873925837919,0.0
1598,-0.23453293369355271,0.05592296721044283,85.09437670520104,0.0
1599,-0.24598270843357267,0.042256874055244864,85.02966722155841,0.0
1600,-0.25775667648020617,0.028239138103715845,84.9646591148171,0.0
1601,-0.27120411400869554,0.012913797699988093,84.89940041170792,0.0
1602,-0.28741454280591355,-0.004501310308757896,84.83393885578745,0.0
1603,-0.3069899243133439,-0.024424274430960027,84.76832190545043,0.0
1604,-0.32989810803228337,-0.04678410470496215,84.70259673248631,0.0
1605,-0.35543124413558147,-0.07098385983151444,84.63681022117126,0.0
1606,-0.3822800085676373,-0.09595875237858598,84.57100896788737,0.0
1607,-0.408715498307798,-0.12031910486021075,84.50523928126101,0.0
1608,-0.43284956332327124,-0.1425530502565405,84.43954718281174,0.0
1609,-0.4529281123851626,-0.16125347977686127,84.37397840810358,0.0
1610,-0.46760560751982383,-0.17532973602307272,84.30857840839056,0.0
1611,-0.4761532059843684,-0.18416761293250516,84.24339235274844,0.0
1612,-0.4785652505867653,-0.18771078285974893,84.1784651306845,0.0
1613,-0.47554588165558664,-0.18645108124096005,84.11384135521767,0.0
1614,-0.4683772336346273,-0.18133151645651108,84.04956536642125,0.0
1615,-0.45869133235458337,-0.17358139368756406,83.98568123542063,0.0
1616,-0.4481867987954514,-0.1645146408321903,83.92223276883882,0.0
1617,-0.4383442979167148,-0.15532809402181366,83.8592635136825,0.0
1618,-0.4301963553325414,-0.14693508914022907,83.7968167626619,0.0
1619,-0.4241954721996126,-0.13986157045889136,83.73493555993743,0.0
1620,-0.42020222815731834,-0.13421879476650933,83.6736627072873,0.0
1621,-0.41758892092119365,-0.12975133509101666,83.6130407706895,0.0
1622,-0.41543091551857303,-0.12594467453986338,83.5531120873124,0.0
1623,-0.4127412796607204,-0.12216618096657048,83.49391877290869,0.0
1624,-0.4086964243959723,-0.11780872281667103,83.43550272960726,0.0
1625,-0.402803166681433,-0.11240833307168754,83.37790565409823,0.0
1626,-0.39497223846724766,-0.10571536439615187,83.32116904620653,0.0
1627,-0.38548785588902656,-0.09771042301496367,83.26533421785025,0.0
1628,-0.37489069066937125,-0.08856915719370899,83.21044230237943,0.0
1629,-0.3638131735386786,-0.07859076340608916,83.15653426429263,0.0
1630,-0.35281465353125613,-0.06811154581316436,83.1036509093275,0.0
1631,-0.3422582886637606,-0.05742587094203401,83.0518328949238,0.0
1632,-0.3322555472590084,-0.04673261892524752,83.00112074105587,0.0
1633,-0.3226840733825809,-0.036117183821575354,82.95155484143346,0.0
1634,-0.3132661620370862,-0.025569429667973403,82.90317547506967,0.0
1635,-0.3036820950963109,-0.015029152938321695,82.85602281821501,0.0
1636,-0.29368702596957197,-0.00444451743455701,82.81013695665771,0.0
1637,-0.2832021668938487,0.006173233442858396,82.76555789839031,0.0
1638,-0.27235940769548583,0.01671357905270722,82.72232558664354,0.0
1639,-0.2614907301547853,0.02695866075698021,82.68047991328861,0.0
1640,-0.2510669944420022,0.03660599591051132,82.6400607326099,0.0
1641,-0.24160213359593047,0.045317508544922405,82.60110787545054,0.0
1642,-0.23354610333073442,0.05278474923283703,82.56366116373367,0.0
1643,-0.22719122370974615,0.058796977959297725,82.52776042536337,0.0
1644,-0.2226111974516458,0.06329843777476514,82.49344550950892,0.0
1645,-0.2196416927781158,0.06642338976772524,82.46075630227772,0.0
1646,-0.21789984635257215,0.06850157854629099,82.42973274278211,0.0
1647,-0.21683208317682962,0.07003181276852391,82.40041483960621,0.0
1648,-0.21577816404389807,0.07162638495682312,82.37284268767976,0.0
1649,-0.21404347669642132,0.07393343403683789,82.34705648556617,0.0
1650,-0.21097702522811634,0.07754762982563969,82.32309655317336,0.0
1651,-0.2060545190990883,0.0829214672464974,82.30100334989622,0.0
1652,-0.19896226408219483,0.09028982886647093,82.28081749320035,0.0
1653,-0.18967010864741052,0.09961919729344561,82.26257977765763,0.0
1654,-0.17847533256767198,0.11058997670076871,82.24633119444543,0.0
1655,-0.16599920287997458,0.12261603732413949,82.23211295132084,0.0
1656,-0.1531265291539755,0.13490035203414863,82.21996649308382,0.0
1657,-0.14089407038936444,0.14652025443887007,82.2099335225426,0.0
1658,-0.13035005282872397,0.15653134295102636,82.20205602199692,0.0
1659,-0.12241680315739299,0.16407619393794845,82.19637627525444,0.0
1660,-0.1177863542792415,0.16848328605038454,82.19293689019739,0.0
1661,-0.11686498026997891,0.16934287417780441,82.19178082191782,1.0
1662,-0.119763252485866,0.16654959648385914,82.20255620647751,0.0
1663,-0.12631354569320005,0.16030579194839178,82.23442262406407,0.0
1664,-0.13609570964474318,0.1510843502792357,82.28671320263071,0.0
1665,-0.14846496832972197,0.13955507970998768,82.35878866326483,0.0
1666,-0.16259487599874978,0.12648380278077276,82.45003409370293,0.0
1667,-0.17755767770789022,0.11261825189296512,82.55985590462411,0.0
1668,-0.19245465364700007,0.0985785372519824,82.68767894774582,0.0
1669,-0.20658249990963418,0.08477134689987037,82.83294377708604,0.0
1670,-0.21959266975048825,0.0713449458712437,82.99510403685537,0.0
1671,-0.23158581693049546,0.05819586237816458,83.17362396133436,0.0
1672,-0.24309316502087774,0.04502838201542603,83.36797597381121,0.0
1673,-0.25492946624632795,0.03145643762241427,83.57763837322699,0.0
1674,-0.2679465473526414,0.01712702350428604,83.80209309862764,0.0
1675,-0.2827550323493743,0.001837942999879133,84.04082356287265,0.0
1676,-0.2994987444750614,-0.014377225875564378,84.2933125483203,0.0
1677,-0.3177537969920667,-0.031217026026183994,84.55904015841308,0.0
1678,-0.3365865521017928,-0.04814046139159045,84.83748182024149,0.0
1679,-0.3547551821767827,-0.06444865462222468,85.12810633428005,0.0
1680,-0.3709954957804735,-0.07939982336662493,85.43037396857869,0.0
1681,-0.38430683670451476,-0.09233014743642642,85.74373459576472,0.0
1682,-0.39415539150104084,-0.10275312632174635,86.06762587227392,0.0
1683,-0.4005395656878053,-0.11041728655186119,86.40147146028997,0.0
1684,-0.4039068874874194,-0.11531421140438762,86.74467929393602,0.0
1685,-0.4049595783317659,-0.11764207567333196,87.09663989233391,0.0
1686,-0.4044199103949481,-0.11774026614785053,87.45672472322799,0.0
1687,-0.4028346591063495,-0.11601544265069327,87.8242846219638,0.0
1688,-0.40047813686623235,-0.11287768849400817,88.19864827171551,0.0
1689,-0.3973740480486863,-0.10869848798099778,88.57912075196832,0.0
1690,-0.39341300208001034,-0.10379300912680266,88.96498216337964,0.0
1691,-0.38851036438124453,-0.0984209368699231,89.3554863382593,0.0
1692,-0.38273833975448335,-0.09279559527675847,89.74985964701628,0.0
1693,-0.376379212260007,-0.08709143933154842,90.14729991200967,0.0
1694,-0.36987844348239235,-0.08144442903571013,90.54697544129888,0.0
1695,-0.36371587977843656,-0.07594606196946455,90.94802419580225,0.0
1696,-0.358246530125705,-0.07063709187666734,91.34955310432369,0.0
1697,-0.35357635271467863,-0.06550888215475513,91.75063754177715,0.0
1698,-0.34952678663837894,-0.06051803760293918,92.15032098670535,0.0
1699,-0.34570803537373984,-0.05561429940241997,92.54761487482908,0.0
1700,-0.34167833480176657,-0.05077499051839519,92.94149866585028,0.0
1701,-0.3371314497839874,-0.04603442177336878,93.33092014103879,0.0
1702,-0.33204097629986395,-0.04149589934954414,93.71479594922766,0.0
1703,-0.32670302899186954,-0.037318101514451904,94.09201241869808,0.0
1704,-0.32165449655619804,-0.03367553531614624,94.4614266520186,0.0
1705,-0.317490145094248,-0.030701923355189713,94.82186792018395,0.0
1706,-0.3146415141875214,-0.02843247025146617,95.17213937134868,0.0
1707,-0.3131975801580249,-0.0267633419640891,95.51102006804011,0.0
1708,-0.31283336072615525,-0.025443235593928717,95.83726736493925,0.0
1709,-0.31287303673635425,-0.024103487013938163,96.14961963711849,0.0
1710,-0.312465588546336,-0.022322323892952273,96.44679936600397,0.0
1711,-0.3108135063769723,-0.01970899704931751,96.7275165872812,0.0
1712,-0.3073821188902912,-0.01598764509104081,96.99047270148414,0.0
1713,-0.3020298599053957,-0.011060567745490666,97.23436464411064,0.0
1714,-0.2950298809063388,-0.005035990375902948,97.45788940780932,0.0
1715,-0.28698828727590175,0.0017853846220380228,97.65974890451656,0.0
1716,-0.2786924390035038,0.008960507991197995,97.83865515043307,0.0
1717,-0.2709367362941092,0.015977875984543977,97.99333575147213,0.0
1718,-0.26437127564493834,0.022337835969042475,98.12253966135957,0.0
1719,-0.25940470915129693,0.027622305168541368,98.22504317900157,0.0
1720,-0.25617401746298657,0.03154146285861583,98.29965614615914,0.0
1721,-0.2545772764876795,0.03395209490509857,98.3452283009844,0.0
1722,-0.25435338709979277,0.034849765170398325,98.36065573770492,1.0
1723,-0.2551843782087813,0.034342788130651704,98.35260653962547,0.0
1724,-0.2567908609563122,0.032618665922563336,98.32878078395971,0.0
1725,-0.2589919163804265,0.029912817154018674,98.28967192344925,0.0
1726,-0.2617106705773798,0.02648571886645213,98.23578644115153,0.0
1727,-0.2649260410115483,0.022609502078440424,98.16764233133743,0.0
1728,-0.26859320459485303,0.018560443306237698,98.08576760759243,0.0
1729,-0.27256983500171234,0.014611297406203637,97.99069884445235,0.0
1730,-0.2765840443060999,0.011017857866818331,97.88297975834442,0.0
1731,-0.2802629308660959,0.007997277088403497,97.76315983303044,0.0
1732,-0.2832154904798816,0.005700312081256324,97.63179299417213,0.0
1733,-0.2851417357330975,0.004184007188004903,97.48943633706165,0.0
1734,-0.2859299313082334,0.003393685500107515,97.33664891099275,0.0
1735,-0.2857083336372143,0.0031624624585853993,97.17399056318993,0.0
1736,-0.2848332224044703,0.003232804494913465,97.00202084467597,0.0
1737,-0.2838148533544961,0.0032989354941197827,96.82129797993865,0.0
1738,-0.2832008474064609,0.0030628335836620797,96.63237790176605,0.0
1739,-0.2834478739857764,0.0022920019250475387,96.43581335215353,0.0
1740,-0.28481500178338554,0.000865575251279619,96.23215304975066,0.0
1741,-0.28730571767556,-0.0012027484971026759,96.02194092391233,0.0
1742,-0.29067237358010223,-0.0037713603015224256,95.80571541504781,0.0
1743,-0.2944805052931775,-0.006606357155982847,95.58400884062394,0.0
1744,-0.2982157128777636,-0.009438327217913198,95.35734682587506,0.0
1745,-0.30140647909584906,-0.01202701045174584,95.12624779800353,0.0
1746,-0.30373413048681897,-0.014218154386542321,94.89122254241717,0.0
1747,-0.30510539752148014,-0.01597827709783112,94.65277381934705,0.0
1748,-0.30567161149976874,-0.017397987748319625,94.41139603901638,0.0
1749,-0.30578939656954895,-0.018661914905249863,94.1675749933891,0.0
1750,-0.3059293769365888,-0.019991464286299394,93.92178764241378,0.0
1751,-0.30655087422328836,-0.02157364787121536,93.67450195259174,0.0
1752,-0.30797020383599527,-0.0234933704521868,93.42617678563887,0.0
1753,-0.31025525575581514,-0.025686704928354273,93.17726183497261,0.0
1754,-0.3131764029269262,-0.02792860605224994,92.92819760774204,0.0
1755,-0.31623181689774343,-0.0298609738371673,92.67941545012398,0.0
1756,-0.3187459584018873,-0.03105761706756679,92.43133761363269,0.0
1757,-0.3200191648177002,-0.031113624070766576,92.18437736023073,0.0
1758,-0.3194912757668704,-0.02974005972875269,91.93893910408588,0.0
1759,-0.3168784733011105,-0.02684238857198137,91.69541858788737,0.0
1760,-0.3122506606114695,-0.022563273813008704,91.45420309171696,0.0
1761,-0.30603293381588365,-0.01727705406898291,91.21567167256221,0.0
1762,-0.29893305575518886,-0.01153292868821484,90.98019543266084,0.0
1763,-0.29181191675643925,-0.0059547261087527,90.74813781497454,0.0
1764,-0.2855225376554534,-0.0011149080722153652,90.51985492420721,0.0
1765,-0.2807448599819609,0.0025928063219314698,90.29569587190474,0.0
1766,-0.27784088345278585,0.005055582827876098,90.07600314430215,0.0
1767,-0.27675168890189367,0.006494740411072111,89.86111299171455,0.0
1768,-0.2769569252028791,0.0074545050507546385,89.6513558384062,0.0
1769,-0.2775162343961114,0.008722526612309614,89.44705671200992,0.0
1770,-0.2772047290379428,0.011192289309304528,89.24853569171223,0.0
1771,-0.27473614215459224,0.01569067866527717,89.05610837456453,0.0
1772,-0.269039652382234,0.022803473074884638,88.87008635942867,0.0
1773,-0.25952966712784825,0.03273487119938461,88.69077774821501,0.0
1774,-0.2462954366966696,0.0452328922509249,88.5184876642246,0.0
1775,-0.23014882583825638,0.05960079032291596,88.35351878756295,0.0
1776,-0.21250385359857946,0.07479754666886854,88.19617190775175,0.0
1777,-0.19510967594257766,0.08961160067122505,88.04674649382758,0.0
1778,-0.17970151903060097,0.10287550494516684,87.90554128238408,0.0
1779,-0.1676552396565842,0.11367901863735633,87.77285488418511,0.0
1780,-0.1597244510929729,0.12153678455511194,87.64898641015463,0.0
1781,-0.15591128009899588,0.12647467649003097,87.5342361177325,0.0
1782,-0.15548727511289376,0.12901458939216487,87.42890607877729,0.0
