,PPG_Raw,PPG_Clean,PPG_Rate,PPG_Peaks
0,0.13746626894252298,0.09999776901384111,92.98769458342049,0.0
1,0.22746747243977616,0.20390776480202588,92.98769458342049,0.0
2,0.31479664434550875,0.30522067202861186,92.98769458342049,0.0
3,0.397653864798999,0.40171809672634295,92.98769458342049,0.0
4,0.47520281448598595,0.4910996140695222,92.98769458342049,0.0
5,0.5475249506571673,0.5713481995166914,92.98769458342049,0.0
6,0.6151233773477723,0.641580445810009,92.98769458342049,0.0
7,0.678603864718501,0.7032473556907297,92.98769458342049,0.0
8,0.7391433268505943,0.7612425255403849,92.98769458342049,0.0
9,0.7995452011418752,0.8241946754379049,92.98769458342049,0.0
10,0.8650491478322402,0.9031512129991921,92.98769458342049,0.0
11,0.9430428523232265,1.0081718138258653,92.98769458342049,0.0
12,1.0409582508496538,1.143101003712397,92.98769458342049,0.0
13,1.161693249823144,1.2998188085718283,92.98769458342049,0.0
14,1.2965479624566012,1.4541857288778657,92.98769458342049,0.0
15,1.4177762707981525,1.5661736355366722,92.98769458342049,0.0
16,1.4757525912088991,1.5858763959028819,92.98769458342049,0.0
17,1.4066108017754932,1.4651874956299862,92.98769458342049,0.0
18,1.1523741139874264,1.1724721352449161,92.98769458342049,0.0
19,0.6877018929586693,0.7055984955620033,92.98769458342049,0.0
20,0.04027985898593489,0.09832227981687211,92.98769458342049,0.0
21,-0.7080804851914516,-0.5832408667879453,92.98769458342049,0.0
22,-1.4432081819459601,-1.25394596067114,92.98769458342049,0.0
23,-2.0538391103492013,-1.8289997714200072,92.98769458342049,0.0
24,-2.464010118799089,-2.2433319417903332,92.98769458342049,0.0
25,-2.6493832300874214,-2.4649383789182826,92.98769458342049,0.0
26,-2.6338982341065744,-2.4984909201047385,92.98769458342049,0.0
27,-2.472590718297772,-2.37901245435952,92.98769458342049,0.0
28,-2.230544849553878,-2.1586470482169107,92.98769458342049,0.0
29,-1.9654553940762656,-1.8913536107443831,92.98769458342049,0.0
30,-1.716424646713562,-1.6202966535751644,92.98769458342049,0.0
31,-1.4995192294764514,-1.3711151898613927,92.98769458342049,0.0
32,-1.3106905242831144,-1.1518936037522602,92.98769458342049,0.0
33,-1.1352085144181634,-0.9584154515704337,92.98769458342049,0.0
34,-0.9594502523630799,-0.7818560524832331,92.98769458342049,0.0
35,-0.7793403948469922,-0.6158072017970596,92.98769458342049,0.0
36,-0.6022178955441713,-0.4603410738816364,92.98769458342049,0.0
37,-0.443061940468608,-0.3222624060938116,92.98769458342049,0.0
38,-0.3183000415105416,-0.21216493103181727,92.98769458342049,0.0
39,-0.24005153999648898,-0.13989364365965007,92.98769458342049,0.0
40,-0.21226529698639096,-0.11028280765123366,92.98769458342049,0.0
41,-0.22933307410342363,-0.12064933239780085,92.98769458342049,0.0
42,-0.27731515718988436,-0.16073065932184627,92.98769458342049,0.0
43,-0.33727688145368845,-0.21488750792760047,92.98769458342049,0.0
44,-0.3896099629114608,-0.26571763976449114,92.98769458342049,0.0
45,-0.4180862970916406,-0.29790766563569976,92.98769458342049,0.0
46,-0.4127740785642178,-0.3012185731646156,92.98769458342049,0.0
47,-0.3714080202640005,-0.2718823404024684,92.98769458342049,0.0
48,-0.2989725377590208,-0.2122377511158996,92.98769458342049,0.0
49,-0.20540612856385826,-0.12898042675319138,92.98769458342049,0.0
50,-0.10197330791277703,-0.03078065111819267,92.98769458342049,0.0
51,0.00232182987450813,0.07388350051440673,92.98769458342049,0.0
52,0.10269259788381313,0.17804677967081883,92.98769458342049,0.0
53,0.19802532419422492,0.2765369114096201,92.98769458342049,0.0
54,0.2883298964113197,0.3654895815320704,92.98769458342049,0.0
55,0.3719053107731152,0.441666011110604,92.98769458342049,0.0
56,0.44408497426593074,0.5021257529780165,92.98769458342049,0.0
57,0.49841448879288397,0.5445068289504561,92.98769458342049,0.0
58,0.5296631075280588,0.5677495189724628,92.98769458342049,0.0
59,0.5369066649159447,0.5727989540841014,92.98769458342049,0.0
60,0.5247350653143108,0.5627991295357316,92.98769458342049,0.0
61,0.5017635214613145,0.5425535452286361,92.98769458342049,0.0
62,0.47730274580349624,0.5174219393135651,92.98769458342049,0.0
63,0.45800051944504827,0.4921242115893535,92.98769458342049,0.0
64,0.4460679921249214,0.469964430112604,92.98769458342049,0.0
65,0.4398027857088195,0.4527516247579667,92.98769458342049,0.0
66,0.4360096428766406,0.441316766883507,92.98769458342049,0.0
67,0.43297547400959885,0.43621973552940635,92.98769458342049,0.0
68,0.4323113830152599,0.4381762322715503,92.98769458342049,0.0
69,0.43845330489249223,0.44794481344212567,92.98769458342049,0.0
70,0.45590228010423306,0.4657730189554921,92.98769458342049,0.0
71,0.4859045028173079,0.49079554574489215,92.98769458342049,0.0
72,0.5249338646496213,0.5208300954169329,92.98769458342049,0.0
73,0.5661509587241749,0.5527963472079174,92.98769458342049,0.0
74,0.6028207155048679,0.5836241629524554,92.98769458342049,0.0
75,0.631366163314776,0.6112332310634015,92.98769458342049,0.0
76,0.6523808409845736,0.6351198861940652,92.98769458342049,0.0
77,0.669645263967021,0.6562943193749775,92.98769458342049,0.0
78,0.6881763644212942,0.6766468844373023,92.98769458342049,0.0
79,0.7120827022301136,0.6980998551093651,92.98769458342049,0.0
80,0.7427269011949823,0.7219760287272574,92.98769458342049,0.0
81,0.7780582643318659,0.7488521198040199,92.98769458342049,0.0
82,0.8139016085811859,0.7788516070835461,92.98769458342049,0.0
83,0.8467490455126359,0.8120445132035999,92.98769458342049,0.0
84,0.8762368063557424,0.848539785759356,92.98769458342049,0.0
85,0.9054479056770228,0.8880594340834986,92.98769458342049,0.0
86,0.9386962124762683,0.929187199275208,92.98769458342049,0.0
87,0.9782776440493601,0.9688613424694805,92.98769458342049,0.0
88,1.0222902791901896,1.0027761414103624,92.98769458342049,0.0
89,1.0647933642468932,1.0270314057879486,92.98769458342049,0.0
90,1.098351289024954,1.0406964264373828,92.98769458342049,0.0
91,1.1181830349781572,1.0482137410618695,92.98769458342049,0.0
92,1.1264799462569637,1.0601437051362324,92.98769458342049,0.0
93,1.134681345724779,1.0909709564038452,92.98769458342049,0.0
94,1.161221836455371,1.153659080787911,92.98769458342049,0.0
95,1.2235263076889473,1.252111018251889,92.98769458342049,0.0
96,1.3259777328948137,1.3741076878175886,92.98769458342049,0.0
97,1.448828814191405,1.4879559575129528,92.98769458342049,0.0
98,1.544382678455992,1.545455791932856,92.98769458342049,1.0
99,1.5448069117325094,1.491857378385959,91.6328604301394,0.0
100,1.381339931860572,1.2808038172614886,90.31967960526497,0.0
101,1.0095398202138985,0.8898895038078551,89.04654029460443,0.0
102,0.43125600460958213,0.3314989022810839,87.81191265198022,0.0
103,-0.29721072045242525,-0.3453575734165859,86.61434383309003,0.0
104,-1.076956075781229,-1.0636441596757082,85.45245338442089,0.0
105,-1.794640530006812,-1.7351720688857424,84.32492895824788,0.0
106,-2.3545943019458324,-2.2806760874231187,83.23052232741256,0.0
107,-2.7020170886319415,-2.6469923161828364,82.16804567596645,0.0
108,-2.8307982649449537,-2.8164212383182474,81.13636814391685,0.0
109,-2.7762699104564166,-2.8061899431291186,80.13441260624727,0.0
110,-2.597645251206602,-2.6592141120117736,79.16115266813121,0.0
111,-2.3575301183439574,-2.429878422102,78.21560985983244,0.0
112,-2.1060747297383924,-2.1695350018263855,77.2968510162086,0.0
113,-1.873878435550527,-1.9157779626660716,76.40398582702144,0.0
114,-1.6723841874568877,-1.6877867815040544,75.53616454542356,0.0
115,-1.4977897157394633,-1.4879055663240157,74.69257584304741,0.0
116,-1.336438904917802,-1.3078231278229278,73.87244480108114,0.0
117,-1.1723148061616275,-1.1366562981847155,73.07503102758741,0.0
118,-0.996238833985769,-0.9680618492337718,72.29962689211231,0.0
119,-0.8128421810313938,-0.804158134520828,71.54555586935324,0.0
120,-0.6404795828419405,-0.6553042659678371,70.81217098431068,0.0
121,-0.5034663616078963,-0.5362675302832625,70.09885335194825,0.0
122,-0.42141402852255827,-0.46051057407783036,69.40501080493189,0.0
123,-0.40159596680294524,-0.4348311001510294,68.73007660351834,0.0
124,-0.43694980430508484,-0.45625027701210286,68.07350822212088,0.0
125,-0.50872229770833,-0.5120762043959484,67.43478620749728,0.0
126,-0.5917338703882423,-0.5828940141311971,66.81341310388913,0.0
127,-0.6607440778143558,-0.6472980580505373,66.20891244079266,0.0
128,-0.6964658829920748,-0.6867717701275071,65.62082777936347,0.0
129,-0.689406362270327,-0.6892975907411372,65.04872181375472,0.0
130,-0.6401861289873683,-0.6508940073874163,64.49217552396003,0.0
131,-0.5566676370431383,-0.575048663838683,63.95078737698294,0.0
132,-0.44982630116585187,-0.4706465593857472,63.424172573387274,0.0
133,-0.3304486340024409,-0.3492803587018305,62.911962336493424,0.0
134,-0.207571408865116,-0.22274624593046322,62.41380324168428,0.0
135,-0.08836019740150514,-0.10120357968033322,61.929356583464546,0.0
136,0.02135284757842293,0.007887075532873822,61.458297778085964,0.0
137,0.11666773698741628,0.10016887158323584,61.0003157997058,0.0
138,0.19396912653486964,0.17431085454498751,60.555112648190054,0.0
139,0.2520672619222265,0.23155418482898593,60.1224028468061,0.0
140,0.29327107854686263,0.274923850780195,59.701912968173794,0.0
141,0.32308401889691,0.30817918706788155,59.2933811869587,0.0
142,0.34799592752253494,0.3347051066153229,58.89655685789833,0.0
143,0.3725204702682225,0.3566724764888441,58.51120011785252,0.0
144,0.39743200000764234,0.3747926911771922,58.137081510661375,0.0
145,0.42015432639898787,0.3887978372892001,57.77398163368207,0.0
146,0.436813794393027,0.3984557278844122,57.42169080495628,0.0
147,0.4449815486916256,0.40463735067101125,57.080008750036846,0.0
148,0.44608782666678704,0.4098621332960976,56.74874430757366,0.0
149,0.4461425326596118,0.41793735283454797,56.42771515282579,0.0
150,0.4536204468609929,0.4327228876400263,56.116747538330635,0.0
151,0.4751455631314181,0.4565024607155078,55.81567605102051,0.0
152,0.5116253413959563,0.48869663506636074,55.524343385133605,0.0
153,0.5574128995509111,0.5255643893106126,55.24260013032043,0.0
154,0.6027759157734186,0.5611362868274489,54.97030457439765,0.0
155,0.6377956185309412,0.5890928359539895,54.707322520249946,0.0
156,0.6557165112044461,0.6048927224320138,54.45352711642776,0.0
157,0.6549947736761882,0.6073427310557471,54.20879870103311,0.0
158,0.639896803158601,0.5990182685636107,53.97302465852931,0.0
159,0.6191516223717933,0.5853877230211944,53.746099289152355,0.0
160,0.6025196553677479,0.5729804136273629,53.52792369064209,0.0
161,0.5968079813051042,0.5672739230143412,53.31840565205164,0.0
162,0.6037712060208897,0.5710393858135895,53.117459559432234,0.0
163,0.6208672333058685,0.5836729007483608,52.92500631322931,0.0
164,0.6434616907050399,0.6016719987800736,52.740973257263526,0.0
165,0.6664228175972284,0.6200430193323827,52.56529411920888,0.0
166,0.6846471410967205,0.6341593936394518,52.39790896251788,0.0
167,0.6938129574467127,0.6414710458171082,52.23876414978213,0.0
168,0.6923190319164134,0.6424939648577163,52.0878123175553,0.0
169,0.6832270192750698,0.6406927009053643,51.94501236270535,0.0
170,0.6739120487821341,0.6412033588295585,51.81032944040305,0.0
171,0.67280982117828,0.6487650946755328,51.6837349738955,0.0
172,0.6852422221118177,0.6655886930401201,51.565206676256146,0.0
173,0.7109238056495916,0.6900240434006284,51.45472858434784,0.0
174,0.7441683800104735,0.7167004136792041,51.35229110528191,0.0
175,0.7761008773748341,0.7383405141160664,51.257891075704805,0.0
176,0.7978736243187997,0.7488396086189545,51.171531834296324,0.0
177,0.8043378906238854,0.7466517235619501,51.09322330791624,0.0
178,0.7974195185128331,0.7372216915420942,51.02298211189572,0.0
179,0.787658603085247,0.7332736293649063,50.960831665030014,0.0
180,0.792353827740367,0.7522510339040599,50.906802319895355,0.0
181,0.8302354497484487,0.811021468756385,50.860931509183004,0.0
182,0.9145260352283905,0.9189169394251202,50.823263908819484,0.0
183,1.0467030764534824,1.07101350972902,50.793851618723025,0.0
184,1.2119634075513033,1.2439790935287487,50.772754362134954,0.0
185,1.3765856567718506,1.3965968672741567,50.76003970455963,0.0
186,1.4887394675782633,1.4760752048560337,50.75578329345035,1.0
187,1.4858595723597565,1.429571648623042,50.75607887246314,0.0
188,1.3103728569592974,1.2183954365958742,50.75696714299831,0.0
189,0.9309673054659015,0.8308234426106479,50.75845043668615,0.0
190,0.361256079356967,0.2891551431884497,50.76053112743858,0.0
191,-0.33470972464841187,-0.35200639314915394,50.76321163200083,0.0
192,-1.056615873623314,-1.0164861461111765,50.7664944105128,0.0
193,-1.6978945098988545,-1.6233455445655998,50.77038196708055,0.0
194,-2.177691314789047,-2.1046156375056753,50.774876850358,0.0
195,-2.459768031526755,-2.4185564150174526,50.77998165413905,0.0
196,-2.552095267841939,-2.5548688836684192,50.785699017960496,0.0
197,-2.4922308582862036,-2.5313207048062947,50.79203162771577,0.0
198,-2.3289534251407664,-2.3841467134261256,50.79898221627983,0.0
199,-2.107783188442548,-2.156227130422257,50.8065535641455,0.0
200,-1.8625040174765488,-1.8869992113041678,50.81474850007142,0.0
201,-1.612451254065151,-1.606636452018733,50.82356990174183,0.0
202,-1.3654329975107111,-1.3350046439691874,50.83302069643861,0.0
203,-1.124928940451998,-1.0841211190227487,50.84310386172564,0.0
204,-0.8975059087537337,-0.8619116783998372,50.85382242614591,0.0
205,-0.695805708352534,-0.6751757299924722,50.86517946993149,0.0
206,-0.535735446083806,-0.5305944254766095,50.87717812572682,0.0
207,-0.43054861790690385,-0.4338146415037266,50.88982157932557,0.0
208,-0.38574006665721783,-0.38754767058430717,50.90311307042121,0.0
209,-0.3970803447453677,-0.3898978343619034,50.917055893371746,0.0
210,-0.4519571644014515,-0.4337932981019933,50.93165339797905,0.0
211,-0.5330234676674851,-0.5077216815701526,50.94690899028267,0.0
212,-0.6227111605232433,-0.597364189597122,50.962826133369084,0.0
213,-0.7068095211519012,-0.6874592451428712,50.97940834819603,0.0
214,-0.7754815274909762,-0.7633727115191848,50.99665921443285,0.0
215,-0.8215050553652294,-0.8122423835958301,51.014582371316926,0.0
216,-0.8375600893990247,-0.8239146661586317,51.033181518526426,0.0
217,-0.8153112246747338,-0.79196477488854,51.05246041707023,0.0
218,-0.7477646146833652,-0.7148436367968495,51.07242289019471,0.0
219,-0.6336858052184996,-0.5968012585767714,51.09307282430849,0.0
220,-0.48096359434638747,-0.44798394150335663,51.114414169925,0.0
221,-0.30635917112071115,-0.2832032635137184,51.13645094262356,0.0
222,-0.13146337445097878,-0.11932941115228396,51.159187224029274,0.0
223,0.023236362337296868,0.028141018330335665,51.18262716281234,0.0
224,0.14379344467775623,0.14835180632320988,51.20677497570685,0.0
225,0.2259738274516394,0.23713879359639056,51.23163494855007,0.0
226,0.27521891879558474,0.2971839453136708,51.25721143734206,0.0
227,0.3034996898816481,0.33623631799813813,51.28350886932671,0.0
228,0.3244164625070159,0.3640314827318598,51.31053174409423,0.0
229,0.34851455311465884,0.38897036229070664,51.33828463470573,0.0
230,0.38031412074364085,0.41565791191228196,51.366772188840564,0.0
231,0.41770452352721726,0.44405482883228403,51.39599912996678,0.0
232,0.45370794918497565,0.4704045878268938,51.42597025853522,0.0
233,0.4799180206998006,0.4894818424633954,51.45669045319802,0.0
234,0.49019477269106515,0.4972778552012197,51.48816467205184,0.0
235,0.48317894924753757,0.4931283013127949,51.52039795390654,0.0
236,0.4630425383404023,0.4805190647216605,51.55339541958002,0.0
237,0.4386897384383452,0.4662883263088939,51.587162273219484,0.0
238,0.4216201477989802,0.458517473571526,51.621703803650284,0.0
239,0.42245787401590634,0.46388187346876364,51.65702538575244,0.0
240,0.4468404668787482,0.48544745289007774,51.69313248186598,0.0
241,0.4926148012406978,0.5217522610230165,51.73003064322552,0.0
242,0.5503661856989646,0.567528389866076,51.7677255114249,0.0
243,0.6074912567905315,0.6157694827765925,51.80622281991251,0.0
244,0.6537356627351065,0.6603014843719244,51.845528395518244,0.0
245,0.6852486074142258,0.6978167872367245,51.88564816001263,0.0
246,0.7052529255903832,0.7285806936056292,51.926588131699106,0.0
247,0.7214620991007891,0.7556022091659276,51.96835442704012,0.0
248,0.7419856600675078,0.7827138975664507,52.01095326231803,0.0
249,0.7716880535755765,0.8124426942343339,52.05439095533157,0.0
250,0.8101521486556226,0.8446003224117592,52.098673927128736,0.0
251,0.8516836234652692,0.8761782335963547,52.143808703777204,0.0
252,0.8874388701309749,0.902555961845,52.189801918172904,0.0
253,0.9090872854799168,0.9194664999579282,52.23666031188802,0.0
254,0.9123935948526272,0.9248399247576395,52.28439073705926,0.0
255,0.8988603353766531,0.91969949124346,52.33300015831734,0.0
256,0.8747759793703807,0.9076933675226211,52.38249565475895,0.0
257,0.8486383864801876,0.8934472901994831,52.43288442196206,0.0
258,0.8284051979798137,0.8804790912464409,52.48417377404592,0.0
259,0.8191995031178734,0.869697956055354,52.53637114577656,0.0
260,0.8214856333098932,0.859376203501442,52.58948409471942,0.0
261,0.8304154407723987,0.8469146924550637,52.643520303439765,0.0
262,0.8378434930023628,0.8318671846190013,52.698487581752794,0.0
263,0.8374567236810729,0.8188481465094388,52.75439386902414,0.0
264,0.8307563221255125,0.8185257428385744,52.8112472365224,0.0
265,0.8298449613302843,0.845242410760454,52.869055889825,0.0
266,0.85404540813931,0.9109918450010752,52.927828171278854,0.0
267,0.920430293353236,1.0171974289939136,52.98757256251713,0.0
268,1.0312152465306232,1.147309788399975,53.048297687033624,0.0
269,1.1627012856508734,1.2638774914698905,53.1100123128166,0.0
270,1.2613109020443956,1.3128866833782644,53.17272535504322,1.0
271,1.251770963947066,1.235816891725999,53.271926160357594,0.0
272,1.0590172901137165,0.9867335950733201,53.44146319845007,0.0
273,0.6385127221447015,0.5490903310765021,53.67924503636204,0.0
274,0.0023209033959074032,-0.05394688289739813,53.98361178179221,0.0
275,-0.7737619468406542,-0.7602098793586936,54.35328045878244,0.0
276,-1.5691102854695838,-1.4811008035221882,54.78729750668762,0.0
277,-2.2562756478555976,-2.1224791756705743,55.2849966822364,0.0
278,-2.740646886802058,-2.607179249723637,55.845960902080535,0.0
279,-2.9844106586364325,-2.8919494814240205,56.46998674984287,0.0
280,-3.006875048583273,-2.9738612458158094,57.15705050267535,0.0
281,-2.8655395034105866,-2.885181999202895,57.90727461925446,0.0
282,-2.6303807383472586,-2.6796243697052633,58.72089368286504,0.0
283,-2.363169925211235,-2.4152792937684495,59.59821881691778,0.0
284,-2.106280962256144,-2.139787563997049,60.539599592091456,0.0
285,-1.879122489397488,-1.881707692478252,61.545382430110635,0.0
286,-1.6798427606768502,-1.6494800578094941,62.61586448501914,0.0
287,-1.4920920712824342,-1.4368414638886025,63.75124195556021,0.0
288,-1.296173485127786,-1.231753359069136,64.95155176019944,0.0
289,-1.0807690004595505,-1.0252669141228807,66.21660549974706,0.0
290,-0.8498369335358058,-0.8172972269724308,67.54591465446767,0.0
291,-0.6218120590869209,-0.6177221671830647,68.93860602938635,0.0
292,-0.42254911198554024,-0.44301363398321936,70.39332659355911,0.0
293,-0.27589702404123817,-0.31012900113179676,71.90813708113434,0.0
294,-0.19558675293605887,-0.23015897798794477,73.48039406339758,0.0
295,-0.18074576851767066,-0.20406668666766326,75.1066206950743,0.0
296,-0.21605558024034244,-0.22191373361454558,76.78236702116716,0.0
297,-0.27634810560732576,-0.26564429271251677,78.50206163889209,0.0
298,-0.334113973208769,-0.31426530341177417,80.25885767497377,0.0
299,-0.3673675426648461,-0.34952545563713777,82.04447748283992,0.0
300,-0.3651625802815116,-0.3601702725382814,83.84906218791608,0.0
301,-0.3289880659229183,-0.34349748025551874,85.66103418042852,0.0
302,-0.269864618416473,-0.30398985928505745,87.46698279469754,0.0
303,-0.20252384849852334,-0.24986487498061916,89.25158557952362,0.0
304,-0.13900585428042866,-0.18906565686091842,90.99757953622473,0.0
305,-0.08405049804476805,-0.12628923467619702,92.68579817364493,0.0
306,-0.03397476461973248,-0.06210184589966872,94.29529081503178,0.0
307,0.020470817572674993,0.005740947703748778,95.80353984190639,0.0
308,0.08844384144247552,0.07958871753778052,97.1867890146269,0.0
309,0.17321084321807623,0.1591833359513668,98.42049127394594,0.0
310,0.26910341928475917,0.24026881242321413,99.47987728025969,0.0
311,0.36281040274754073,0.3152268244117889,100.34063645983005,0.0
312,0.4384570120522914,0.3755141611506982,100.97969098187068,0.0
313,0.48413878466175775,0.41486090659949576,101.37603084991798,0.0
314,0.49694969783871346,0.431837071336677,101.5115665869007,1.0
315,0.4842089685907097,0.4306556167246413,101.50460285556741,0.0
316,0.46033736918886414,0.4198244859351858,101.48389727721126,0.0
317,0.44100577529149276,0.4091563279799724,101.44973631071217,0.0
318,0.43739932299999923,0.40630982500087154,101.40241652332854,0.0
319,0.45280046800389256,0.4142079699935358,101.34224383133778,0.0
320,0.4821272340027263,0.43031207200035754,101.26953274026931,0.0
321,0.5141280007025335,0.44799494843563725,101.18460558761075,0.0
322,0.5357308588953168,0.45944898884005353,101.08779179073673,0.0
323,0.5374976180068645,0.45899160171728093,100.97942710266355,0.0
324,0.517981292801283,0.44550314689104403,100.85985287808138,0.0
325,0.4845212575840872,0.4230907673152437,100.72941535195376,0.0
326,0.4499009309999901,0.3997644491544285,100.588464932808,0.0
327,0.42703473941485404,0.38465635387487596,100.43735551266974,0.0
328,0.4247275994104861,0.38482242567975333,100.27644379542123,0.0
329,0.4457161188131809,0.4027679594229585,100.10608864518872,0.0
330,0.4861147405218355,0.43553866732211644,99.92665045619063,0.0
331,0.5358164143083658,0.4756519552442678,99.73849054530491,0.0
332,0.5810030239139825,0.5135081386971401,99.54197056844517,0.0
333,0.6091635547792384,0.5404247958382107,99.33745196166842,0.0
334,0.6142321169192386,0.5512501161713363,99.12529540777703,0.0
335,0.5985398369668906,0.5457070343410224,98.90586032902084,0.0
336,0.5706161564014838,0.5281214841257004,98.67950440635761,0.0
337,0.5408333460546642,0.505780669911369,98.44658312558695,0.0
338,0.517804697592863,0.48660482386009773,98.20744935053858,0.0
339,0.5070113507500098,0.47695063440755714,97.96245292336937,0.0
340,0.5109332483559762,0.48020455412206026,97.71194029190475,0.0
341,0.529234069594829,0.49648816953867725,97.45625416385067,0.0
342,0.5587681662232931,0.5234225945820128,97.19573318760057,0.0
343,0.5943897725959264,0.5575817671661897,96.93071165926919,0.0
344,0.6311002591856073,0.5960667103302055,96.66151925550125,0.0
345,0.6665031714290651,0.6376021736077085,96.38848079152679,0.0
346,0.7017582192487535,0.6827215126866875,96.11191600386873,0.0
347,0.7403048415331015,0.7329381814699871,95.83213935704799,0.0
348,0.7853932533396872,0.7892030022416897,95.54945987358137,0.0
349,0.8379892561895554,0.8502729671058726,95.26418098652292,0.0
350,0.8956594848247414,0.9117436677392257,94.97660041376406,0.0
351,0.9522353783309034,0.9663597605643026,94.68701005327745,0.0
352,0.998545343076817,1.005829835680326,94.39569589846751,0.0
353,1.025096377052931,1.02382408215369,94.10293797277328,0.0
354,1.0265702594667037,1.0192850043241628,93.80901028265842,0.0
355,1.0060350866582064,0.998831471974838,93.51418078811798,0.0
356,0.9762203306846164,0.9770540505854289,93.21871138983018,0.0
357,0.9568608288125293,0.9739484304477186,92.9228579320858,0.0
358,0.9692494814724792,1.0095354074249783,92.62687022063581,0.0
359,1.0298392343945157,1.0966742314779747,92.33099205460925,0.0
360,1.1439444907779963,1.2339316385780523,92.0354612716688,0.0
361,1.2999577182974908,1.4008438719157692,91.74050980558971,0.0
362,1.4653635798139337,1.557750520329078,91.44636375546814,0.0
363,1.5873415204695764,1.6514383654388904,91.15324346578839,1.0
364,1.6008016890817753,1.6261905481711596,90.83996640958813,0.0
365,1.4444173655416677,1.4378991356874828,90.48648114053643,0.0
366,1.0814278839935803,1.0673644529138628,90.09475064588423,0.0
367,0.517946644544383,0.528517241425507,89.66679325758577,0.0
368,-0.19074693256268838,-0.13152495377991158,89.20466839443489,0.0
369,-0.9521870215431909,-0.841150467128114,88.71046286350096,0.0
370,-1.6635133278295786,-1.5193497156263218,88.1862778390396,0.0
371,-2.2403689477212514,-2.0927272308295617,87.63421661642136,0.0
372,-2.63496394919566,-2.509492928334345,87.05637321812212,0.0
373,-2.838724057447507,-2.746863976552826,86.45482190893362,0.0
374,-2.873516707823377,-2.810796248646792,85.83160765867777,0.0
375,-2.7781877265636292,-2.729465044885504,85.1887375731713,0.0
376,-2.5955648644340306,-2.5434828119732495,84.52817329822355,0.0
377,-2.3632436400360954,-2.296082570787339,83.85182438723136,0.0
378,-2.109983394393592,-2.0256233492298286,83.16154261055058,0.0
379,-1.856997622250615,-1.7613910849564292,82.45911717431122,0.0
380,-1.6207008054699403,-1.5224313049561093,81.74627080767675,0.0
381,-1.4135371414350444,-1.318474160200266,81.02465667066313,0.0
382,-1.2426800494548602,-1.1519441807391382,80.29585602942656,0.0
383,-1.1089600619101914,-1.0203404974419132,79.56137664227188,0.0
384,-1.007859702646866,-0.9186039376683923,78.82265179737783,0.0
385,-0.9323043870232817,-0.8412536473955453,78.08103994222328,0.0
386,-0.8757252514294056,-0.784070084753171,77.33782484476654,0.0
387,-0.8341550615859442,-0.7450464606289215,76.59421622741513,0.0
388,-0.8069504129933224,-0.7243645504817883,75.85135081657114,0.0
389,-0.796148383177222,-0.7233390447091567,75.11029375289574,0.0
390,-0.8045871411073333,-0.7425847331906341,74.37204031027136,0.0
391,-0.8332132454753275,-0.7799824513467242,73.63751787462503,0.0
392,-0.8784551015472497,-0.8292106653178273,72.9075881372016,0.0
393,-0.9307751233056674,-0.8795530633832109,72.18304946044135,0.0
394,-0.9752753125278285,-0.9173514562461109,71.4646393782437,0.0
395,-0.9946657165360027,-0.9289224288300698,70.75303719601268,0.0
396,-0.9741034401297637,-0.9041738572152068,70.04886665942615,0.0
397,-0.906372920928889,-0.8397702685144394,69.35269866430126,0.0
398,-0.7952369900162044,-0.7406902246784723,68.66505398320953,0.0
399,-0.6553492749669041,-0.6194517748607997,67.98640598759658,0.0
400,-0.5085431811378827,-0.4930377145959267,67.31718334706908,0.0
401,-0.3775924450660496,-0.37837013621028515,66.65777269021002,0.0
402,-0.2793576780231545,-0.2877524547362188,66.00852121376978,0.0
403,-0.21964211121570698,-0.2257784989477244,65.36973922935138,0.0
404,-0.19178384648842473,-0.18873935556216637,64.7417026387689,0.0
405,-0.17979429463919072,-0.16669124560653614,64.1246553311134,0.0
406,-0.16498765805798155,-0.14740251797767812,63.51881149621823,0.0
407,-0.13336082111555192,-0.12074131608916083,62.92435785068903,0.0
408,-0.08050899949195423,-0.08195508648791527,62.34145577395937,0.0
409,-0.012070331623144193,-0.03276249445871149,61.770243352968336,0.0
410,0.05991299640195835,0.019976322028446347,61.21083733504049,0.0
411,0.12230714737117754,0.06736679659918698,60.66333498939517,0.0
412,0.16542484586788597,0.1021342328767898,60.12781587843498,0.0
413,0.1858764063253432,0.1214836851280604,59.60434354057188,0.0
414,0.18777732060040775,0.12818183311778975,59.092967086858906,0.0
415,0.18192679167777515,0.1295519158866686,58.59372271411368,0.0
416,0.18239148515175313,0.13482832099504083,58.1066351375598,0.0
417,0.2012698872750937,0.1518999120522514,57.63171894628235,0.0
418,0.24404080261850175,0.18467546295237752,57.168979885002656,0.0
419,0.307825505747615,0.23204732734169253,56.71841606583613,0.0
420,0.38307885212123605,0.2887975886379871,56.28001911380864,0.0
421,0.45754663944718155,0.3480232167468764,55.85377524998313,0.0
422,0.5209665846768431,0.40405420058520175,55.43966631609202,0.0
423,0.5691769569942091,0.4546451800276107,55.03767074458992,0.0
424,0.6061202517383096,0.50152697165917,54.64776447803883,0.0
425,0.6422398580714134,0.5491028489545525,54.269921841721604,0.0
426,0.6891938475631537,0.601886326874788,53.9041163733495,0.0
427,0.7533591336932518,0.6618498852277104,53.55032161369347,0.0
428,0.8319264485828983,0.7269160192486854,53.20851186192772,0.0
429,0.9138905300634791,0.791325775240041,52.87866289943124,0.0
430,0.9851399243666374,0.8477838110121603,52.5607526857523,0.0
431,1.034674865854082,0.8904861401133886,52.25476203040366,0.0
432,1.0590652573852846,0.917744153438471,51.9606752441257,0.0
433,1.0638428157700437,0.9330885257543593,51.67848077323235,0.0
434,1.0618453192602484,0.9443773263576536,51.408171820643574,0.0
435,1.068939982373821,0.961257859701064,51.14974695720909,0.0
436,1.0981109258693134,0.9919903882335378,50.90321072694418,0.0
437,1.1541942975721358,1.0408599037439115,50.66857424983123,0.0
438,1.2321226777113117,1.1070953643255972,50.44585582589217,0.0
439,1.3198862661607995,1.1855351438748896,50.23508154430974,0.0
440,1.404396220368839,1.2685501798111796,50.03628590147175,0.0
441,1.476683125959811,1.3483087296055296,49.84951243193409,0.0
442,1.5339151135626672,1.4185221405073765,49.674814356449865,0.0
443,1.5782580620505384,1.4752732852840094,49.512255251393796,0.0
444,1.6141871244980628,1.5171117168272419,49.36190974412991,0.0
445,1.6457905582040184,1.5449659133487337,49.22386423912723,0.0
446,1.6750951807705268,1.5623625375699506,49.09821767992979,0.0
447,1.702281299967002,1.5759751684004923,48.985082352436926,0.0
448,1.7280969512307527,1.5959008497604852,48.884584735354395,0.0
449,1.7572173719158246,1.6346627050489448,48.796866404143614,0.0
450,1.7997422538198715,1.7040979184970806,48.72208499533029,0.0
451,1.8682123847310743,1.8101165015482978,48.66041523864806,0.0
452,1.969853766135274,1.9465628567426536,48.61205006519362,0.0
453,2.0967214339009814,2.0905287018490606,48.577201800571494,0.0
454,2.2182641407407284,2.201812128823342,48.55610345292291,0.0
455,2.2808636894783327,2.2283743641813487,48.5490101067786,1.0
456,2.2172615662794786,2.1176804855642297,48.55094621362242,0.0
457,1.965758458461919,1.8313580397633817,48.556707517462144,0.0
458,1.4945782229918843,1.3586908118106142,48.56622479900265,0.0
459,0.8216121023842685,0.7240745871744794,48.57943049313428,0.0
460,0.017960002601730807,-0.014853100830493515,48.5962585836007,0.0
461,-0.8099183344725347,-0.7785697321695471,48.61664450126446,0.0
462,-1.5524319690701098,-1.4832380526764828,48.640525025738675,0.0
463,-2.1283689840161975,-2.058966993969203,48.66783819016792,0.0
464,-2.502530938381657,-2.4631619024440594,48.69852318895512,0.0
465,-2.6846965995742846,-2.6854267530017317,48.73252028824466,0.0
466,-2.7139098959523653,-2.7436843413077843,48.76977073898339,0.0
467,-2.637800120161009,-2.6741015103926373,48.810216692393475,0.0
468,-2.497024385679948,-2.5189287071652475,48.853801117701266,0.0
469,-2.319672144603431,-2.316155057733896,48.90046772197686,0.0
470,-2.1232239129237582,-2.0934045504363508,48.95016087194866,0.0
471,-1.9182052121176298,-1.8666189571218705,49.0028255176664,0.0
472,-1.7102191656081327,-1.642549895541037,49.058407117894845,0.0
473,-1.5014372650577645,-1.4232760373785265,49.11685156712859,0.0
474,-1.2936377091078224,-1.210848461518557,49.17810512412664,0.0
475,-1.0922261438321945,-1.0105441779569166,49.24211434187255,0.0
476,-0.9084078504587678,-0.8318664189637982,49.30882599887395,0.0
477,-0.7576756059582901,-0.6871999114006583,49.37818703172142,0.0
478,-0.6555163333236391,-0.5887442965260898,49.45014446883437,0.0
479,-0.6126750582853461,-0.544839739406434,49.524645365327615,0.0
480,-0.6316726571987802,-0.5569380993452568,49.60163673893898,0.0
481,-0.7051201592342915,-0.6182295448132286,49.681065506964366,0.0
482,-0.8161576186097055,-0.7143897839800616,49.7628784241529,0.0
483,-0.9415341963507935,-0.8262379504101511,49.847022021520985,0.0
484,-1.0570402905459817,-0.9335041210645425,49.93344254604931,0.0
485,-1.143363703236921,-1.0185958591597672,50.02208590123355,0.0
486,-1.1897483255802088,-1.069332709951386,50.11289758846441,0.0
487,-1.1941310696837237,-1.0800473011751275,50.20582264921884,0.0
488,-1.1606023623845418,-1.0510498905895007,50.30080560804945,0.0
489,-1.0961409173652494,-0.9869753265541046,50.39779041636546,0.0
490,-1.0080365207681994,-0.8947848634755974,50.496720397003116,0.0
491,-0.9024139928439915,-0.7821203680150539,50.59753818958976,0.0
492,-0.7839228235074363,-0.6563858232893139,50.70018569671121,0.0
493,-0.6565991454554596,-0.5245281803430657,50.80460403089737,0.0
494,-0.5253924136602663,-0.3931840440134473,50.91073346244684,0.0
495,-0.3971768596400569,-0.2687682596429476,51.01851336811679,0.0
496,-0.28020667658649434,-0.15721890142399764,51.12788218070981,0.0
497,-0.1821255666635465,-0.06338709128517706,51.23877733959553,0.0
498,-0.10772872281920887,0.009683813727599966,51.351135242209665,0.0
499,-0.05770389654489738,0.0612405221226795,51.46489119657972,0.0
500,-0.028845180867914766,0.0928067128858312,51.57997937493146,0.0
501,-0.01555644066809636,0.10764588704733657,51.69633276843636,0.0
502,-0.011991292030133494,0.10990853514856813,51.81388314316599,0.0
503,-0.013799236997931619,0.10379566488501146,51.93256099732451,0.0
504,-0.018570410499453738,0.09302687454576386,52.0522955198368,0.0
505,-0.024941324056735104,0.08072639706328533,52.173014550374766,0.0
506,-0.03128381396871893,0.06963451466002857,52.29464454091044,0.0
507,-0.035052478367682105,0.06241655035325744,52.417110518889686,0.0
508,-0.03308865492286406,0.06182759215710831,52.54033605212632,0.0
509,-0.022333311520194132,0.07058244021923715,52.664243215521225,0.0
510,-0.0003551513412684004,0.09092228062769248,52.788752559717025,0.0
511,0.034381810881065844,0.12400737567623743,52.91378308180353,0.0
512,0.08229143142057416,0.16936261292077043,53.03925219819473,0.0
513,0.1423401117885062,0.22463725601306433,53.16507571980228,0.0
514,0.21165093265310791,0.285891012959822,53.29116782963608,0.0
515,0.28531797110694995,0.34847154591651236,53.41744106296583,0.0
516,0.3570530069122798,0.4083193361120066,53.54380629018265,0.0
517,0.4211589296279361,0.46329280847425713,53.670172702503145,0.0
518,0.4753000990037509,0.5139664487210865,53.79644780066183,0.0
519,0.5223388159423524,0.5634324348652673,53.922537386741396,0.0
520,0.5694921674996319,0.6159678838816154,54.04834555929248,0.0
521,0.6246936829577439,0.6749179903513505,54.17377471189755,0.0
522,0.6920966983717661,0.7405815552773654,54.29872553533472,0.0
523,0.7693676038113055,0.8090489334486036,54.423097023498855,0.0
524,0.8482337315664032,0.8727179841575063,54.54678648323815,0.0
525,0.9177150157888233,0.9226512286949788,54.66968954826409,0.0
526,0.9682569357411223,0.9522231923650198,54.79170019729226,0.0
527,0.9952854386661419,0.9608791899869322,54.91271077657011,0.0
528,1.001596487518761,0.9564994034855918,55.032612026945664,0.0
529,0.9982373083887169,0.9549848088148452,55.15129311562812,0.0
530,1.0030775241517589,0.9763187690514668,55.26864167278763,0.0
531,1.0362457043535618,1.037453040536959,55.384543833136696,0.0
532,1.1127065321216536,1.14369331509269,55.49888428263016,0.0
533,1.2336378325810253,1.281407178001499,55.61154631041391,0.0
534,1.3789856148025248,1.4153241992180507,55.72241186614475,0.0
535,1.5039636683629927,1.4929855275995962,55.83136162279539,1.0
536,1.5429475003084527,1.456882087589771,55.938614187069696,0.0
537,1.424204713915375,1.2618897933918025,56.04451248539159,0.0
538,1.0958034381383013,0.8927675986207232,56.14912380384568,0.0
539,0.5557998760894153,0.3750916398014404,56.25251680746578,0.0
540,-0.12843139030717365,-0.22581742458639154,56.35476151391934,0.0
541,-0.8285484513615422,-0.8195093373624041,56.45592926842639,0.0
542,-1.396955747735851,-1.31473770907262,56.556092720015194,0.0
543,-1.7264631340179817,-1.6452499019842357,56.655325799215646,0.0
544,-1.7949012760514582,-1.7875860692686807,56.7537036972893,0.0
545,-1.666043237489636,-1.7644012760405605,56.85130284709401,0.0
546,-1.4485889495825066,-1.6326746768218843,56.948200905679144,0.0
547,-1.244137536151331,-1.4621053371636845,57.04447673870686,0.0
548,-1.1138089222548975,-1.312273756876264,57.140210406793095,0.0
549,-1.0709072764536578,-1.2165917353174198,57.23548315386152,0.0
550,-1.0911576054433318,-1.1774561821174356,57.33037739760248,0.0
551,-1.1301286435152536,-1.1723512083533913,57.424976722128875,0.0
552,-1.1413602438007457,-1.1669038263373321,57.51936587292011,0.0
553,-1.0916796196107954,-1.1292627667588777,57.61363075414535,0.0
554,-0.9706354153936914,-1.0407760972176672,57.70785842845775,0.0
555,-0.7912475478358513,-0.9001400202866363,57.80213711935135,0.0
556,-0.5819931539573728,-0.720940053192437,57.89655621617305,0.0
557,-0.37408598691458117,-0.5247756315034293,57.99120628188397,0.0
558,-0.19019121067674474,-0.3332465235166812,58.086179063664765,0.0
559,-0.03911642175750307,-0.1618018970663162,58.181567506462514,0.0
560,0.08268279226090863,-0.0171529457227394,58.27746576957768,0.0
561,0.18513965020005763,0.10170213751676971,58.37396924639383,0.0
562,0.27782188712904654,0.2001097554910875,58.471174587354724,0.0
563,0.3654594768597473,0.28387561080383666,58.56917972629719,0.0
564,0.44699781744805245,0.3564438345339642,58.66808391025294,0.0
565,0.5174450745309761,0.41795063442564034,58.76798773283634,0.0
566,0.5707747620382758,0.46607730181198886,58.86899317134089,0.0
567,0.6025256254080571,0.4979791020887898,58.9712036276725,0.0
568,0.6116990813463525,0.5123278778722411,59.07472397325465,0.0
569,0.6017728729233658,0.5106600222929351,59.17966059804731,0.0
570,0.5802204644081805,0.4976215234341122,59.28612146382949,0.0
571,0.5562740530117748,0.4801536082732317,59.39421616190362,0.0
572,0.5380608652312804,0.46599628704127144,59.50405597539031,0.0
573,0.5309861876412538,0.4620138621294378,59.615753946290916,0.0
574,0.5379672861666371,0.4727833473328497,59.7294249475082,0.0
575,0.5601613862582464,0.49972919865530857,59.84518576002643,0.0
576,0.5967718973498968,0.5409360242887113,59.96315515546612,0.0
577,0.6443225194141218,0.5916634681405614,60.08345398424315,0.0
578,0.6967913432963071,0.6454955892886297,60.206205269577346,0.0
579,0.7470057305129727,0.6959382873973726,60.3315343076129,0.0
580,0.7884833550336044,0.7381325984222615,60.459568773931395,0.0
581,0.8170941224891614,0.7702341735105243,60.59043883675784,0.0
582,0.8326301831075658,0.7940010387669891,60.72427727718222,0.0
583,0.8400092520425122,0.8142946790065055,60.8612196167419,0.0
584,0.8487619486984037,0.837531879698858,61.00140425273568,0.0
585,0.8696686992106719,0.8695306463247907,61.14497260166767,0.0
586,0.909629318920219,0.9134948815233767,61.29206925124858,0.0
587,0.9679195304207094,0.9688987384232433,61.44284212141406,0.0
588,1.0363764888571207,1.0316977954356066,61.597442634854154,0.0
589,1.103157406889162,1.095733850758406,61.75602589758571,0.0
590,1.1575090732505535,1.1546814160055292,61.91875089013978,0.0
591,1.1933012404170422,1.2036763827320285,62.085780669980224,0.0
592,1.2105601179632752,1.2399914275277477,62.25728258581731,0.0
593,1.2148754228634968,1.2626819430487224,62.433428504531605,0.0
594,1.2144765250629834,1.2717441405791212,62.61439505147997,0.0
595,1.2155502794819801,1.2676621034397653,62.80036386501558,0.0
596,1.2183020747909383,1.2520226012359035,62.99152186612084,0.0
597,1.2171765363401201,1.2291390550437542,63.18806154412336,0.0
598,1.206354171957943,1.2076630443363696,63.39018125954379,0.0
599,1.1872279693371888,1.200521643186581,63.59808556520922,0.0
600,1.172023164683584,1.2217222240918932,63.81198554685889,0.0
601,1.1795656828608316,1.2797815972634978,64.03209918457009,0.0
602,1.2237673308347143,1.3693904880625265,64.25865173644259,0.0
603,1.2992972076634681,1.4645908777634369,64.49187614610081,0.0
604,1.3706106713219492,1.5172930976837191,64.73201347570479,1.0
605,1.3705585180623698,1.4638154433232655,64.99811690650972,0.0
606,1.2132532379313807,1.2394228125739641,65.30843130584442,0.0
607,0.821144827934152,0.7974891007495049,65.66207647769151,0.0
608,0.15814312562456934,0.12732333302001897,66.05827191321141,0.0
609,-0.7463692898911156,-0.7358133945838374,66.49632073892528,0.0
610,-1.7963524359375889,-1.712891714281925,66.97559434052863,0.0
611,-2.8530102155137635,-2.695849173951445,67.49551741494865,0.0
612,-3.7733005674962405,-3.5708165532546428,68.05555322580067,0.0
613,-4.4475733363476415,-4.242810095507254,68.65518885589113,0.0
614,-4.823266828843072,-4.6545258591247745,69.29392026590699,0.0
615,-4.907869888478697,-4.794182664297169,69.97123698187433,0.0
616,-4.753302927509928,-4.691251405191249,70.6866062462586,0.0
617,-4.432079658674451,-4.402792657644712,71.43945647958671,0.0
618,-4.016652772931216,-3.9956302748395887,72.22915991208298,0.0
619,-3.566258671768435,-3.530078777829491,73.05501425893983,0.0
620,-3.1190891867943518,-3.049591713282158,73.91622332946723,0.0
621,-2.6889580329080944,-2.5782136763520587,74.8118764805162,0.0
622,-2.2698385555457796,-2.124982007975415,75.74092684937256,0.0
623,-1.8496675838914869,-1.6922618953724302,76.70216833195401,0.0
624,-1.4269169281475766,-1.2840477611681067,77.69421130987375,0.0
625,-1.0192097476670923,-0.9108057999076555,78.715457176041,0.0
626,-0.6588232370071931,-0.5892217281001887,79.76407176424091,0.0
627,-0.37943721439217915,-0.33749541989218335,80.83795785477038,0.0
628,-0.20261238826095518,-0.1686271633479266,81.93472700674843,0.0
629,-0.12986959558456457,-0.08475971843400698,83.05167105890644,0.0
630,-0.14204870340595388,-0.07493882364671278,84.18573374479944,0.0
631,-0.2052287063926157,-0.11706982585440673,85.33348298510715,0.0
632,-0.28096696123119813,-0.18313056420263063,86.49108454780038,0.0
633,-0.33705775025404705,-0.24556322212923565,87.65427790408107,0.0
634,-0.35465713738772886,-0.2826022800251805,88.81835525041711,0.0
635,-0.32929989693291617,-0.28104814757411134,89.97814480926415,0.0
636,-0.2662536138927527,-0.23623005900031502,91.1279996558742,0.0
637,-0.1733941654435862,-0.1500184937911152,92.26179343654582,0.0
638,-0.05582881400501982,-0.02826912511036117,93.37292443328916,0.0
639,0.08501647162256154,0.12113418718503888,94.45432947773841,0.0
640,0.24820373919436822,0.28918638438670163,95.4985092082974,0.0
641,0.4288243852915431,0.4659312557830244,96.49756608320745,0.0
642,0.6156386319341435,0.6406042903638828,97.44325639304901,0.0
643,0.7926837283556782,0.802329332712673,98.32705724548971,0.0
644,0.9440994872565474,0.9414511322936086,99.14024911287085,0.0
645,1.059300374291062,1.0510617996523048,99.87401403523702,0.0
646,1.1355494064998277,1.1280477015690786,100.5195489613576,0.0
647,1.17705836406093,1.1731592475177235,101.06819300185177,0.0
648,1.1919710812579076,1.1900634205188507,101.5115665869007,1.0
649,1.1889161905240213,1.1838116221958135,101.89893912637157,0.0
650,1.1739690429022342,1.159393899910296,102.2847374275262,0.0
651,1.1488665676853995,1.1209432768290402,102.66861050587018,0.0
652,1.1118110823244378,1.0717689189271025,103.05019836995264,0.0
653,1.0610942603341542,1.0149449902301437,103.42913208591308,0.0
654,0.9991436224916028,0.9539135111297459,103.80503387047845,0.0
655,0.933536777127082,0.8926263896367576,104.17751721392189,0.0
656,0.8739427421905666,0.8351066965985863,104.54618703447704,0.0
657,0.8274842019020536,0.7847222287245169,104.91063986567592,0.0
658,0.7960814803924903,0.7436680758090337,105.27046407803715,0.0
659,0.7772582601789302,0.7130218594597117,105.62524013648151,0.0
660,0.7670999263843097,0.6933569561323973,105.97454089478612,0.0
661,0.7631420502768339,0.6855152634386332,106.31793192831003,0.0
662,0.7659673899652567,0.6909855998020258,106.65497190613104,0.0
663,0.7793122362792312,0.7115049390446568,106.98521300362462,0.0
664,0.8085193358557399,0.747920445364024,107.3082013563926,0.0
665,0.8573110240965658,0.7988128729595003,107.62347755630744,0.0
666,0.9241055425506255,0.8596419951754539,107.93057719028312,0.0
667,1.0003088878137745,0.9230646288601251,108.22903142220864,0.0
668,1.0723959200032016,0.9805988666644161,108.51836761829126,0.0
669,1.1271698253477866,1.0251620091566416,108.79811001585013,0.0
670,1.1573017826216911,1.0535044828736768,109.06778043537797,0.0
671,1.1641268151956954,1.067463474621111,109.3268990354512,0.0
672,1.1567012690426908,1.0733486142566186,109.57498510981542,0.0
673,1.1481733046812719,1.0795028079997722,109.81155792570712,0.0
674,1.150950979284585,1.0928575450784574,110.03613760219291,0.0
675,1.1718483105952886,1.1158062910535766,110.2482460270167,0.0
676,1.2087511823189994,1.144734077879665,110.44740781014683,0.0
677,1.2507231252742759,1.1710228808507201,110.63315127190558,0.0
678,1.2823197899566148,1.1844534319997144,110.80500946325277,0.0
679,1.2904365690417392,1.1779516208914051,110.96252121547822,0.0
680,1.2704544329227039,1.151938519062678,111.10523221624227,0.0
681,1.2291701005412978,1.1164130713619762,111.23269610859023,0.0
682,1.1838753635005617,1.0894228693975885,111.34447560925925,0.0
683,1.1579991278972899,1.0916543005618167,111.44014364229587,0.0
684,1.1736180984813367,1.1382204652930459,111.51928448371777,0.0
685,1.2415639825945366,1.2299515842638442,111.58149491268074,0.0
686,1.3517487264075172,1.3471699552081073,111.62638536435983,0.0
687,1.467930114867849,1.4487124076402815,111.65358107952545,0.0
688,1.5304233037079578,1.477730460056985,111.66272324559078,1.0
689,1.4676608631122867,1.3737837972039681,111.64235502444093,0.0
690,1.2148120215109215,1.0885312459421226,111.58251852719813,0.0
691,0.735285612133712,0.6007008550490877,111.48517278522912,0.0
692,0.03819043893995633,-0.07430795594618211,111.35234195771962,0.0
693,-0.8165323420805679,-0.8835652448911344,111.18610243610814,0.0
694,-1.729845040992187,-1.745300625138598,110.98857044731817,0.0
695,-2.588333197141945,-2.5649584563139842,110.76189025883545,0.0
696,-3.291565299651362,-3.2541340483198566,110.50822307149951,0.0
697,-3.7725264054576115,-3.74715426132675,110.22973666889514,0.0
698,-4.006730761489495,-4.0110832786781145,109.92859587580782,0.0
699,-4.009582065354262,-4.047245704866029,109.60695386264976,0.0
700,-3.824014033795667,-3.885043358472827,109.26694431831513,0.0
701,-3.5035964825686126,-3.5709402808100097,108.9106745007642,0.0
702,-3.0984627566761893,-3.156377301608309,108.54021916289634,0.0
703,-2.6488859725532476,-2.687958148379445,108.15761534102067,0.0
704,-2.1850445889043137,-2.2019122957798865,107.76485798449984,0.0
705,-1.728199627680456,-1.723202671549835,107.3638963979109,0.0
706,-1.2916168824324645,-1.2682505208096773,106.95663146129385,0.0
707,-0.8834551822257249,-0.8493969790658229,106.54491358966578,0.0
708,-0.5125279947608615,-0.47900164965326447,106.13054138987704,0.0
709,-0.19354779546774514,-0.17146971392417065,105.71526097096503,0.0
710,0.05269409427950422,0.05761064301903973,105.30076586330878,0.0
711,0.20510982943808598,0.19489448420765743,104.888697501982,0.0
712,0.2506565113958982,0.23391985793108672,104.48064623062626,0.0
713,0.1908365653944013,0.17908493943408244,104.07815278380781,0.0
714,0.0438620840945787,0.047264242266000345,103.68271020806779,0.0
715,-0.15778557830113848,-0.13382290557492327,103.29576618463533,0.0
716,-0.37352686221472087,-0.3302440061512194,102.91872571995167,0.0
717,-0.563181389576269,-0.5081990235310782,102.55295417367745,0.0
718,-0.6956517643799979,-0.6402216048296062,102.19978059765938,0.0
719,-0.7549957025788612,-0.709467919330969,101.86050136336306,0.0
720,-0.7415638356558776,-0.7110330774680512,101.53638405949788,0.0
721,-0.6679271087087142,-0.650284225312007,101.22867164593733,0.0
722,-0.5518675640344273,-0.5391824749559038,100.93858685456256,0.0
723,-0.4098507656415822,-0.39210932313071056,100.66733683232113,0.0
724,-0.25336606395970007,-0.22263555483751274,100.4161180266104,0.0
725,-0.0886200728663632,-0.04205325478047661,100.18612131808472,0.0
726,0.08116667851064963,0.14037087751682198,99.97853741118314,0.0
727,0.25221952778150536,0.31619915859432113,99.79456249812822,0.0
728,0.417274161223947,0.4767789884439325,99.63540421791394,0.0
729,0.5650116456225667,0.6132397680556408,99.50228793796754,0.0
730,0.6824292230295228,0.717803251734458,99.39646339281786,0.0
731,0.7590914902486992,0.7859387617423247,99.31921172135672,0.0
732,0.7914186068988689,0.8183610933887432,99.27185295226745,0.0
733,0.7853024629145204,0.8217877091089982,99.2557539960807,1.0
734,0.755711003661607,0.8077979337665139,99.32724757662392,0.0
735,0.7226659983077993,0.7899077345684499,99.53642175924782,0.0
736,0.7045312200468282,0.7797667790530789,99.87607119256847,0.0
737,0.7113648554396629,0.783846010184837,100.3398348377294,0.0
738,0.7416415079003347,0.8018856611787465,100.92201426065449,0.0
739,0.7839272033693304,0.8277278241202123,101.61741082671408,0.0
740,0.8222906259371118,0.8522245106159435,102.42117644762541,0.0
741,0.8427731308386732,0.867084961410823,103.32867356052985,0.0
742,0.8386608209556881,0.868154241711354,104.33534083776922,0.0
743,0.8131056120612398,0.8568560335863877,105.43656180421372,0.0
744,0.7780520590468003,0.8392920956088334,106.62753413372063,0.0
745,0.7493039625173554,0.8234632737939411,107.90313795435617,0.0
746,0.739491442913513,0.8158598271026455,109.25780205379395,0.0
747,0.7524269629652471,0.8189226533611136,110.68536747758498,0.0
748,0.7818911904022723,0.8304768674725229,112.17894868563548,0.0
749,0.815199431826443,0.8453468354661926,113.73079320381952,0.0
750,0.8393586500812342,0.8583663312031333,115.3321415999855,0.0
751,0.8470452586220018,0.8673436521925181,116.97309063997113,0.0
752,0.8402785532388108,0.874531098996908,118.64246364036107,0.0
753,0.8303348177296153,0.885808429953205,120.32769331359655,0.0
754,0.8333642122621174,0.9078563913008764,122.0147237566499,0.0
755,0.8629838311641733,0.9446095066571234,123.68793959511592,0.0
756,0.9231975613947516,0.994761557363477,125.33013155173673,0.0
757,1.005541123491443,1.0517689631920568,126.92250871272343,0.0
758,1.0923596293185378,1.106716615448378,128.44476832676904,0.0
759,1.164727871176355,1.1529941075056749,129.87523386668659,0.0
760,1.2111710858744469,1.1905976884805933,131.1910710712844,0.0
761,1.2333825130454261,1.227590142579499,132.36858953545405,0.0
762,1.246563378419482,1.2770804132287719,133.38363395089704,0.0
763,1.2733536440553985,1.3498498681149007,134.21206424190657,0.0
764,1.331752805266654,1.4448505763903328,134.83031767081695,0.0
765,1.4200583819169994,1.5413770503716357,135.21603879340722,0.0
766,1.5051904275790782,1.596959403193154,135.34875544920095,1.0
767,1.522061233827714,1.5535481909885078,135.26476891129755,0.0
768,1.3884811082278636,1.3516597172519456,135.01786401110485,0.0
769,1.0330663400248863,0.9488414395654667,134.6164269418843,0.0
770,0.4261438887697089,0.33649083817552317,134.06976625861816,0.0
771,-0.40015870932181175,-0.4511302353306228,133.38792251983236,0.0
772,-1.3534355228399406,-1.3395853628281071,132.58147923258898,0.0
773,-2.3050120289239984,-2.2286165240742895,131.66138032849508,0.0
774,-3.126034768247179,-3.0140522287905367,130.63875853388413,0.0
775,-3.720352695016093,-3.610600744193318,129.52477804864566,0.0
776,-4.042924654846173,-3.968757070559082,128.330493982636,0.0
777,-4.10128841069696,-4.081311533844437,127.06673007276838,0.0
778,-3.9443693308249763,-3.978563687492032,125.74397536128254,0.0
779,-3.6438609256926973,-3.7149315538585004,124.37229978608214,0.0
780,-3.2722951708207466,-3.351998899077924,122.96128803402118,0.0
781,-2.8835953529845444,-2.9435103966135516,121.5199905427735,0.0
782,-2.5036271749492296,-2.526437041645548,120.05689020235748,0.0
783,-2.134369997244632,-2.119639372341438,118.57988309266275,0.0
784,-1.767190930896521,-1.7288748351886096,117.0962714832018,0.0
785,-1.396265044758653,-1.354934497284085,115.61276729825506,0.0
786,-1.0262924624764764,-1.001151717438074,114.13550429650893,0.0
787,-0.6740355031850958,-0.6773953006500777,112.6700573118277,0.0
788,-0.3651064147608992,-0.39942516245412674,111.22146703520448,0.0
789,-0.12685971629811854,-0.18440505017463893,109.79426897357125,0.0
790,0.021103568249969618,-0.04475424542747786,108.39252538774457,0.0
791,0.07514134409149353,0.017040568585876437,107.01985918042729,0.0
792,0.050290815326111904,0.010603581760249892,105.67948886916777,0.0
793,-0.02397643947496031,-0.04392371923136029,104.37426393375047,0.0
794,-0.11273389703746806,-0.12054705782347075,103.10669996956928,0.0
795,-0.18521013988271928,-0.19339061532362378,101.87901320639779,0.0
796,-0.2215015616788375,-0.24192228907620283,100.69315406496382,0.0
797,-0.2146985307053545,-0.25390023134376655,99.55083952201005,0.0
798,-0.16859185891683437,-0.2255443350552222,98.45358413880693,0.0
799,-0.09251251462254406,-0.159521332977,97.40272967949674,0.0
800,0.004314940124113598,-0.062027308670374204,96.39947330554601,0.0
801,0.11644349083714522,0.059680105890539625,95.44489438245374,0.0
802,0.24241398068516107,0.19846174875200806,94.53997997623355,0.0
803,0.38187799569234726,0.34716055361344245,93.68564915157417,0.0
804,0.5316988889662405,0.4978307359805848,92.88277621245817,0.0
805,0.6834839861612281,0.6413031954564047,92.13221305078743,0.0
806,0.8240187241805996,0.7678140143511702,91.43481079057052,0.0
807,0.938638847433334,0.8687887176385832,90.79144093576167,0.0
808,1.0163121988891075,0.9391701793346511,90.20301625015311,0.0
809,1.0542217560535003,0.9792494182580331,89.67051161906373,0.0
810,1.059481142519362,0.99502138263037,89.19498516621188,0.0
811,1.0468334654523082,0.9966296445881454,88.77759992646422,0.0
812,1.0332797814437074,0.9952521235159097,88.41964640760321,0.0
813,1.032104172322807,0.9994704656507097,88.1225664135425,0.0
814,1.0485958329325928,1.012458283718463,87.88797854952318,0.0
815,1.0785336783965005,1.0310871488038513,87.71770588912479,0.0
816,1.1096933216278657,1.047366009451686,87.613806356339,0.0
817,1.126349726692659,1.051754314224985,87.57860646713003,1.0
818,1.115817084628263,1.0371546417665098,87.65294406132003,0.0
819,1.0743912726232674,1.0020898895053096,87.870733881486,0.0
820,1.0095257957999144,0.9518400470748969,88.22507557371536,0.0
821,0.9370892029357252,0.8970661760547081,88.71012856291867,0.0
822,0.8755040436194068,0.8503950748438491,89.32090653005082,0.0
823,0.8396676468006385,0.8222078601515039,90.053096185226,0.0
824,0.836453843497724,0.8171768335405868,90.90289300838235,0.0
825,0.8624368831403535,0.8328210685846544,91.86684796235353,0.0
826,0.9045431969553533,0.8606052819589624,92.94172017993516,0.0
827,0.9443639112726073,0.889157635644257,94.12433139266658,0.0
828,0.9653780415621905,0.9083816522126578,95.41141848762136,0.0
829,0.9599966227520057,0.9129043377544293,96.79948111878736,0.0
830,0.9325211947938663,0.9035903448777745,98.28462182350701,0.0
831,0.8963510940262741,0.8866550142795127,99.86237666091826,0.0
832,0.867419286769058,0.8708838361468714,101.52753505734069,0.0
833,0.857570588127481,0.8641843328660683,103.27394837339222,0.0
834,0.8704730169770651,0.8708547944441279,105.09432776055603,0.0
835,0.9008332671574666,0.8905152201136919,106.98003321059417,0.0
836,0.9368829949319609,0.9188425149040804,108.92085737229174,0.0
837,0.9655569911494879,0.9494714254472763,110.90480975333183,0.0
838,0.9784762840198623,0.9760311922751934,112.91790934864447,0.0
839,0.9755610665533472,0.9934637281895647,114.94399650213974,0.0
840,0.9637010610428428,0.9984011572818761,116.96457781071307,0.0
841,0.9510378351362772,0.9890928943097453,118.9587209214846,0.0
842,0.9409137981481362,0.9657024228240575,120.9030188469095,0.0
843,0.9301447753240953,0.9314613118861961,122.77164549353522,0.0
844,0.9130986917354749,0.8942838800421273,124.5365249125933,0.0
845,0.8887799267747499,0.8675105616558005,126.16763568752118,0.0
846,0.866112594059816,0.8681065951642324,127.63346820774503,0.0
847,0.8636378317620415,0.9113222692518409,128.90164576782797,0.0
848,0.9021803687762353,1.0024471746731998,129.939710158952,0.0
849,0.991463415180134,1.1282347325159392,130.7160588069903,0.0
850,1.1147839986553194,1.2518698542708697,131.2010042912059,0.0
851,1.2194905959156475,1.3151255096125487,131.36790970069504,1.0
852,1.2218782144258218,1.2492900832795437,131.31599412154006,0.0
853,1.0300607969156055,0.9930981319682677,131.16363857947252,0.0
854,0.578641975950186,0.5125898004565053,130.9162413003321,0.0
855,-0.13959955356101694,-0.18387781380736412,130.57955363829376,0.0
856,-1.0609245299197423,-1.0413223688945008,130.15960331945087,0.0
857,-2.0644293016039024,-1.9669705008543876,129.66262002805593,0.0
858,-3.0069973053115655,-2.8500823489282547,129.09496463028043,0.0
859,-3.763990736593192,-3.5867527313974588,128.4630630929053,0.0
860,-4.259070207823578,-4.102114524427552,127.77334591194762,0.0
861,-4.47397287188336,-4.363614610741548,127.03219362950877,0.0
862,-4.440009346376724,-4.382378138059323,126.2458887947752,0.0
863,-4.21992430801123,-4.203666899296207,125.42057452367472,0.0
864,-3.8877354460083393,-3.8905956424115353,124.56221963563688,0.0
865,-3.510110885061851,-3.5066744025545926,123.67659019772887,0.0
866,-3.1323222794513432,-3.102226569732739,122.7692271869224,0.0
867,-2.773160937682322,-2.7077527069145138,121.8454298897719,0.0
868,-2.4306564139285736,-2.334698468017417,120.9102445936455,0.0
869,-2.094272911331741,-1.9817483066898438,119.96845808236476,0.0
870,-1.756119450192907,-1.6434054264348754,119.02459542872359,0.0
871,-1.4169073102052587,-1.3175116057600114,118.08292157367832,0.0
872,-1.0871662536277868,-1.0093225730078472,117.14744619381894,0.0
873,-0.785447046215344,-0.7312896450508009,116.22193138196265,0.0
874,-0.533870943810376,-0.49924206819967853,115.30990169751928,0.0
875,-0.3512382002100738,-0.3267683219272457,114.41465618114566,0.0
876,-0.24584756605815894,-0.22000252280649013,113.53928196996745,0.0
877,-0.2114290929335909,-0.17468678247510105,112.68666919351462,0.0
878,-0.22818896021394441,-0.1764621800397358,111.85952687504971,0.0
879,-0.268294781659558,-0.2041726826808734,111.06039960708188,0.0
880,-0.3034104454519362,-0.234955268254871,110.29168481276128,0.0
881,-0.3116741088747945,-0.24937566602554528,109.5556504460332,0.0
882,-0.2820859372528183,-0.2350022244278438,108.8544530226211,0.0
883,-0.2151243642464209,-0.18750167974526355,108.19015591103542,0.0
884,-0.11960799876698602,-0.10930411884929048,107.56474784797547,0.0
885,-0.007281269325408624,-0.006746891041260028,106.98016167595408,0.0
886,0.11240510590483133,0.11295274684024015,106.43829333311128,0.0
887,0.23515727897415162,0.2436769874971516,105.94102115648701,0.0
888,0.36152357157668913,0.3807387145353637,105.49022559109672,0.0
889,0.49382748852914116,0.5197939004113871,105.08780942870516,0.0
890,0.6316634465197344,0.6552420591480042,104.73571873305326,0.0
891,0.7682090000931734,0.7792509168364129,104.43596464341657,0.0
892,0.8899368611681132,0.882220119828483,104.19064628688328,0.0
893,0.9807037564867472,0.9547731618190374,104.00197507295626,0.0
894,1.0281438706340886,0.990574610815988,103.87230069357283,1.0
895,1.0286538709996877,0.9887837101883323,103.77541458766227,0.0
896,0.988726077690388,0.9550026361679346,103.68331710982409,0.0
897,0.9229805558948365,0.9001383209213807,103.59579368884813,0.0
898,0.8502003048518726,0.8374309457861363,103.51263232091515,0.0
899,0.7881106846508112,0.7786679521439636,103.4336233889347,0.0
900,0.7477581772699982,0.7309892173821924,103.35855949192963,0.0
901,0.7296789339149176,0.6955229671962627,103.28723528412064,0.0
902,0.7244365252579908,0.6684035217742879,103.21944732339546,0.0
903,0.7180263404556115,0.6437603183712854,103.15499392887335,0.0
904,0.6995508024297187,0.6174275269713626,103.09367504730228,0.0
905,0.6671640405535275,0.5897824008419589,103.03529212804912,0.0
906,0.6295795643189734,0.5664555057286266,102.97964800646545,0.0
907,0.6029322704593103,0.5565460936708282,102.92654679543203,0.0
908,0.6045095643661365,0.5690481835668879,102.87579378490344,0.0
909,0.6455219222313919,0.6089862976431095,102.82719534929137,0.0
910,0.7255476525815525,0.6749234742440209,102.78055886254197,0.0
911,0.831418406754675,0.758948957272114,102.7356926207753,0.0
912,0.9418898945587123,0.8492011106280848,102.69240577236997,0.0
913,1.036415562130498,0.9338875837314043,102.65050825538587,0.0
914,1.103568005159414,1.0051227259285362,102.60981074223042,0.0
915,1.144560009010121,1.061007933824325,102.57012459148119,0.0
916,1.170516484115601,1.1051802220899107,102.53126180678785,0.0
917,1.1959916229661216,1.144169350287163,102.49303500278155,0.0
918,1.2324237424235038,1.1838251892252083,102.45525737792727,0.0
919,1.283665603334636,1.2264103158444168,102.41774269425854,0.0
920,1.344156412442147,1.2695806862352108,102.38030526393821,0.0
921,1.4003541851977008,1.3075820048022095,102.34275994259097,0.0
922,1.4361223132451664,1.333966093437398,102.30492212935602,0.0
923,1.4407035016015195,1.3444391944779543,102.2666077736071,0.0
924,1.4148503686685745,1.3384331212758227,102.22763338828928,0.0
925,1.3705511631386187,1.3186878680654477,102.18781606981719,0.0
926,1.3240980092365633,1.2892319595589452,102.14697352448015,0.0
927,1.287224799664882,1.2530778716623998,102.10492410129386,0.0
928,1.262003463949331,1.2111876350342259,102.06148683123544,0.0
929,1.2418325712165816,1.16361813194869,102.01648147279245,0.0
930,1.2169412976883742,1.1124929125593999,101.96972856375105,0.0
931,1.1814394568003312,1.0651689381781535,101.92104947914059,0.0
932,1.1393491980754265,1.0353327295990689,101.87026649524469,0.0
933,1.1070332706766979,1.0402007922850947,101.81720285957964,0.0
934,1.10904874596638,1.0935116656799884,101.76168286673156,0.0
935,1.1661186337294691,1.1960859549130571,101.70353193993317,0.0
936,1.27857242633247,1.3275282993278974,101.6425767182504,0.0
937,1.4131705245577875,1.4432280827282629,101.5786451492367,0.0
938,1.501615034760108,1.4796359184051688,101.5115665869007,1.0
939,1.454611213716511,1.368026437534367,101.43941718399884,0.0
940,1.1888275508105606,1.0535568787121317,101.360654884489,0.0
941,0.6582403186116828,0.5137946497414266,101.27568300973037,0.0
942,-0.12240538671803458,-0.2297377176694122,101.18490470761657,0.0
943,-1.0735337614001752,-1.1115750239629814,101.0887224886781,0.0
944,-2.069958745900671,-2.034651366337325,100.9875377946725,0.0
945,-2.9757688366358095,-2.8914748133450305,100.88175059986605,0.0
946,-3.68015042474007,-3.587616874583299,100.77175904507284,0.0
947,-4.121529210808689,-4.06041678038387,100.65795910439304,0.0
948,-4.2945742249560555,-4.287805770889372,100.54074428447701,0.0
949,-4.240372802928127,-4.2858394807255005,100.42050535603839,0.0
950,-4.024173462567877,-4.097368028388114,100.29763011724815,0.0
951,-3.7097508148128697,-3.7768069759551772,100.17250318856114,0.0
952,-3.34191653931868,-3.3763759594644007,100.04550583845628,0.0
953,-2.9440421465896356,-2.937566239841427,99.91701583951374,0.0
954,-2.527231381990042,-2.4889227769979207,99.78740735420396,0.0
955,-2.101180662294803,-2.048734414048629,99.65705084972505,0.0
956,-1.6796996443619356,-1.6298662165387237,99.5263130411971,0.0
957,-1.2809660135606786,-1.2440045303575358,99.3955568625041,0.0
958,-0.9255206711044289,-0.9036382057962532,99.26514146406224,0.0
959,-0.6331763883699448,-0.6214888215034415,99.13542223679461,0.0
960,-0.4186457422409595,-0.40821512999852616,99.00675086159791,0.0
961,-0.28721887823757986,-0.26971155008956926,98.87947538360173,0.0
962,-0.23321853222416378,-0.2051698253987433,98.75394031054354,0.0
963,-0.24242712131410005,-0.2065030538837147,98.63048673461144,0.0
964,-0.2966729443235663,-0.2590961722423808,98.5094524771419,0.0
965,-0.37745240334658925,-0.34345766587235294,98.39117225560261,0.0
966,-0.46693736177554146,-0.43732104720807896,98.27597787233807,0.0
967,-0.5472438301777715,-0.5179640840419555,98.16419842460832,0.0
968,-0.6000736376022231,-0.5647272604304359,98.05616053551216,0.0
969,-0.6081115497193991,-0.5617099089692774,97.95218860544891,0.0
970,-0.558106335450052,-0.5003683055776382,97.85260508384278,0.0
971,-0.44473829308625623,-0.38139496298011016,97.75773076092865,0.0
972,-0.2740242084705202,-0.21508291832376025,97.66788507947801,0.0
973,-0.06448295303297191,-0.019584742201656846,97.58338646642657,0.0
974,0.15581525733761292,0.18290655237957698,97.50455268445747,0.0
975,0.3566769212453177,0.37120474803339887,97.43170120368639,0.0
976,0.5152806561143164,0.5299057769995105,97.36514959369688,0.0
977,0.6234625915701869,0.6522863743695658,97.30521593627954,0.0
978,0.6891413099734803,0.7403161527343508,97.2522192593408,0.0
979,0.7309009973135222,0.8018784007085741,97.20647999256634,0.0
980,0.7680827360935389,0.8464305629036234,97.1683204455491,0.0
981,0.8112752924090706,0.8809579909993087,97.13806530922551,0.0
982,0.8582046801285481,0.9078633226056152,97.11604218160501,0.0
983,0.896992702716387,0.9254761781155146,97.10258211892928,0.0
984,0.9143583291821449,0.9306290996631953,97.0980202135572,1.0
985,0.9037857307669958,0.9218291541226885,97.16250917530154,0.0
986,0.869508175912506,0.9013868167913527,97.35130815945833,0.0
987,0.8250123697427513,0.8754841739300212,97.65804653373579,0.0
988,0.7874528091054295,0.8522295449073513,98.07706363679371,0.0
989,0.7707250417577669,0.8387228885251058,98.60326029541268,0.0
990,0.7800353727401204,0.8385891597477229,99.23196543435998,0.0
991,0.8102017935803215,0.8511480621149831,99.95881370301782,0.0
992,0.8487274168206356,0.8725453622570402,100.77963081180249,0.0
993,0.8825561159858201,0.8981963238457009,101.69032388699998,0.0
994,0.905064905880344,0.9252653731088184,102.68677466435577,0.0
995,0.919306840175724,0.9539330410640549,103.76473378896858,0.0
996,0.9357446950359153,0.986858398596375,104.91971490424815,0.0
997,0.966087391044662,1.0271900262077747,106.14688762370363,0.0
998,1.016856253066833,1.0762260555246614,107.44096891052524,0.0
999,1.0858224813622865,1.1319971308015506,108.79611286291136,0.0
1000,1.1624702729133896,1.189562811702046,110.20579943663304,0.0
1001,1.2320047507981151,1.242914665872678,111.66272324559078,0.0
1002,1.2815440987866165,1.287512914721709,113.15868427627343,0.0
1003,1.306157911697332,1.3220884368968644,114.68448313607831,0.0
1004,1.3115691622194592,1.348650659452225,116.22982432135669,0.0
1005,1.3112277501285496,1.3705541578478027,117.78323191824023,0.0
1006,1.3186333914610109,1.389574030669237,119.33198309980693,0.0
1007,1.339202700730303,1.4036591913061098,120.86206569779745,0.0
1008,1.3666690854601509,1.4069406678375482,122.35816692254741,0.0
1009,1.3861612395838885,1.3926048132147826,123.80370087235681,0.0
1010,1.3821471485326937,1.357768960858428,125.18088268105454,0.0
1011,1.3473800523984583,1.308173463536142,126.47085685103738,0.0
1012,1.2892841061323272,1.2599839343968688,127.65388635515293,0.0
1013,1.2310838393945556,1.236656177564488,128.70960732599477,0.0
1014,1.2055901692612991,1.2605757518928749,129.6173514880477,0.0
1015,1.241403699039018,1.3414906328232465,130.35653490135024,0.0
1016,1.3451875419311785,1.4657237726195484,130.90710715399092,0.0
1017,1.4873633699456343,1.5908673653583354,131.250050075503,0.0
1018,1.5990845923420611,1.6495638540612425,131.36790970069504,1.0
1019,1.5847140929483658,1.5631858240288476,131.32697251799019,0.0
1020,1.3480629364919718,1.2626016932518778,131.20659384256763,0.0
1021,0.8250982370845453,0.710112486265312,131.0106197213618,0.0
1022,0.012026763785963679,-0.08460438747616617,130.74312327135456,0.0
1023,-1.023243719127862,-1.060386523191102,130.40836104256988,0.0
1024,-2.1534763223826627,-2.114540530770819,130.0107304751033,0.0
1025,-3.224988895228094,-3.1244360931877946,129.5547290576431,0.0
1026,-4.098112495411933,-3.9743933631351913,129.04491569964523,0.0
1027,-4.680642260275434,-4.579837409515218,128.48587473103666,0.0
1028,-4.944760926020812,-4.901876240385687,127.88218284569089,0.0
1029,-4.923791742774913,-4.94897212385197,127.23837921105574,0.0
1030,-4.690824271923249,-4.7667933283043595,126.55893887872561,0.0
1031,-4.328379164332329,-4.420951756193272,125.84824955132477,0.0
1032,-3.903150504127404,-3.97888033582517,125.11059169109022,0.0
1033,-3.4561247726494484,-3.4962505909563477,124.3501218957376,0.0
1034,-3.0070220786896193,-3.0107503835285248,123.57085941780298,0.0
1035,-2.563701847404344,-2.5430019577684733,122.77667566450306,0.0
1036,-2.1295091112881854,-2.1021082118198593,121.9712864857473,0.0
1037,-1.7085234252432953,-1.6924197361427031,121.15824703752497,0.0
1038,-1.3102732295297423,-1.318603710225168,120.34094899556892,0.0
1039,-0.9515742353922344,-0.987497929784318,119.5226198889596,0.0
1040,-0.6519778418693731,-0.7068907867075382,118.70632432413377,0.0
1041,-0.42454013576051586,-0.4826405769408939,117.89496687557,0.0
1042,-0.268773623209966,-0.31598995622822557,117.09129642924984,0.0
1043,-0.17105857639968458,-0.2024624140135668,116.29791177793425,0.0
1044,-0.11150363223199578,-0.13268532674245437,115.51726828252568,0.0
1045,-0.07189054235497294,-0.09446101454609379,114.75168543059979,0.0
1046,-0.040103261198791706,-0.07492492446084253,114.00335514097715,0.0
1047,-0.009995966425576874,-0.06186249879240946,113.27435068146696,0.0
1048,0.021690414723575024,-0.043975495783385554,112.56663608525277,0.0
1049,0.05916449338923324,-0.01063637033792364,111.88207596950393,0.0
1050,0.1103499689106412,0.0479802575395647,111.22244567746927,0.0
1051,0.18700524072988356,0.13973494021180466,110.58944168240377,0.0
1052,0.3011962025089647,0.268371560658051,109.98469220812787,0.0
1053,0.45896401830055167,0.4312053484700623,109.40976803681046,0.0
1054,0.6543744934349944,0.6179163855685103,108.86619348975213,0.0
1055,0.8678087933025489,0.8115083751271592,108.35545758160816,0.0
1056,1.0703670492115234,0.9916681813779207,107.87902536277477,0.0
1057,1.23299311419251,1.1396756992917332,107.43834947873248,0.0
1058,1.3364838909249577,1.2431936557446381,107.03488198921391,0.0
1059,1.3779304254717986,1.2991458371483853,106.67008650438424,0.0
1060,1.3705086999478246,1.313578164852862,106.34545071008644,1.0
1061,1.3366753501112054,1.29860457982018,106.04119690294391,0.0
1062,1.2983185613010466,1.2677227177367507,105.73680765858232,0.0
1063,1.2687332728028229,1.2314038857861505,105.43268013826994,0.0
1064,1.249475735890589,1.1946475222548822,105.12920256657029,0.0
1065,1.2323538382557495,1.1572595556170733,104.82675432803856,0.0
1066,1.2051878607887165,1.1163999819255168,104.52570609105567,0.0
1067,1.1591781645592099,1.0699886486205394,104.22641995714297,0.0
1068,1.094875834046907,1.0192717876702146,103.92924963416006,0.0
1069,1.0235387531311178,0.9693452085056519,103.6345406318547,0.0
1070,0.9624628231067909,0.9274612145602275,103.34263047830505,0.0
1071,0.926517958377222,0.9000226933135305,103.05384895587005,0.0
1072,0.9208689865558399,0.8897750260278049,102.76851835534382,0.0
1073,0.9390666807681476,0.8945648961214694,102.4869537470922,0.0
1074,0.9669446730057439,0.9082427023110626,102.20946326803542,0.0
1075,0.9893834780525645,0.9232560268501318,101.93634842342698,0.0
1076,0.9964229503113029,0.9337176031024212,101.66790440246947,0.0
1077,0.9866794076995061,0.9375701940055772,101.40442040689692,0.0
1078,0.9673597272667547,0.9369453976618282,101.14617999174381,0.0
1079,0.9507094738208985,0.9366686728019634,100.89346141761479,0.0
1080,0.9478108127981181,0.9416915798021197,100.64653801385818,0.0
1081,0.9626467643727122,0.9546592200211348,100.4056785521417,0.0
1082,0.9901025969424541,0.9746707997795347,100.17114763001968,0.0
1083,1.0193168509773436,0.9976718994802471,99.94320606417428,0.0
1084,1.039953039800317,1.0181623820956016,99.72211129310776,0.0
1085,1.0469787002408024,1.031387988081245,99.50811778915393,0.0
1086,1.0413495329359599,1.035111473942476,99.30147747977409,0.0
1087,1.0276608617710135,1.0303737153726853,99.10244017819413,0.0
1088,1.0115257989894966,1.0211185478194635,98.91125402353825,0.0
1089,0.998050502650593,1.0129258370399037,98.72816593070904,0.0
1090,0.9909220953228215,1.0112661430627639,98.55342205036385,0.0
1091,0.9916433468252175,1.0196959966595749,98.38726823943647,0.0
1092,0.9994184839970705,1.0383654290130364,98.22995054275611,0.0
1093,1.0119914367179277,1.0631970820488863,98.08171568642213,0.0
1094,1.0263653241287929,1.0861220993280822,97.94281158369976,0.0
1095,1.0381058751346917,1.096723939462916,97.81348785431761,0.0
1096,1.0400356779786095,1.0853938085175978,97.69399635816332,0.0
1097,1.0231191780464859,1.0475464734664162,97.58459174449806,0.0
1098,0.9811661245784187,0.9876821823438748,97.48553201794033,0.0
1099,0.9173689296071775,0.921448997530026,97.39707912260505,0.0
1100,0.8483271409550599,0.8738195806587756,97.31949954593054,0.0
1101,0.8020807582196215,0.8723742044764666,97.25306494387993,0.0
1102,0.809315459818026,0.9364274867592999,97.19805278936863,0.0
1103,0.8892607692346669,1.0648317734028798,97.15474704594712,0.0
1104,1.0336596458804947,1.2268734824495615,97.1234388689599,0.0
1105,1.194498855543446,1.3608589903321244,97.10442733660675,0.0
1106,1.283293772411572,1.3832560124384488,97.0980202135572,1.0
1107,1.1883222765772856,1.2078507766016315,97.11215370822607,0.0
1108,0.8090479446040687,0.770388459952158,97.15366613060031,0.0
1109,0.09665673942330755,0.051217932321370285,97.2212566905385,0.0
1110,-0.9172337650360982,-0.9119537221049283,97.31366059327027,0.0
1111,-2.118972795047125,-2.026426795564854,97.4296422594349,0.0
1112,-3.3414131385050796,-3.162290350828746,97.56798897780573,0.0
1113,-4.411098047598936,-4.180626585387205,97.72750494751868,0.0
1114,-5.194576611404461,-4.963653824929788,97.90700567378956,0.0
1115,-5.62629085704345,-5.437991362309402,98.10531268759642,0.0
1116,-5.710692208259101,-5.585015287229519,98.32124856573628,0.0
1117,-5.504402831375656,-5.436855164996794,98.55363223313172,0.0
1118,-5.09148848942209,-5.061083403611445,98.8012745343419,0.0
1119,-4.561208310324174,-4.540029543675728,99.06297406598553,0.0
1120,-3.9902730973287275,-3.951240138603171,99.33751326625867,0.0
1121,-3.4302740327289105,-3.3541246194802143,99.62365476196548,0.0
1122,-2.903444209870626,-2.785077851419963,99.92013797749772,0.0
1123,-2.4092904685486536,-2.260365521090057,100.22567601401619,0.0
1124,-1.939529808423418,-1.7837568175751328,100.53895281070388,0.0
1125,-1.4929857163319449,-1.354961841415706,100.85862060337325,0.0
1126,-1.0816719941608683,-0.9755496360568716,101.18329769890033,0.0
1127,-0.7260394331102125,-0.6507637990085642,101.5115665869007,0.0
1128,-0.44482215701821093,-0.38766672383646594,101.8419724127236,0.0
1129,-0.2465764246855715,-0.1914570562916269,102.17302183817216,0.0
1130,-0.1266317822231331,-0.06213477969798542,102.50318231831294,0.0
1131,-0.06934519899207214,0.006981352903414839,102.83088182425281,0.0
1132,-0.053648060045015544,0.028533211449558005,103.15450904277031,0.0
1133,-0.05916607387731365,0.018862544182646657,103.47241408412168,0.0
1134,-0.07018554735350402,-0.004677288588554207,103.7829097291205,0.0
1135,-0.07616029110633371,-0.025908758499351148,104.0842732456409,0.0
1136,-0.06964050726113435,-0.0311579817301324,104.37474880293675,0.0
1137,-0.04368119112784341,-0.009930106688952556,104.65255050953726,0.0
1138,0.009388908069982937,0.04460992607023395,104.91586609690167,0.0
1139,0.09678467169699623,0.1350444747487587,105.1628612664405,0.0
1140,0.22193190384823946,0.2590870023632794,105.3916847119018,0.0
1141,0.38079594105802594,0.4093810016550088,105.60047382245013,0.0
1142,0.5604420806436365,0.5742055002153382,105.78736106404538,0.0
1143,0.7415524143319426,0.7392722705380412,105.95048102798236,0.0
1144,0.9043085121470271,0.8902969491350963,106.08797812574478,0.0
1145,1.0346004008574523,1.0156173741260772,106.19801489875954,0.0
1146,1.1270547733851146,1.10805659054458,106.27878090033721,0.0
1147,1.1837011605646282,1.1655260128984875,106.32850209523485,0.0
1148,1.210310306738392,1.1903641081071028,106.34545071008644,1.0
1149,1.2134329036922906,1.1878449358138674,106.33539849249857,0.0
1150,1.1990991949491494,1.1644783174248234,106.30554742780853,0.0
1151,1.172088309219547,1.1266281135601641,106.25637172686147,0.0
1152,1.135338336854781,1.079700714933619,106.18836533279887,0.0
1153,1.0904778927542367,1.0278588880705333,106.10204019807516,0.0
1154,1.0396320956309446,0.9740331599072213,105.99792456081433,0.0
1155,0.98662994687219,0.9200028898890171,105.87656122932948,0.0
1156,0.9358195707469756,0.8664721274984233,105.73850588314245,0.0
1157,0.8893262770130962,0.813247460186559,105.58432539830784,0.0
1158,0.845623155144155,0.7596881820130716,105.41459620428193,0.0
1159,0.8012477970195996,0.7054774679883469,105.2299026789821,0.0
1160,0.7543853468736716,0.6515307213957872,105.03083558807266,0.0
1161,0.7072037353714434,0.6006755469625262,104.81799057388929,0.0
1162,0.6653630379137865,0.5577351766403172,104.59196669878804,0.0
1163,0.6360012151633656,0.5288338226990758,104.35336504708084,0.0
1164,0.6261319772841832,0.520025179091786,104.10278738910414,0.0
1165,0.6415365275299363,0.5356042649536028,103.84083491036687,0.0
1166,0.6850189851547934,0.5766092516857891,103.56810700814212,0.0
1167,0.7541456790119545,0.6400061184709704,103.28520015730862,0.0
1168,0.8404155621421918,0.7188666745721968,102.9927068467172,0.0
1169,0.9314320433976504,0.8035471512205796,102.69121458685623,0.0
1170,1.0150079857577556,0.8835601979883739,102.38130498912089,0.0
1171,1.0822877032116838,0.9496360176955889,102.06355291655646,0.0
1172,1.1283216014598585,0.9954569710043475,101.73852570554664,0.0
1173,1.1513472922585875,1.018692460741634,101.40678245755329,0.0
1174,1.152735414779139,1.0211651293724815,101.06887339968793,0.0
1175,1.137531579272483,1.0081702168110502,100.72533931260239,0.0
1176,1.1138397126540873,0.9871245532323041,100.37671102393102,0.0
1177,1.090380019054796,0.9658413682309961,100.02350896529506,0.0
1178,1.0737781247434075,0.950798581234748,99.66624279069075,0.0
1179,1.0674082790714867,0.9457667773353138,99.30541105392732,0.0
1180,1.0716899271688567,0.9510834341466767,98.94150094265459,0.0
1181,1.0842914673491961,0.963725533573283,98.57498806642188,0.0
1182,1.099698949873008,0.9781723431256645,98.20633629613964,0.0
1183,1.1097025247114656,0.9878829752618752,97.83599765226867,0.0
1184,1.106366685008156,0.9870669550062438,97.46441223903885,0.0
1185,1.0862501467905785,0.97235426644975,97.09200822199598,0.0
1186,1.052549574390694,0.9440223025972283,96.71920184619209,0.0
1187,1.0135555506141671,0.906588305547124,96.34639749236763,0.0
1188,0.979236891401198,0.8687174380695082,95.97398776852135,0.0
1189,0.9587888426583394,0.8424110332521902,95.60235363432591,0.0
1190,0.9599739954207919,0.8413198920706217,95.23186455591856,0.0
1191,0.9890111217300869,0.8779220150800688,94.86287868867986,0.0
1192,1.04977291462149,0.959434522793722,94.4957430857034,0.0
1193,1.141937769557525,1.0828337197417124,94.13079392975682,0.0
1194,1.2577182091286379,1.2301547385423186,93.76835678663812,0.0
1195,1.376666720861898,1.365995568729156,93.4087468779374,0.0
1196,1.459944594767029,1.4393605213671414,93.05226937132565,1.0
1197,1.4488948336488832,1.3912157808615504,92.68106333519766,0.0
1198,1.274003477885819,1.1673350208092421,92.27824036067055,0.0
1199,0.8761446388104366,0.7337006982146725,91.84557526025782,0.0
1200,0.2335590173043599,0.0898968434227142,91.3848591207123,0.0
1201,-0.6188165419400504,-0.7243763875340417,90.89788973316229,0.0
1202,-1.5897506053417794,-1.6328396074488802,90.38646261401223,0.0
1203,-2.5539067224277616,-2.5361695065721,89.85236266120897,0.0
1204,-3.3861561154063295,-3.3320107682790536,89.29735647805009,0.0
1205,-3.993012348635318,-3.935703892109686,88.72318538501533,0.0
1206,-4.329516740511798,-4.295864502117465,88.13155912928893,0.0
1207,-4.3986709479575845,-4.400901731073139,87.52415029183476,0.0
1208,-4.239272587994131,-4.2756451335379415,86.90258938315802,0.0
1209,-3.9108698378086237,-3.97023377177362,86.26846061128337,0.0
1210,-3.480056822925704,-3.5453497478472746,85.62329829900645,0.0
1211,-3.0073965772311926,-3.0583431669392978,84.96858392211236,0.0
1212,-2.535627302912888,-2.553886968412816,84.30574373596342,0.0
1213,-2.0841435853626202,-2.0609261552429166,83.63614695457339,0.0
1214,-1.6541172270464004,-1.5954455219600152,82.96110444393489,0.0
1215,-1.2418521502115456,-1.1666799379010486,82.28186788986602,0.0
1216,-0.8519856703714745,-0.7834798330739542,81.59962939989998,0.0
1217,-0.5029099518959985,-0.45794429918289525,80.91552149866509,0.0
1218,-0.22251424908815254,-0.20494184172565266,80.23061747670094,0.0
1219,-0.03768103780674614,-0.03807704933498601,79.54593205363612,0.0
1220,0.036904158625705286,0.0358085942372397,78.86242231803044,0.0
1221,0.005821760862165126,0.020999726642563,78.18098890787935,0.0
1222,-0.10676351993515554,-0.06584431450853812,77.50247739771402,0.0
1223,-0.26348090269541,-0.1981450294221816,76.82767986034378,0.0
1224,-0.4241158063244203,-0.3446570765213368,76.15733657351748,0.0
1225,-0.555607817323345,-0.4756352404298432,75.49213784407401,0.0
1226,-0.637834761110803,-0.5679196259703201,74.83272592446805,0.0
1227,-0.6639136155516151,-0.6076218258762376,74.17969699885519,0.0
1228,-0.6366095511445382,-0.590173240144962,73.53360321817038,0.0
1229,-0.563558667167994,-0.5184684105598093,72.89495476581178,0.0
1230,-0.45327433184494426,-0.4003180469676152,72.26422193762697,0.0
1231,-0.3129181237036254,-0.24630130244267734,71.64183722187727,0.0
1232,-0.14840679801667678,-0.0685321159156721,71.02819736671681,0.0
1233,0.03326999391699059,0.11983833346260953,70.42366542446099,0.0
1234,0.22117022206652825,0.30501988909059397,69.82857276352854,0.0
1235,0.39962662380874314,0.47352651896314035,69.24322104042469,0.0
1236,0.5510945063258129,0.6138816613118643,68.6678841254871,0.0
1237,0.6614844780604778,0.7186904048968166,68.10280997734954,0.0
1238,0.7252015056860717,0.7862378015032849,67.54822246218984,0.0
1239,0.7474334841708327,0.8207662633122372,67.00432311482906,0.0
1240,0.742451857646598,0.8310583726188872,66.47129283964023,0.0
1241,0.728197546310875,0.8276873538683047,65.94929355001685,0.0
1242,0.719287306398032,0.8199279962701086,65.43846974585017,0.0
1243,0.7218339857297257,0.8135147135549632,64.93895002907615,0.0
1244,0.7326996400214146,0.8100710617463541,64.4508485578874,0.0
1245,0.7432377727180416,0.8082788976244271,63.974266440667535,0.0
1246,0.7451939447953804,0.8060723378400232,63.509293071103194,0.0
1247,0.7357068305217378,0.8027150094406172,63.056007406269124,0.0
1248,0.7191932458778056,0.7997526585106272,62.614479189770805,0.0
1249,0.7054801360274947,0.80045207630071,62.184770122271985,0.0
1250,0.705113969580858,0.8081294594322505,61.76693498193935,0.0
1251,0.7239637404502722,0.8243418886065276,61.361022697506,0.0
1252,0.7598333554473109,0.8479781978723796,60.967077376796624,0.0
1253,0.8032438529043956,0.8758042963285227,60.58513929367345,0.0
1254,0.8424279221076861,0.9042337830620952,60.21524583645928,0.0
1255,0.8698937833794591,0.9314127950132851,59.85743242097398,0.0
1256,0.8867463485765253,0.9584921435431256,59.511733371389596,0.0
1257,0.902312341437999,0.9893357212485206,59.17818277216928,0.0
1258,0.929356028676136,1.0286956759479966,58.856815294409564,0.0
1259,0.9773956635998394,1.079669453447682,58.54766699995835,0.0
1260,1.0473441655898283,1.1416361760303304,58.25077612673396,0.0
1261,1.1300138090447418,1.2096545990010896,57.96618385872774,0.0
1262,1.2093584540730467,1.2756068237554206,57.69393508423558,0.0
1263,1.2691028399380753,1.33055506000475,57.43407914593692,0.0
1264,1.2995414125888207,1.3672662502358737,57.18667058652301,0.0
1265,1.3009567038442178,1.3819085285409496,56.95176989367585,0.0
1266,1.281896784241485,1.374481933731428,56.729444248314785,0.0
1267,1.253722469459543,1.3482740675821123,56.51976828016418,0.0
1268,1.225230353957364,1.3090909514370288,56.32282483485596,0.0
1269,1.2007251659174831,1.2649204520732584,56.13870575696632,0.0
1270,1.1819535420453189,1.2260825546328635,55.967512693604,0.0
1271,1.1716048824194574,1.205161881246208,55.80935792341811,0.0
1272,1.1757477147345488,1.2155839055511282,55.66436521618394,0.0
1273,1.2037012829955005,1.2679462189144979,55.53267072845928,0.0
1274,1.2645752910649595,1.3641986152497876,55.414423941187096,0.0
1275,1.3600680442834863,1.4911573815142498,55.309788645559514,0.0
1276,1.4746415208000236,1.6160256723286706,55.218943983960585,0.0
1277,1.567226962058753,1.6868855163946797,55.14208555337816,1.0
1278,1.5708834065287,1.6400829147161629,55.07262114532678,0.0
1279,1.4054731367822257,1.4141455791326358,55.003821613168576,0.0
1280,1.00272367953933,0.9671077008638846,54.935690170526584,0.0
1281,0.33535186474085565,0.29205193637771,54.86823001370428,0.0
1282,-0.5631886242343842,-0.5746023836603353,54.80144432299973,0.0
1283,-1.5996912876898666,-1.5556456438035666,54.73533626401657,0.0
1284,-2.644265044012087,-2.546581369042525,54.669908988971876,0.0
1285,-3.5650656770161606,-3.436551319641662,54.605165638001466,0.0
1286,-4.25942875102147,-4.130761906052366,54.541109340462526,0.0
1287,-4.671086920494393,-4.568241740739351,54.47774321623404,0.0
1288,-4.792779376282226,-4.730556253090647,54.41507037701511,0.0
1289,-4.659405330416696,-4.640088864793442,54.353093927621515,0.0
1290,-4.3353213578497005,-4.349541688160846,54.29181696728054,0.0
1291,-3.896618702296193,-3.926481423319498,54.231242590924765,0.0
1292,-3.4118436612993435,-3.4375555337283235,54.1713738904845,0.0
1293,-2.928682135073111,-2.9363897606453553,54.11221395617972,0.0
1294,-2.471793572234784,-2.457518435067824,54.05376587781125,0.0
1295,-2.04908634216775,-2.0166385793320463,53.99603274605193,0.0
1296,-1.659227035669548,-1.615702215167855,53.9390176537378,0.0
1297,-1.2967501117703886,-1.2503302552645406,53.88272369715961,0.0
1298,-0.9566040048553573,-0.9168624952908281,53.827153977355046,0.0
1299,-0.6397807121352517,-0.6169072609851911,53.77231160140201,0.0
1300,-0.3571907870343154,-0.3582787773713827,53.718199683713124,0.0
1301,-0.12744614118912634,-0.15244518709085875,53.66482134733201,0.0
1302,0.031393379157094614,-0.009746489093872102,53.61217972523145,0.0
1303,0.1110027128091946,0.06566056187541514,53.560277961613835,0.0
1304,0.11766726511052372,0.07916296432653303,53.50911921321458,0.0
1305,0.07138659478890963,0.046074247919361544,53.45870665060816,0.0
1306,0.0009049164110819241,-0.01113170231217897,53.409043459517896,0.0
1307,-0.06313391002309965,-0.06779258683862022,53.3601328421294,0.0
1308,-0.09537165168510708,-0.10257330799601916,53.311978018408254,0.0
1309,-0.08167307475800967,-0.10176813956054742,53.26458222742207,0.0
1310,-0.021731326753554492,-0.06116009089113206,53.21794872866783,0.0
1311,0.07312221215431136,0.014860064937466055,53.17208080340427,0.0
1312,0.1861238781290746,0.11624077564693025,53.12698175599037,0.0
1313,0.3021924561320847,0.230975342140622,53.08265491522977,0.0
1314,0.41247758567893544,0.3482001897376096,53.03910363572206,0.0
1315,0.5146996176828815,0.4598158069828654,52.99633129922114,0.0
1316,0.610052061615783,0.5605426833655658,52.95434131600105,0.0
1317,0.6989923463927956,0.6470105180866573,52.91313712622992,0.0
1318,0.7785496856340713,0.7167637869352003,52.872722201352374,0.0
1319,0.8426505870810258,0.7678681649206376,52.83310004548099,0.0
1320,0.8848738790672382,0.7992831050936299,52.79427419679715,0.0
1321,0.9017235073535987,0.8116309888483623,52.756248228961944,0.0
1322,0.8948425497701602,0.8077257271491973,52.719025752537625,0.0
1323,0.8714496831939493,0.7923488384562004,52.682610416420054,0.0
1324,0.8426535761195922,0.7711983000636944,52.647005909282676,0.0
1325,0.8196642735969555,0.7494444526045311,52.612215961032845,0.0
1326,0.8090775503742517,0.7306204898282976,52.578244344280606,0.0
1327,0.8099491871159399,0.716459470330211,52.54509487582091,0.0
1328,0.8153927162884689,0.7077846520652188,52.512771418129724,0.0
1329,0.8186153800924653,0.705922450432915,52.48127788087455,0.0
1330,0.8194620236240147,0.713715626708193,52.450618222440085,0.0
1331,0.8264310499033135,0.7353436534083986,52.420796451469634,0.0
1332,0.8522408530536552,0.7747846726866225,52.391816628422944,0.0
1333,0.9058319929658677,0.8335418852772308,52.36368286715099,0.0
1334,0.9862246647871924,0.9087527387819961,52.33639933648865,0.0
1335,1.0819237204876089,0.9927142294434239,52.30997026186561,0.0
1336,1.1753700591549154,1.0742410202462913,52.28439992693668,0.0
1337,1.2492296776446552,1.1414599957897424,52.25969267523176,0.0
1338,1.2917653697231368,1.1850418124001725,52.23585291182652,0.0
1339,1.3000259711663884,1.200733962454034,52.21288510503448,0.0
1340,1.2800251134784717,1.1903962484164237,52.19079378812126,0.0
1341,1.2435627739663464,1.1613405798696594,52.16958356104176,0.0
1342,1.203290754460338,1.1243499924667395,52.149259092201326,0.0
1343,1.1692080640095022,1.091069549506495,52.12982512024125,0.0
1344,1.1483392787228137,1.0714667467884178,52.111286455850106,0.0
1345,1.1458871193630569,1.071862153498329,52.0936479836014,0.0
1346,1.164799885078715,1.0938024795994723,52.07691466381837,0.0
1347,1.2033466152681367,1.133885141801288,52.061091534467366,0.0
1348,1.2536115785595308,1.184527337699129,52.04618371308013,0.0
1349,1.303479920228536,1.2355437646225607,52.03219639870653,0.0
1350,1.3410623872060599,1.276251037779069,52.0191348738984,0.0
1351,1.3582199159761954,1.2977161098567094,52.007004506725615,0.0
1352,1.3515966177071714,1.2947646765657548,51.99581075282557,0.0
1353,1.3225395222094904,1.2674445050964935,51.98555915748709,0.0
1354,1.2774149354931246,1.2217237385821693,51.97625535776975,0.0
1355,1.2274906059465382,1.169237344551675,51.96790508466012,0.0
1356,1.1867012804047572,1.1258801018674491,51.96051416526578,0.0
1357,1.1678419664841433,1.1090450504654994,51.95408852504841,0.0
1358,1.1797834472516913,1.1334229969905194,51.94863419009745,0.0
1359,1.2268329800421525,1.2056206648541457,51.94415728944521,0.0
1360,1.307736709094415,1.318467582937251,51.94066405742514,0.0
1361,1.4108226152944057,1.4466291925542807,51.93816083607445,0.0
1362,1.5059023424598221,1.545648552867234,51.93665407758251,0.0
1363,1.539255797650807,1.5563089086370967,51.93615034678641,1.0
1364,1.4391158491263996,1.414951611636353,51.96946769874737,0.0
1365,1.1336715519957652,1.068313271215491,52.06775160173572,0.0
1366,0.5760973090781791,0.48932692142191153,52.22883544026162,0.0
1367,-0.2334094955463346,-0.3108414989332493,52.45095497627853,0.0
1368,-1.2384402656720321,-1.278773219371098,52.732698922601315,0.0
1369,-2.3349850186353804,-2.3249100561293625,53.072966368285556,0.0
1370,-3.3947851348237226,-3.338862596148723,53.47092957833768,0.0
1371,-4.294026984603506,-4.210143322634353,53.92600093045618,0.0
1372,-4.937599171724603,-4.848969543365527,54.437802931146166,0.0
1373,-5.274055240328086,-5.201919185521515,55.006140385751294,0.0
1374,-5.300937430935169,-5.258903301533831,55.63097389158818,0.0
1375,-5.060317481579842,-5.050479416198235,56.3123938879263,0.0
1376,-4.624262127770272,-4.63712278233568,57.050594536814,0.0
1377,-4.074158892806498,-4.0939410219173755,57.845846729346086,0.0
1378,-3.482526608363303,-3.4950013219563374,58.698469516828084,0.0
1379,-2.903877584375751,-2.9009013334710216,59.608799259008464,0.0
1380,-2.373384198127249,-2.3518208162663985,60.577155765718345,0.0
1381,-1.9078492321992409,-1.8666051034988977,61.60380468780489,0.0
1382,-1.507186202183856,-1.4469412279228333,62.688915392765395,0.0
1383,-1.159198739151245,-1.0846557450787684,63.832513545601614,0.0
1384,-0.8488975649036246,-0.7696790355090974,65.03442761313075,0.0
1385,-0.5684479161270366,-0.4963180073836331,66.29422852911348,0.0
1386,-0.3219843858129178,-0.26615362123842057,67.61116180906748,0.0
1387,-0.12317158604521516,-0.08700263263139085,68.98407150102715,0.0
1388,0.01189978506185363,0.031350254083397866,70.41131551806099,0.0
1389,0.07254128449004349,0.08292995765035105,71.89067213915818,0.0
1390,0.059414072888227754,0.07069990118800473,73.41923780878709,0.0
1391,-0.012685551486907531,0.009139533823790291,74.9933168354013,0.0
1392,-0.11589362996330177,-0.07678812569680915,76.60830420904651,0.0
1393,-0.2142640071830999,-0.1561768297011441,78.25856354931379,0.0
1394,-0.2717226622398101,-0.1989946228400047,79.93730317238257,0.0
1395,-0.26099325495634884,-0.18318804685951784,81.63645443350487,0.0
1396,-0.1708479909225985,-0.09993099629506064,83.34655784426045,0.0
1397,-0.00916034182231873,0.04459875525179868,85.05666394058146,0.0
1398,0.1996167682186698,0.23147283615070524,86.75425740993455,0.0
1399,0.4219530693278075,0.43458820161533973,88.42521445083696,0.0
1400,0.6251849298932849,0.627808631951609,90.05380455972686,0.0
1401,0.7864385207829163,0.7914442751962181,91.62274869037617,0.0
1402,0.8975778483596242,0.9161213837632174,93.1133457350956,0.0
1403,0.9649271559538688,1.0030302019712616,94.5056782355136,0.0
1404,1.0044978826316453,1.0608024871913306,95.77890585631498,0.0
1405,1.0345905797303232,1.100416307634983,96.9116512269525,0.0
1406,1.06803111188875,1.130149314308561,97.8824771878066,0.0
1407,1.1067371473843965,1.152478189394585,98.67044739096917,0.0
1408,1.1412792758307724,1.163993109428444,99.2557539960807,1.0
1409,1.1562187518968334,1.1581710746896736,99.7325640851738,0.0
1410,1.1386386572109157,1.1297069940663387,100.20714952342327,0.0
1411,1.0852509267647525,1.078492984748857,100.67909684010279,0.0
1412,1.004822913583437,1.0115040359254128,101.14798044865314,0.0
1413,0.915815894983898,0.9417112256131592,101.61336275230362,0.0
1414,0.8409217284488416,0.8843472309740369,102.07479429092302,0.0
1415,0.8000476802998154,0.8519218254914773,102.53181393142337,0.0
1416,0.8032758643970593,0.8499191633000761,102.98394910400584,0.0
1417,0.8463356917407662,0.8748939377022393,103.43071608648165,0.0
1418,0.9114078225690525,0.9157811426549791,103.8716203388264,0.0
1419,0.9739508900928158,0.9579749945379643,104.30615689002813,0.0
1420,1.0127223135238843,0.9886165559347648,104.73381077916986,0.0
1421,1.0181271515342962,1.0010296773060452,105.15405755254096,0.0
1422,0.9951324753981933,0.9965899534411852,105.56636381840197,0.0
1423,0.960042976362294,0.9833668172464072,105.97018786083015,0.0
1424,0.9331032463052704,0.9721995487414505,106.36498031384787,0.0
1425,0.9300075349608697,0.9718977510718703,106.75018489678374,0.0
1426,0.9553975863578672,0.9855701178617668,107.12523921153691,0.0
1427,1.0008901484584491,1.0095610763359564,107.48957560210411,0.0
1428,1.0487991637250693,1.035341131216071,107.84262207639495,0.0
1429,1.0802694917136637,1.0534359364975125,108.18380328999615,0.0
1430,1.083953326763619,1.057628108134915,108.51254159115615,0.0
1431,1.0606608486712983,1.0475836394104714,108.82825812584854,0.0
1432,1.0218233849691576,1.0287623148537122,109.13037400133481,0.0
1433,0.9834255665583118,1.0096486613418603,109.41831150619214,0.0
1434,0.9590631825404539,0.9974855925921863,109.69149538429625,0.0
1435,0.9548572915324168,0.9943532511382689,109.94935415976289,0.0
1436,0.9671372812576747,0.9953750809878423,110.19132150935206,0.0
1437,0.9831946475743017,0.9900832699095511,110.41683767833538,0.0
1438,0.9854890941763303,0.9667871796301046,110.62535093532124,0.0
1439,0.9588389561263182,0.9185463326945696,110.81631906102955,0.0
1440,0.8982714824350477,0.8484774378536324,110.98921086551523,0.0
1441,0.8140052497290061,0.7719728931764951,111.14350772786077,0.0
1442,0.7308458206295161,0.7141338901814059,111.27870515189986,0.0
1443,0.6814958402949923,0.7022060583191312,111.39431433110367,0.0
1444,0.6952994582525666,0.7546512491805676,111.48986371536226,0.0
1445,0.7850633362503192,0.8701063689967574,111.56490057203447,0.0
1446,0.9353681585613756,1.0202485744484426,111.61899253332719,0.0
1447,1.096616135512173,1.1500529078594184,111.65172912180036,0.0
1448,1.1891974866829254,1.1870102891777927,111.66272324559078,1.0
1449,1.1202851667303075,1.0579961023206086,111.6456849061869,0.0
1450,0.8111982288739068,0.709556202432724,111.59564847565801,0.0
1451,0.22715078529426097,0.1255528642227558,111.51427144265129,0.0
1452,-0.6030400500240867,-0.6637007939395179,111.40325660736178,0.0
1453,-1.5879400922201703,-1.5843005714189156,111.26434297924183,0.0
1454,-2.5968801399424106,-2.5332464741429463,111.09929705840504,0.0
1455,-3.496090193107985,-3.400375752885413,110.90990456112839,0.0
1456,-4.182036490439888,-4.091214549097471,110.69796263956601,0.0
1457,-4.599926097901069,-4.544287369763025,110.46527263571313,0.0
1458,-4.745087778653964,-4.73869455981624,110.21363339998615,0.0
1459,-4.65266132119069,-4.691214734136725,109.94483519565861,0.0
1460,-4.381356578482881,-4.445450510286895,109.66065420193415,0.0
1461,-3.994596975902667,-4.057508142848262,109.36284762073419,0.0
1462,-3.5438284281762544,-3.582891335387184,109.05314938539189,0.0
1463,-3.0610778365849587,-3.067888573539249,108.73326646340726,0.0
1464,-2.563763271381302,-2.546482811984707,108.40487574024897,0.0
1465,-2.065758548965995,-2.041696099779567,108.06962146687091,0.0
1466,-1.584660494280613,-1.5691051392789253,107.72911325013142,0.0
1467,-1.1409645574409635,-1.1402945356653083,107.3849245626131,0.0
1468,-0.753041822039983,-0.7649160203578644,107.03859174640354,0.0
1469,-0.43346081059733255,-0.45113512943351464,106.69161348414976,0.0
1470,-0.18813866629147835,-0.20500700870680144,106.34545071008647,0.0
1471,-0.016817893658512606,-0.029520086082511998,106.00152693369921,0.0
1472,0.08596108533600666,0.07618633549836273,105.66122894915493,0.0
1473,0.1291312532301241,0.11728964680168064,105.32590790455443,0.0
1474,0.1231024566603911,0.10352221501148873,104.9968807063803,0.0
1475,0.0789527123440954,0.04922994305380923,104.67543173617318,0.0
1476,0.009651536947579586,-0.026933643622951475,104.36281485842379,0.0
1477,-0.0676525754822851,-0.10308565891042565,104.06025570087766,0.0
1478,-0.13067264567854997,-0.15635044871157366,103.76895419087543,0.0
1479,-0.15451977807923845,-0.1662671914020405,103.49008733396879,0.0
1480,-0.11787807716313115,-0.11877188795047156,103.22481222383755,0.0
1481,-0.010348753810171751,-0.009614357458982203,102.97426927547276,0.0
1482,0.16275598021783566,0.1540745369929325,102.73958567667727,0.0
1483,0.38079683276107534,0.3549322897545929,102.52187905617009,0.0
1484,0.6134003478057947,0.5692252694344752,102.32226136996992,0.0
1485,0.8290138848538471,0.7724318147192559,102.14184301129465,0.0
1486,1.003350153765241,0.9448814738340297,101.98173715297034,0.0
1487,1.1250285427456288,1.0757064141090977,101.84306433532844,0.0
1488,1.1968064763320667,1.1639317285663278,101.72695731682501,0.0
1489,1.2322734583552615,1.2165369702607252,101.63456620919558,0.0
1490,1.2492359808215143,1.2443779112635556,101.56706392392628,0.0
1491,1.2621056486468474,1.2575627104245666,101.52565196225405,0.0
1492,1.276338111467297,1.261966169741017,101.5115665869007,1.0
1493,1.2874806639964036,1.2580205328986158,101.63231886956045,0.0
1494,1.2851172496542231,1.2419786286391878,101.98484676995113,0.0
1495,1.2592014141136805,1.2088977111060941,102.55661350510746,0.0
1496,1.2052430378310066,1.1560122337178,103.33734882642469,0.0
1497,1.1263543061835501,1.085140515132152,104.3185301951068,0.0
1498,1.0324674969610312,1.0032499130044403,105.49292891981969,0.0
1499,0.9379372171655405,0.9210518817347666,106.85419676620148,0.0
1500,0.8581500603319981,0.8502196104605766,108.39647336745942,0.0
1501,0.8054283043861515,0.8002766150293814,110.11399823656627,0.0
1502,0.7853698900194273,0.7762644195478623,112.00071383718604,0.0
1503,0.7954793190687757,0.7779612348023148,114.0498484406685,0.0
1504,0.8270272400813139,0.800820616248247,116.25346975939935,0.0
1505,0.8691423159017265,0.8381553554845341,118.60200296954268,0.0
1506,0.9129833326539148,0.8836524884249299,121.08371009526812,0.0
1507,0.954271347933427,0.9332358417933709,123.68413221306666,0.0
1508,0.9937148462266323,0.9856103909761602,126.3855019392476,0.0
1509,1.0357038016682523,1.0413951566304114,129.16614153306654,0.0
1510,1.0856833162137969,1.1013525649721503,131.9998719057705,0.0
1511,1.1466586963511818,1.1646146807698203,134.85546984822437,0.0
1512,1.2161037588102452,1.227821111965981,137.69622443417722,0.0
1513,1.2853374214541151,1.2856853945779259,140.4796577553528,0.0
1514,1.3425714729593574,1.3328341484440849,143.1574880009206,0.0
1515,1.378306579645658,1.366099329659491,145.67592154583835,0.0
1516,1.3898667473878628,1.386107284234178,147.9763613819198,0.0
1517,1.3825501255325898,1.3971998174755256,149.99660758545514,0.0
1518,1.3672443378497494,1.4054129529176778,151.67259750474582,0.0
1519,1.355964199467853,1.4151666220821912,152.9406864751384,0.0
1520,1.3567025359027505,1.4260914130437443,153.74040483669398,0.0
1521,1.368792975197319,1.4316652768532112,154.01754930426313,1.0
1522,1.3808780131856577,1.4208460545140698,153.88275527119134,0.0
1523,1.373996858135317,1.3827274988969775,153.48648397770623,0.0
1524,1.3301743473558403,1.3127865116690813,152.84272583572778,0.0
1525,1.2430273256148574,1.218121331778109,151.96755659952,0.0
1526,1.1247107089667165,1.1188061701338263,150.8786872869224,0.0
1527,1.0050902343489674,1.0434391069832545,149.59501101908606,0.0
1528,0.9226386865878613,1.0189957201355495,148.13616414275464,0.0
1529,0.9092773669577592,1.057587127028879,146.52211601817731,0.0
1530,0.9727728540153995,1.1447116237252632,144.7727984456639,0.0
1531,1.082008569607797,1.2341460419162311,142.90778219408,0.0
1532,1.1625261204047819,1.2531942722016518,140.94600475951054,0.0
1533,1.1091442506114377,1.1187556937309688,138.9055505243559,0.0
1534,0.8166392373722506,0.7605868306002802,136.8034820328252,0.0
1535,0.21979777102719944,0.14478788086264704,134.65571920457072,0.0
1536,-0.6739813489868371,-0.7104955548156344,132.47696197251366,0.0
1537,-1.776306085268211,-1.7331554935104823,130.28065100942717,0.0
1538,-2.9397554084111106,-2.810482591402901,128.0789608289521,0.0
1539,-4.00097003969181,-3.8140274092936455,125.88281952530068,0.0
1540,-4.825761733842165,-4.628287936924726,123.7019496643333,0.0
1541,-5.338437023964079,-5.174554304668032,121.54492527477063,0.0
1542,-5.527923971107581,-5.423372608646785,119.41924044016089,0.0
1543,-5.435430015475898,-5.393279706447319,117.33138560077317,0.0
1544,-5.133876302234498,-5.137977008910106,115.28692829403553,0.0
1545,-4.7060019092970204,-4.727365268155994,113.29059565921253,0.0
1546,-4.223559006531938,-4.228958991528226,111.34635658441191,0.0
1547,-3.731541580300472,-3.6950706543541694,109.45750186846635,0.0
1548,-3.244398739793936,-3.1584185486958383,107.62672120056942,0.0
1549,-2.757132911764198,-2.6355284352256585,105.85617612581053,0.0
1550,-2.2641739964630863,-2.1346602752272315,104.1475684676313,0.0
1551,-1.7735356748696658,-1.6639141703351834,102.50220392373691,0.0
1552,-1.3090784451563997,-1.2359147972452518,100.92105074644583,0.0
1553,-0.9030745693579415,-0.8675333760453361,99.40479356870594,0.0
1554,-0.5853868367018809,-0.5754793071429416,97.95388254990604,0.0
1555,-0.37378783280208916,-0.37028279021900956,96.56857809767604,0.0
1556,-0.26760962429097357,-0.25161885304553877,95.24899147905923,0.0
1557,-0.24669858788188415,-0.2070892367678363,93.99512167204834,0.0
1558,-0.2770641338762969,-0.2149573428402589,92.80688883111736,0.0
1559,-0.32164536991837256,-0.24964676521304474,91.68416475199089,0.0
1560,-0.3515054995972591,-0.28775745222261273,90.62680072481254,0.0
1561,-0.3524291822745047,-0.3123232077505821,89.63465316389313,0.0
1562,-0.3244715503188098,-0.3139790132149409,88.70760739868496,0.0
1563,-0.2755873098651309,-0.2891572469880832,87.84560000651345,0.0
1564,-0.21307102941560108,-0.2367190227907776,87.04864006459616,0.0
1565,-0.13709824035868223,-0.1549872675068914,86.3168296984886,0.0
1566,-0.03929155245465776,-0.040771090847802505,85.65038430769746,0.0
1567,0.09317607125793015,0.10912590106094378,85.04965285815031,0.0
1568,0.269984271303116,0.29470987297400786,84.51513864690916,0.0
1569,0.49033551280510523,0.5096016763035474,84.0475209685198,0.0
1570,0.7394850354538935,0.7396330447202624,83.6476781465,0.0
1571,0.9907323417680365,0.9643060973436701,83.31671243986203,0.0
1572,1.2121631257078664,1.1609729284696126,83.05597739593217,0.0
1573,1.3759672397015315,1.3104091397131734,82.86710830046225,0.0
1574,1.4672733952031833,1.4018103677882314,82.7520564784781,0.0
1575,1.4889146738629324,1.4354071742767713,82.71312833006725,1.0
1576,1.4595367073513308,1.4217971398321425,82.74005068603226,0.0
1577,1.4056827325801646,1.3783415009826416,82.8192232809533,0.0
1578,1.3519911953624821,1.3240299199965135,82.94838889449186,0.0
1579,1.3143074658254292,1.274647773015104,83.12544690937288,0.0
1580,1.2977377320760795,1.2397551284597013,83.34842698607173,0.0
1581,1.2985072363983823,1.222115452697609,83.61546483920529,0.0
1582,1.3077829562635952,1.2192140135654175,83.9247797317544,0.0
1583,1.3164596079892639,1.2258020381344492,84.27465336335374,0.0
1584,1.3196998923629637,1.236246079381631,84.66340988006071,0.0
1585,1.318746843178432,1.2458566973942466,85.08939677733713,0.0
1586,1.318141959935791,1.251079874731754,85.55096650715039,0.0
1587,1.3201425757699907,1.249079798838681,86.04645863554316,0.0
1588,1.3210955011279957,1.2374817276507146,86.57418242992394,0.0
1589,1.3129760649428825,1.2147668287005056,87.13239978670431,0.0
1590,1.2887101369838923,1.181211681764387,87.7193084406146,0.0
1591,1.247029436232455,1.1397304299872963,88.33302542779622,0.0
1592,1.1938667321184173,1.0958474989769553,88.97157080620815,0.0
1593,1.1404191246601867,1.0563978619596028,89.63285166948788,0.0
1594,1.0993840410213167,1.0272316381220055,90.31464652454135,0.0
1595,1.080157770317672,1.010834725841416,91.01459013903084,0.0
1596,1.083866321175917,1.0050203890042648,91.73015900265243,0.0
1597,1.1009182591414346,1.0035181023353053,92.45865758552885,0.0
1598,1.1141613297693183,0.9984718915015136,93.19720561785688,0.0
1599,1.1074334522460478,0.9839148132884947,93.94272665655268,0.0
1600,1.0747558602807445,0.9586907895566764,94.69193824616299,0.0
1601,1.0241050525077013,0.9274066594275228,95.44134402156078,0.0
1602,0.9732767703977189,0.8988219179119734,96.18722813738081,0.0
1603,0.9407657915026338,0.8822415052210452,96.92565244187017,0.0
1604,0.9372371901614374,0.8834058265143465,97.65245683856665,0.0
1605,0.9615363178693326,0.9016370449300025,98.36326329537157,0.0
1606,1.0018276287986476,0.9295089353453039,99.05348396427553,0.0
1607,1.040479685405048,0.9553128217458374,99.7183338631579,0.0
1608,1.061002497796672,0.9675273345180015,100.352848540605,0.0
1609,1.0550198994018825,0.9597656285478718,100.95190709260974,0.0
1610,1.0263885057266076,0.9344874965925665,101.51026082373262,0.0
1611,0.9900815067664546,0.9041106881641862,102.0225677428855,0.0
1612,0.9665970593404226,0.8888444034855432,102.4834329543736,0.0
1613,0.9755601361961137,0.9113617774031091,102.88745484851843,0.0
1614,1.0312824407536627,0.9891770597608125,103.22927681501058,0.0
1615,1.1394484699260843,1.1262646618984475,103.5036439998996,0.0
1616,1.2923528373731137,1.3060302944329671,103.70546440966709,0.0
1617,1.4624567957168708,1.4880618189338373,103.82987344109534,0.0
1618,1.5979775193922878,1.6108323136756844,103.87230069357283,1.0
1619,1.625789200574336,1.6014046082880522,103.86449716317105,0.0
1620,1.4646958700763113,1.3912070529861353,103.84131150492468,0.0
1621,1.0478243684792594,0.9346145341642036,103.80309092366835,0.0
1622,0.3483387221805211,0.2252744546274985,103.75019489631934,0.0
1623,-0.6011914468431432,-0.6952070353084234,103.6829941679433,0.0
1624,-1.70597907681144,-1.7399802759266279,103.60186974944924,0.0
1625,-2.8270916077929247,-2.791574079972329,103.50721192103208,0.0
1626,-3.8146983805075747,-3.7251247443522084,103.3994192452664,0.0
1627,-4.5440343565853345,-4.433990668315642,103.27889759352104,0.0
1628,-4.942591707859261,-4.850642845273041,103.1460591891206,0.0
1629,-5.002130894297268,-4.957230750001001,103.00132167042308,0.0
1630,-4.773099318132088,-4.783568755486344,102.84510717672163,0.0
1631,-4.343069926858011,-4.394232699798389,102.67784145960985,0.0
1632,-3.8072184227422765,-3.869582798578669,102.49995302218255,0.0
1633,-3.2433902567380324,-3.286792257697478,102.31187228817288,0.0
1634,-2.7008500110455103,-2.706085456119068,102.11403080286267,0.0
1635,-2.202178056834503,-2.164935351321575,101.90686046733946,0.0
1636,-1.7514212114340846,-1.6800164460598146,101.69079280741907,0.0
1637,-1.3433939229601426,-1.2543415382664447,101.4662582783055,0.0
1638,-0.9730028134430495,-0.8859025061323829,101.2336856058218,0.0
1639,-0.6431953114921691,-0.57441868399483,100.99350116481824,0.0
1640,-0.36772921704934225,-0.32415071236093584,100.7461283951497,0.0
1641,-0.16613568975294435,-0.14256382290860437,100.49198725541008,0.0
1642,-0.053522435957037096,-0.03623273253196846,100.23149371442256,0.0
1643,-0.03174333033494292,-0.006210950918440039,99.96505928030803,0.0
1644,-0.08693149236446607,-0.04492621919473028,99.69309056679225,0.0
1645,-0.1935754659801756,-0.1357305338518826,99.41598889626339,0.0
1646,-0.32170625909970785,-0.255051722887077,99.13414993895789,0.0
1647,-0.44336341754927255,-0.37620592046938184,98.84796338753259,0.0
1648,-0.5363044587250332,-0.4736305865263631,98.5578126661737,0.0
1649,-0.5849745733106049,-0.5265378944908259,98.26407467330098,0.0
1650,-0.5799122546567755,-0.5214798379910354,97.96711955684391,0.0
1651,-0.5169553037303917,-0.45373418913290814,97.66731052100018,0.0
1652,-0.3972216722735957,-0.3275824987821534,97.36500366332977,0.0
1653,-0.22810508335109647,-0.15548952839425234,97.06054784099284,0.0
1654,-0.024462477176145025,0.04390131838789102,96.75428456490694,0.0
1655,0.19180600560843275,0.24895967034675648,96.44654792057287,0.0
1656,0.39531729954746464,0.4391097463800391,96.13766451430513,0.0
1657,0.5635517974561117,0.5989096317900224,95.82795344359546,0.0
1658,0.6836448233991368,0.7210246847020214,95.51772629033982,0.0
1659,0.7565979679004775,0.8070397238348598,95.20728713566776,0.0
1660,0.7965041593693688,0.8656578775850621,94.89693259512799,0.0
1661,0.8242532676701146,0.9087720869903735,94.58695187300536,0.0
1662,0.8580901992662109,0.9467681279786281,94.27762683457028,0.0
1663,0.9056354350067982,0.9847964747035616,93.96923209509227,0.0
1664,0.9614137299536724,1.0214069526428313,93.66203512448492,0.0
1665,1.010626858931393,1.0499878200787607,93.35629636648692,0.0
1666,1.036593609044334,1.06230118578745,93.05226937132565,1.0
1667,1.0282859759174938,1.0525684889573341,92.7299230529035,0.0
1668,0.985273449561763,1.0203954511142128,92.37039281005998,0.0
1669,0.9185815074649583,0.9713918656979416,91.97571135640884,0.0
1670,0.8469552443152518,0.9153753720161656,91.54794640059632,0.0
1671,0.7894795102011629,0.863087840571786,91.08918739148767,0.0
1672,0.7577232247873629,0.82293445333919,90.60153299340467,0.0
1673,0.7517904338422298,0.7991216439887591,90.08707937613632,0.0
1674,0.7627434639377537,0.7918021769945042,89.54790938443176,0.0
1675,0.7796612985398972,0.7988293706102019,88.9860826325458,0.0
1676,0.7966496236816878,0.8179904038010257,88.4036265514851,0.0
1677,0.8157531926958081,0.8484861666725085,87.80252840016544,0.0
1678,0.8448633696331714,0.8909618018657584,87.18472823692724,0.0
1679,0.892598058773479,0.9462431126927674,86.55211283488347,0.0
1680,0.9629787216751462,1.013633805276227,85.90651051344723,0.0
1681,1.0520647408963009,1.0898211700156075,85.2496868490987,0.0
1682,1.1479873416991677,1.1690484704626392,84.58334122095373,0.0
1683,1.2349840268230121,1.2444706692479532,83.90910414089961,0.0
1684,1.300104443274003,1.3099309846079454,83.22853531384621,0.0
1685,1.3389237624193007,1.3611693091953232,82.54312237086664,0.0
1686,1.35635063543863,1.3958513870088454,81.85428021651421,0.0
1687,1.3617774468323312,1.4125949450534094,81.16335093124438,0.0
1688,1.3620647767604224,1.4099053966049746,80.47160417047958,0.0
1689,1.3572483812668876,1.3861443164234708,79.7802380032757,0.0
1690,1.3413455542503423,1.341129715433476,79.09038013563045,0.0
1691,1.3071093255795607,1.2789046560782267,78.40308946607868,0.0
1692,1.2521125624697547,1.2101322510991086,77.71935792421667,0.0
1693,1.1838814788499645,1.1520878543177957,77.04011254607823,0.0
1694,1.1217018918874633,1.1247359268073025,76.36621774374233,0.0
1695,1.0920265119861896,1.1429018325082014,75.69847773010275,0.0
1696,1.115924314831205,1.2065863187836348,75.03763906330055,0.0
1697,1.1920644673159648,1.2931483577868588,74.38439327884488,0.0
1698,1.2838102099504995,1.3554729462016146,73.73937958088298,0.0
1699,1.319312591715494,1.3288232613344801,73.10318756738174,0.0
1700,1.208224299188297,1.1461022416291062,72.4763599671246,0.0
1701,0.871159565607751,0.7577727307650564,71.85939536938682,0.0
1702,0.2718460583017419,0.15018140849519146,71.25275092991416,0.0
1703,-0.5611732978607427,-0.6442671308876158,70.65684503938911,0.0
1704,-1.5343650612072897,-1.5493610860294291,70.07205994291994,0.0
1705,-2.512835541230451,-2.4599227666834382,69.49874430123484,0.0
1706,-3.358243260102036,-3.2650614103339937,68.93721568620886,0.0
1707,-3.9651048045105366,-3.87281264658506,68.38776300510536,0.0
1708,-4.283097494876641,-4.228879220008115,67.85064884948369,0.0
1709,-4.321224451516327,-4.324492056496969,67.32611176612254,0.0
1710,-4.135481627981187,-4.19224040497739,66.81436844854717,0.0
1711,-3.805085367458101,-3.892539770338068,66.31561584883856,0.0
1712,-3.406386712515227,-3.49585307524696,65.83003321035899,0.0
1713,-2.9953358215368677,-3.066181884054943,65.35778402286162,0.0
1714,-2.603909368362772,-2.6499086671866094,64.89901790217827,0.0
1715,-2.246077314578685,-2.2716772324389924,64.45387239730616,0.0
1716,-1.9243039944001485,-1.9366943741432827,64.02247472825877,0.0
1717,-1.632577547351659,-1.6373289817019996,63.604943458516,0.0
1718,-1.3591323381763902,-1.3613355703367218,63.201390106315834,0.0
1719,-1.0925390934440709,-1.099217932894121,62.8119206993854,0.0
1720,-0.8294233764045827,-0.8488907318389085,62.43663727802188,0.0
1721,-0.57837771062373,-0.6167116306632923,62.07563935171339,0.0
1722,-0.3571064439303817,-0.4150125889200523,61.72902531474535,0.0
1723,-0.184959124130335,-0.2572557012408898,61.39689382647654,0.0
1724,-0.07516171919371795,-0.15260222869199946,61.07934516220099,0.0
1725,-0.029581107049075683,-0.10178688045304407,60.77648254074205,0.0
1726,-0.036917732380282176,-0.09568329637299611,60.48841343516434,0.0
1727,-0.07463344428662744,-0.11699565232603082,60.21525087324181,0.0
1728,-0.11455928184681541,-0.14443647996631104,59.95711473459708,0.0
1729,-0.1308021555695702,-0.15792220424600667,59.714133051732816,0.0
1730,-0.10704548854312246,-0.14303178879779954,59.48644332252115,0.0
1731,-0.04013988252587464,-0.09333949114769069,59.27419384210844,0.0
1732,0.06148098992163198,-0.010109573394544102,59.07754506264028,0.0
1733,0.18350558995428068,0.10012688852541163,58.896670989724484,0.0
1734,0.31264520099957194,0.2288358599772743,58.731760625140346,0.0
1735,0.4415139522953646,0.36814002414197977,58.58301946598002,0.0
1736,0.5694558935319398,0.5119015664626875,58.45067107118929,0.0
1737,0.6992691216244208,0.6551273283871963,58.33495870737278,0.0
1738,0.831900575777933,0.7924495319363172,58.23614708676231,0.0
1739,0.9623798576133917,0.9168726952894342,58.154524211436,0.0
1740,1.0793555288287355,1.0198054190662154,58.09040333924236,0.0
1741,1.1682238819529907,1.0927107100252593,58.044125088457974,0.0
1742,1.2161990059286782,1.1298398072134284,58.01605970001608,0.0
1743,1.2175793368476988,1.1308673606854303,58.006609478228974,1.0
1744,1.177541990892529,1.1021249178185244,58.05426131870515,0.0
1745,1.1123559156907046,1.0556137099726945,58.19451919699029,0.0
1746,1.044593930627534,1.0058814621943934,58.42393929339928,0.0
1747,0.9947754331969605,0.9657861771148694,58.739789144107625,0.0
1748,0.973677915285443,0.9427173764809332,59.13994785469548,0.0
1749,0.9793275540538502,0.936737419527294,59.62282102659148,0.0
1750,0.9995037661217103,0.941374181793978,60.18726670207635,0.0
1751,1.0175712195301638,0.9467553309796183,60.832529268476094,0.0
1752,1.0189044116465165,0.9438625105292713,61.55817871493231,0.0
1753,0.9962255774730603,0.9282656843199311,62.364052949388046,0.0
1754,0.9527628437633935,0.9019269345452137,63.250201091065755,0.0
1755,0.901878058956145,0.8724423883212432,64.21682577874057,0.0
1756,0.862262184294379,0.85011581051057,65.264222596522,0.0
1757,0.8500024040582923,0.8441161552301615,66.39271473289018,0.0
1758,0.8713693048637293,0.8592979005115302,67.60258097076994,0.0
1759,0.9204645729170151,0.8949044086453686,68.89397507271273,0.0
1760,0.9830161332884753,0.9454904351218019,70.26683459459568,0.0
1761,1.043708234933566,1.0034093107583693,71.72077715670507,0.0
1762,1.092712192413876,1.0615870009962272,73.25498225176958,0.0
1763,1.1284711177044995,1.115331008419766,74.86805681236683,0.0
1764,1.1562619187848369,1.162544834400174,76.5578830414855,0.0
1765,1.183576827547897,1.2025919770355058,78.321447486764,0.0
1766,1.2142986293296736,1.2347224096201026,80.15465107863383,0.0
1767,1.2447819115357612,1.257105716857434,82.0521009320198,0.0
1768,1.2648013379092782,1.267063188493248,84.00688621201532,0.0
1769,1.263340820297854,1.2623252086841024,86.01034236420516,0.0
1770,1.2353474160935347,1.2425035849467485,88.05181057085763,0.0
1771,1.1848197155862163,1.2098305451051674,90.1184024376453,0.0
1772,1.1228119704970292,1.1686569798852655,92.19478359760325,0.0
1773,1.0625697803717409,1.1239672938482141,94.26299399255187,0.0
1774,1.0147523401433982,1.0798175636119296,96.30232676691435,0.0
1775,0.9842149701501981,1.0387537813039105,98.28929151359317,0.0
1776,0.9689365367589182,1.002779789536247,100.1976903710473,0.0
1777,0.9620490066718215,0.9754957795797105,101.99883631392676,0.0
1778,0.9573406356319096,0.9640536384303944,103.66194090092243,0.0
1779,0.955874850383107,0.9791143512254086,105.1546927362566,0.0
1780,0.9688422308813067,1.0314514864097872,106.4440371743905,0.0
1781,1.0126561858287488,1.125250997406224,107.49715206344537,0.0
1782,1.09669990021581,1.2500382892412882,108.28259411170174,0.0
1783,1.2088706812581342,1.3746674062334643,108.77156737773548,0.0
1784,1.306180524390129,1.4470651757268564,108.93924219082027,1.0
1785,1.3165600652858258,1.4019923291384906,108.91790251147044,0.0
1786,1.1545875906933103,1.1762521146387495,108.8551601199801,0.0
1787,0.7488218392231037,0.7275579901591069,108.75299431807373,0.0
1788,0.07225021685934996,0.051045844271904506,108.61345868908144,0.0
1789,-0.8374455161169541,-0.812669483908727,108.43866703108878,0.0
1790,-1.8796043253055914,-1.7816144525162296,108.23077977071847,0.0
1791,-2.91599206041562,-2.7483998355880725,107.99199098039344,0.0
1792,-3.80919781136223,-3.6034640911115696,107.72451610260563,0.0
1793,-4.458355887393843,-4.258551326695422,107.43058046539768,0.0
1794,-4.820316187767055,-4.663464720393642,107.11240865440294,0.0
1795,-4.910841271742302,-4.81176057239482,106.7722147887757,0.0
1796,-4.787166845436177,-4.735009044675447,106.4121937314868,0.0
1797,-4.52096871991526,-4.4889031409761895,106.0345132490057,0.0
1798,-4.175306994280605,-4.136503602964659,105.64130712150494,0.0
1799,-3.794709942234137,-3.7337803582544695,105.23466919252103,0.0
1800,-3.4066182906926574,-3.320821101219901,104.81664833652952,0.0
1801,-3.025781217564058,-2.919652206696306,104.38924431414375,0.0
1802,-2.656870574853906,-2.537538149861298,103.95440447758176,0.0
1803,-2.297494733526064,-2.173418728117328,103.51402128358548,0.0
1804,-1.9444037242374397,-1.8248571695075073,103.06993056701661,0.0
1805,-1.6004611877887802,-1.493301720164491,102.62391052577298,0.0
1806,-1.2771893840528556,-1.1863446531416204,102.17768136633097,0.0
1807,-0.9914654621406497,-0.9167249951773304,101.73290555898667,0.0
1808,-0.7598878990050433,-0.6987884156716182,101.29118865259773,0.0
1809,-0.5944561946417202,-0.5437611294956564,100.85408060018335,0.0
1810,-0.4999384081643288,-0.455407678356605,100.42307754899302,0.0
1811,-0.47165093530696134,-0.42744799924790344,99.99962405148165,0.0
1812,-0.4938801164745682,-0.44359712443611166,99.58511565692672,0.0
1813,-0.5409171315929708,-0.4803674283288125,99.18090184708933,0.0
1814,-0.5819781788370184,-0.5119741626103748,98.78828928327894,0.0
1815,-0.5888723778167134,-0.5160075445520955,98.40854533635978,0.0
1816,-0.5434843607015174,-0.4782125582413247,98.04290187558051,0.0
1817,-0.442145022834627,-0.39492147848872317,97.69255929657746,0.0
1818,-0.29536212110632676,-0.2724112758863747,97.35869077346923,0.0
1819,-0.12311813200788357,-0.12349149982192409,97.04244672460678,0.0
1820,0.052695922139673224,0.03740152510109884,96.74495948627296,0.0
1821,0.21613479647685652,0.19880323448310722,96.4673481934419,0.0
1822,0.3622487739382101,0.354865800148389,96.21072387163784,0.0
1823,0.49704500622274894,0.5052107614851225,95.97619474900739,0.0
1824,0.63230658983699,0.6523069815387288,95.76487180298439,0.0
1825,0.7776418780044734,0.7977223549296955,95.57787456144345,0.0
1826,0.9335110267014035,0.9390550253838366,95.41633718407945,0.0
1827,1.0887001702772405,1.0690191464605445,95.28141485600396,0.0
1828,1.2237863518947447,1.1771738011075477,95.17429053232364,0.0
1829,1.3191879102454735,1.253576664171388,95.09618207988544,0.0
1830,1.3638109564065772,1.292760412731468,95.04834987059009,0.0
1831,1.3598803127263575,1.2962675135282387,95.03210488986448,1.0
1832,1.3218628852129775,1.2726011988723018,95.0398080829561,0.0
1833,1.2707452105573573,1.234564340850756,95.0624998257791,0.0
1834,1.226714129051814,1.1950652056648385,95.09956310127419,0.0
1835,1.2027434453959505,1.1630985491181587,95.15039235169846,0.0
