,PPG_Raw,PPG_Clean,PPG_Rate,PPG_Peaks
0,-0.8696869895744977,-0.04137865212508224,74.26082970433187,0.0
1,-0.8642217246124319,-0.036737823928413044,74.26082970433187,0.0
2,-0.8594971914979564,-0.03237725109155794,74.26082970433187,0.0
3,-0.8559152795442536,-0.028449239296930315,74.26082970433187,0.0
4,-0.8535650969925169,-0.02492752293367055,74.26082970433187,0.0
5,-0.8521903773768084,-0.02157746886377744,74.26082970433187,0.0
6,-0.8512556346631487,-0.017992539546762873,74.26082970433187,0.0
7,-0.8500857601687435,-0.013695726820006153,74.26082970433187,0.0
8,-0.848038126063199,-0.008289910229065191,74.26082970433187,0.0
9,-0.8446700792468481,-0.0016288066257306513,74.26082970433187,0.0
10,-0.839881460251445,0.006027674557051103,74.26082970433187,0.0
11,-0.8340280051736926,0.013911842608469855,74.26082970433187,0.0
12,-0.8280042049788473,0.020733793607453276,74.26082970433187,0.0
13,-0.8232791740979413,0.024775699678336503,74.26082970433187,0.0
14,-0.8218454883080129,0.024098182222613177,74.26082970433187,0.0
15,-0.8260285169609036,0.016839608861006487,74.26082970433187,0.0
16,-0.8381221401387694,0.0015660347847777055,74.26082970433187,0.0
17,-0.8598720128508031,-0.022389053405352327,74.26082970433187,0.0
18,-0.8919041649587447,-0.05466446525052901,74.26082970433187,0.0
19,-0.9332608874299546,-0.0937537464007227,74.26082970433187,0.0
20,-0.9812203487805748,-0.1370717967770072,74.26082970433187,0.0
21,-1.0315204236464128,-0.1812126123315538,74.26082970433187,0.0
22,-1.078990922291675,-0.22236503955097214,74.26082970433187,0.0
23,-1.118462833749295,-0.2568176554772936,74.26082970433187,0.0
24,-1.1457232346033708,-0.2814620260868036,74.26082970433187,0.0
25,-1.1582624124034608,-0.2942020561802345,74.26082970433187,0.0
26,-1.1556242835537145,-0.2941968923489272,74.26082970433187,0.0
27,-1.1392950140055584,-0.2819009136583155,74.26082970433187,0.0
28,-1.1122000795872822,-0.25890728961800086,74.26082970433187,0.0
29,-1.0779809227611998,-0.22764034368011513,74.26082970433187,0.0
30,-1.040261063683918,-0.19096718606740887,74.26082970433187,0.0
31,-1.0020836029629887,-0.15180576451672062,74.26082970433187,0.0
32,-0.965623830517127,-0.11279507727182715,74.26082970433187,0.0
33,-0.932182310715441,-0.07606906969492813,74.26082970433187,0.0
34,-0.9023795113435832,-0.04314673317803329,74.26082970433187,0.0
35,-0.8764291638514333,-0.014925277255132707,74.26082970433187,0.0
36,-0.8543731950630122,0.00825319589740292,74.26082970433187,0.0
37,-0.8362060321330896,0.02649611289395079,74.26082970433187,0.0
38,-0.8218771706748067,0.040245627615594595,74.26082970433187,0.0
39,-0.8112126356848148,0.050173447068492444,74.26082970433187,0.0
40,-0.8038209855213445,0.057092252773222066,74.26082970433187,0.0
41,-0.7990446481982457,0.0618817620771652,74.26082970433187,0.0
42,-0.7959913548660965,0.0654235704333651,74.26082970433187,0.0
43,-0.7936461022469066,0.06853989151714796,74.26082970433187,0.0
44,-0.791033449985277,0.07193533825644438,74.26082970433187,0.0
45,-0.7873825035300487,0.07614542568388087,74.26082970433187,0.0
46,-0.782247287695814,0.08149831196418476,74.26082970433187,0.0
47,-0.7755515933407622,0.08809627421656038,74.26082970433187,0.0
48,-0.7675527255662968,0.09582068710744632,74.26082970433187,0.0
49,-0.7587435503008207,0.10436001555219947,74.26082970433187,0.0
50,-0.7497284236424946,0.11325616498045632,74.26082970433187,0.0
51,-0.741111135109961,0.12196183425992857,74.26082970433187,0.0
52,-0.7334220469348496,0.12990094221326298,74.26082970433187,0.0
53,-0.7270922316728903,0.13652552858282085,74.26082970433187,0.0
54,-0.7224626764158669,0.14136487901496275,74.26082970433187,0.0
55,-0.7198043649244178,0.14406488882349727,74.26082970433187,0.0
56,-0.7193247083740012,0.14441702799667097,74.26082970433187,1.0
57,-0.7211468357279146,0.1423764574470953,74.24501573739836,0.0
58,-0.7252655553614199,0.13806826260405247,74.22894650502738,0.0
59,-0.7314996239306134,0.13178019574491823,74.21262429667708,0.0
60,-0.7394669398062123,0.12394052586113972,74.19605140341861,0.0
61,-0.748603587056229,0.11508097211069261,74.17923011778812,0.0
62,-0.7582311034309133,0.10578705735083989,74.16216273364019,0.0
63,-0.7676562301425786,0.09664087701846488,74.14485154600249,0.0
64,-0.7762735464510616,0.08816334951418878,74.12729885093195,0.0
65,-0.7836411004852556,0.08076378176875737,74.109506945372,0.0
66,-0.7895125842196571,0.07470377572323478,74.09147812701158,0.0
67,-0.7938290204580662,0.0700803456137387,74.0732146941451,0.0
68,-0.7966872055168106,0.06683017846458403,74.05471894553403,0.0
69,-0.7983039401520433,0.06475388758624612,74.03599318026994,0.0
70,-0.7989854585848578,0.06355636540294349,74.0170396976386,0.0
71,-0.7990986647742928,0.06289719892654952,73.99786079698585,0.0
72,-0.7990342229975643,0.06244368909639536,73.97845877758472,0.0
73,-0.7991555615840533,0.06191843344960604,73.95883593850391,0.0
74,-0.799739301734469,0.06113388370655908,73.93899457847778,0.0
75,-0.8009235938780249,0.060007984261401914,73.91893699577774,0.0
76,-0.8026840591946366,0.058557989588811976,73.8986654880851,0.0
77,-0.8048501651624853,0.056873575498434865,73.87818235236526,0.0
78,-0.8071611807796509,0.05507473265026846,73.85748988474347,0.0
79,-0.8093467552941261,0.05326369760798729,73.836590380382,0.0
80,-0.8112087646656656,0.05148232454738696,73.81548613335866,0.0
81,-0.8126815540059763,0.04968606697850793,73.79417943654686,0.0
82,-0.813856066396943,0.047742852997033014,73.7726725814972,0.0
83,-0.8149650337224766,0.04545992952768503,73.75096785832041,0.0
84,-0.816335908552376,0.04263510896223965,73.72906755557169,0.0
85,-0.8183223607276332,0.03912206663738672,73.70697396013675,0.0
86,-0.8212248116153453,0.03489389060188571,73.6846893571191,0.0
87,-0.8252094558708271,0.030086412823595775,73.66221602972891,0.0
88,-0.8302373141540098,0.02500409510077304,73.6395562591733,0.0
89,-0.8360208747206103,0.020076971518673437,73.61671232454822,0.0
90,-0.8420322873416147,0.01576706590065103,73.59368650273157,0.0
91,-0.8475870774370451,0.01243541911678124,73.57048106827803,0.0
92,-0.8520144289673359,0.010193866840949799,73.5470982933153,0.0
93,-0.8548976711705529,0.008775677200157449,73.52354044744172,0.0
94,-0.8563332273332795,0.0074626544475734635,73.49980979762542,0.0
95,-0.857126703853948,0.005100809684868847,73.47590860810514,0.0
96,-0.8588368242106917,0.00022162126987787523,73.45183914029214,0.0
97,-0.8636021922324797,-0.008736655851084144,73.42760365267391,0.0
98,-0.8737419706089741,-0.023138491559593355,73.40320440071925,0.0
99,-0.8911958714764121,-0.0438438786229506,73.37864363678476,0.0
100,-0.9169372763755518,-0.07094838013795451,73.35392361002295,0.0
101,-0.9505284847870937,-0.10363122479501087,73.32904656629162,0.0
102,-0.9899688747445614,-0.14015369526947705,73.30401474806494,0.0
103,-1.0319126580038167,-0.1780196919538325,73.2788303943458,0.0
104,-1.0722234305499168,-0.21427544620662314,73.25349574057971,0.0
105,-1.1067264993021555,-0.24589487543436117,73.22801301857022,0.0
106,-1.1319582897944185,-0.2701790293798974,73.20238445639565,0.0
107,-1.1457195017078625,-0.2850970628519751,73.1766122783274,0.0
108,-1.147310428218495,-0.2895119557486216,73.15069870474973,0.0
109,-1.1374317394303148,-0.2832619047168311,73.12464595208083,0.0
110,-1.1178303166575183,-0.26710004341543697,73.0984562326955,0.0
111,-1.0908251444541377,-0.24252252439513033,73.07213175484932,0.0
112,-1.0588524181978567,-0.21153161972193163,73.04567472260393,0.0
113,-1.024132639940403,-0.17638362615468753,73.0190873357542,0.0
114,-0.9885066838634486,-0.13936229841831277,72.99237178975642,0.0
115,-0.953432128321978,-0.10260178810717434,72.96553027565822,0.0
116,-0.9200877853923666,-0.06796466193722796,72.93856498002981,0.0
117,-0.8895098518065038,-0.036966122784525976,72.91147808489646,0.0
118,-0.8626818970529053,-0.01072865207586881,72.88427176767273,0.0
119,-0.8405249887976366,0.010047350271127235,72.8569482010978,0.0
120,-0.8237786940123235,0.02510381140054123,72.82950955317244,0.0
121,-0.812813671109642,0.03463322158252578,72.8019579870972,0.0
122,-0.8074515886213284,0.03926430745779372,72.77429566121202,0.0
123,-0.8068724774930972,0.04001232174684952,72.74652472893737,0.0
124,-0.8096617363871819,0.03818539181992976,72.7186473387166,0.0
125,-0.8140019798525547,0.035247902876751044,72.69066563395968,0.0
126,-0.8179683575771438,0.03265358907332824,72.66258175298852,0.0
127,-0.8198557877273752,0.03167104630203669,72.63439782898323,0.0
128,-0.8184597759341481,0.03322950807983665,72.60611598993025,0.0
129,-0.813248058603226,0.03781124979295814,72.57773835857138,0.0
130,-0.8043918241209312,0.04540920034761517,72.54926705235447,0.0
131,-0.7926629269107622,0.05555629456983409,72.52070418338523,0.0
132,-0.7792358614860375,0.06741986438829091,72.4920518583805,0.0
133,-0.7654505420281537,0.0799430718300819,72.46331217862274,0.0
134,-0.7525901909058045,0.09200836411254881,72.434487239916,0.0
135,-0.7417116292506265,0.10259621001838948,72.40557913254293,0.0
136,-0.7335422527697958,0.11091563469756249,72.37658994122343,0.0
137,-0.7284388731259283,0.11648997116579193,72.34752174507425,0.0
138,-0.7263944130020046,0.1191899802571546,72.31837661757011,0.0
139,-0.7270792239954845,0.11921528980607697,72.28915662650603,1.0
140,-0.7299096111784057,0.11703258699564488,72.25921076370015,0.0
141,-0.7341402849467821,0.11328428795992407,72.22791579208652,0.0
142,-0.7389754797415808,0.10868408899846038,72.19531543826105,0.0
143,-0.7436859404378259,0.10391581996523536,72.1614534249559,0.0
144,-0.7477110487728491,0.09954961700179092,72.12637345596964,0.0
145,-0.7507234278942891,0.09598513985204826,72.09011920163002,0.0
146,-0.7526409344724223,0.0934261864567813,72.0527342847923,0.0
147,-0.7535864495568985,0.0918856089091806,72.01426226737566,0.0
148,-0.7538131819168844,0.09121492368276014,71.97474663743947,0.0
149,-0.7536242588950914,0.09115019989585325,71.93423079680035,0.0
150,-0.7533140755261118,0.09136499247245862,71.8927580491904,0.0
151,-0.7531447643987998,0.0915220024259783,71.85037158895663,0.0
152,-0.7533509449726963,0.09131711968257814,71.80711449030053,0.0
153,-0.7541506363298541,0.09051175205343348,71.76302969705688,0.0
154,-0.7557389440930413,0.08895131359572403,71.71816001300938,0.0
155,-0.7582552059008398,0.08656930965219284,71.67254809274138,0.0
156,-0.7617359498728753,0.08337786031957156,71.6262364330186,0.0
157,-0.7660824065409573,0.07944708575580503,71.57926736470056,0.0
158,-0.7710715372726817,0.07487760917169986,71.53168304517727,0.0
159,-0.7764212888338167,0.06977211622906536,71.48352545132718,0.0
160,-0.7818925125351365,0.06421265593331042,71.43483637299184,0.0
161,-0.7873867933577718,0.05824938781760987,71.38565740696274,0.0
162,-0.7929945175205997,0.0519034845818377,71.33602995147537,0.0
163,-0.7989646431683168,0.04518245808651474,71.28599520120518,0.0
164,-0.8055995273001848,0.038101700663089474,71.23559414275994,0.0
165,-0.81311092447503,0.03070332288343085,71.18486755066287,0.0
166,-0.8214932341536265,0.023063872776102726,71.13385598382061,0.0
167,-0.8304688074895066,0.015286616211681661,71.08259978247,0.0
168,-0.8395366257342728,0.0074806696916337595,71.03113906559737,0.0
169,-0.848116681054903,-0.0002639343470534142,70.97951372882416,0.0
170,-0.855741435056633,-0.007892058130319582,70.92776344275238,0.0
171,-0.8622196176173308,-0.015377805720019698,70.87592765176332,0.0
172,-0.8676998856740291,-0.02269157977503919,70.82404557326332,0.0
173,-0.8725953921452255,-0.029744760985385484,70.77215619736963,0.0
174,-0.8773841054397581,-0.036328550352105936,70.72029828702998,0.0
175,-0.8823526145568882,-0.04207176263361449,70.66851037856944,0.0
176,-0.8873811199906175,-0.04644348547520172,70.61683078265783,0.0
177,-0.8918612538461661,-0.04881871357085319,70.56529758569121,0.0
178,-0.8947976848728981,-0.048609308276826815,70.51394865158142,0.0
179,-0.895084011393927,-0.04544264570093186,70.46282162394677,0.0
180,-0.8918848735130094,-0.03935161880616256,70.41195392869834,0.0
181,-0.8850189354913643,-0.0309279875963884,70.36138277701528,0.0
182,-0.8752315448949505,-0.021390679871531128,70.31114516870352,0.0
183,-0.8642703201697107,-0.012532998359206647,70.26127789593195,0.0
184,-0.8547222068291833,-0.006535922933608581,70.21181754734069,0.0
185,-0.849624271577939,-0.00566396704307677,70.16280051251566,0.0
186,-0.8519116591233914,-0.011888667970580597,70.11426298682477,0.0
187,-0.863806452164858,-0.026505837683147203,70.06624097661023,0.0
188,-0.8862739094988341,-0.049820711330031006,70.0187703047327,0.0
189,-0.91867119924324,-0.0809674866591802,69.97188661646231,0.0
190,-0.9586833592110026,-0.1179074220087503,69.92562538571289,0.0
191,-1.002582728273903,-0.15761710709024648,69.88002192161468,0.0
192,-1.0457725130351532,-0.19644269119733687,69.83511137542271,0.0
193,-1.083503487963718,-0.23056453630541088,69.79092874775667,0.0
194,-1.1116093953320336,-0.2564966587447872,69.74750889616968,0.0
195,-1.1271078824762424,-0.27154039248014183,69.70488654304313,0.0
196,-1.1285590155637848,-0.2741222743836995,69.66309628380498,0.0
197,-1.116143774458842,-0.2639690351607874,69.62217259546959,0.0
198,-1.0914932922523435,-0.2421021617345718,69.58214984549747,0.0
199,-1.0573441946009485,-0.21066435051460483,69.54306230097328,0.0
200,-1.0171086161410026,-0.17261468865373158,69.50494413810146,0.0
201,-0.9744352903482875,-0.13134494639518268,69.46782945201876,0.0
202,-0.9328134571389918,-0.09027469621913198,69.43175226692341,0.0
203,-0.8952471785144728,-0.0524789758483317,69.39674654652138,0.0
204,-0.8640123601629862,-0.020391179524325648,69.36284620479026,0.0
205,-0.8405037682899172,0.004391309522405726,69.33008511706198,0.0
206,-0.8251795162221505,0.021187710554585508,69.29849713142589,0.0
207,-0.8176080963793563,0.03020502905698006,69.26811608045419,0.0
208,-0.8166130732009335,0.03241674687084807,69.23897579325242,0.0
209,-0.8204942282179459,0.029374463893373462,69.21111010783781,0.0
210,-0.8272876731964828,0.022981930642660485,69.18455288384926,0.0
211,-0.8350189850472077,0.015260510482595961,69.15933801559271,0.0
212,-0.8419079905320237,0.008131117016708128,69.13549944542684,0.0
213,-0.8465016338120861,0.003231422987568927,69.11307117749402,0.0
214,-0.8477366134179011,0.0017802089142505417,69.09208729180226,0.0
215,-0.8449556604835956,0.004494506470579668,69.07258195866456,0.0
216,-0.8379094997846956,0.011560492671314093,69.05458945350259,0.0
217,-0.8267655893149307,0.0226558963547581,69.03814417202223,0.0
218,-0.8121199277242513,0.03701928403084204,69.02328064576919,0.0
219,-0.7949839304559377,0.05355903931856537,69.01003355807339,0.0
220,-0.7767104955877944,0.07099151770319381,68.99843776039224,0.0
221,-0.7588394526679368,0.08799392738879483,68.98852828906239,0.0
222,-0.7428762941130446,0.10335402832483163,68.98034038247157,0.0
223,-0.7300523010189524,0.11609733754786286,68.97390949866195,0.0
224,-0.7211308576112513,0.12557457043539266,68.96927133337792,0.0
225,-0.7163151474567309,0.13149801325878868,68.96646183857138,0.0
226,-0.7152811350110191,0.13392457758669118,68.96551724137932,1.0
227,-0.7173208594370699,0.133193396481389,68.966886999987,0.0
228,-0.7215498917041182,0.12983435424540124,68.97095223150369,0.0
229,-0.7271187000062483,0.1244685313460494,68.97764732017617,0.0
230,-0.7333720678037355,0.11772089800722199,68.9869072107214,0.0
231,-0.7399196973151367,0.11015992891859276,68.99866735902883,0.0
232,-0.7466088138780793,0.1022698406121823,69.0128636843653,0.0
233,-0.7534192142941705,0.09445153638162904,69.02943252303061,0.0
234,-0.7603248235784699,0.08704088585468597,69.04831058341574,0.0
235,-0.7671754689308575,0.08032974793542741,69.0694349024197,0.0
236,-0.7736438988366565,0.07457688603068127,69.09274280318418,0.0
237,-0.7792586464298548,0.07000177633172834,69.11817185410932,0.0
238,-0.783512220917581,0.0667621566313506,69.14565982911637,0.0
239,-0.7860075883586588,0.06492332056799904,69.17514466912718,0.0
240,-0.7865926276301765,0.0644312561364879,69.20656444473269,0.0
241,-0.7854357804935752,0.06510145615254938,69.23985732002602,0.0
242,-0.7830149159604184,0.0666307623261404,69.27496151757857,0.0
243,-0.7800197212871107,0.06863249689303078,69.31181528454017,0.0
244,-0.7771968074915885,0.07068778249187879,69.35035685984681,0.0
245,-0.7751862278611835,0.07240078462738364,69.3905244425225,0.0
246,-0.7744006889913816,0.07344429931421113,69.43225616106383,0.0
247,-0.7749827490911674,0.07358502743670257,69.47549004389826,0.0
248,-0.7768465928975266,0.07268403188681817,69.52016399090965,0.0
249,-0.7797809746182568,0.07067527841844275,69.56621574602651,0.0
250,-0.783570674003196,0.06753153057625128,69.61358287087074,0.0
251,-0.7880923340057594,0.06323035648780348,69.66220271946646,0.0
252,-0.7933556653555288,0.05773273261865006,69.7120124140109,0.0
253,-0.7994844784949767,0.05098294510419506,69.7629488217108,0.0
254,-0.8066531755528178,0.042932351187185976,69.81494853268975,0.0
255,-0.8150053976065733,0.03358268655401929,69.86794783897382,0.0
256,-0.8245805652676119,0.023038575039692522,69.9218827145642,0.0
257,-0.8352647097441462,0.01155492836725533,69.97668879660755,0.0
258,-0.8467705785166911,-0.00043627257355152715,70.03230136767571,0.0
259,-0.8586440557091397,-0.01233348721457602,70.08865533916884,0.0
260,-0.8702919986334611,-0.023416300034494637,70.14568523585612,0.0
261,-0.881029882248963,-0.03294078885008163,70.20332518157092,0.0
262,-0.8901531021093755,-0.04027182136553059,70.26150888607725,0.0
263,-0.8970392980170322,-0.04503454644770154,70.32016963312628,0.0
264,-0.901286414695879,-0.047258399515805904,70.37924026972266,0.0
265,-0.9028793845560023,-0.047481263409923986,70.43865319662076,0.0
266,-0.9023576050505552,-0.0467813731969422,70.49834036007289,0.0
267,-0.9009315990589647,-0.04671192605060672,70.5582332448511,0.0
268,-0.9004817972544175,-0.04912857146295922,70.61826286856596,0.0
269,-0.9033787008971489,-0.055921347157665724,70.67835977730579,0.0
270,-0.9121005406332854,-0.06868623341679639,70.73845404261992,0.0
271,-0.9286889043430654,-0.08839162085568689,70.79847525987117,0.0
272,-0.9541561855491952,-0.11510553521442848,70.85835254798141,0.0
273,-0.9880108757715181,-0.14784583947014873,70.91801455059564,0.0
274,-1.0280678214119499,-0.1845965371594856,70.97738943868927,0.0
275,-1.0706472560258802,-0.22250174649477433,71.03640491464328,0.0
276,-1.1111531359183788,-0.25821192109168845,71.09498821781216,0.0
277,-1.144898228391821,-0.2883237325096767,71.15306613160867,0.0
278,-1.1679598214612987,-0.3098345104557866,71.21056499212936,0.0
279,-1.1778407559206676,-0.3205298242990205,71.26741069834407,0.0
280,-1.173778831361638,-0.31923918275776,71.3235287238717,0.0
281,-1.156663694534746,-0.30592517802991803,71.3788441303641,0.0
282,-1.1286371817264125,-0.2816072527785102,71.43328158251845,0.0
283,-1.092529696745937,-0.24815316289375466,71.4867653647374,0.0
284,-1.0513027697490962,-0.20799155916764756,71.53921939945518,0.0
285,-1.0076321923625158,-0.16380429184302375,71.59056726714617,0.0
286,-0.9636982835894563,-0.11824806454280871,71.64073222803044,0.0
287,-0.9211752212870399,-0.07373675323760012,71.68963724548979,0.0
288,-0.8813519548598296,-0.03229479489459872,71.73720501120486,0.0
289,-0.8452880978316561,0.004525095990340081,71.78335797202256,0.0
290,-0.8139151280880079,0.03567591011937621,71.82801835856014,0.0
291,-0.7880308405294999,0.06061861782498679,71.87110821555011,0.0
292,-0.7681881563448962,0.07930337868059044,71.91254943392732,0.0
293,-0.7545285391065683,0.09213198553258752,71.95226378465726,0.0
294,-0.7466384432491576,0.0998974657969652,71.99017295430042,0.0
295,-0.7435052702387447,0.10369536836536805,72.02619858230625,0.0
296,-0.7436180018252874,0.10480552980281439,72.06026230002523,0.0
297,-0.7452074225465288,0.10455129684728502,72.09228577142507,0.0
298,-0.746569229851947,0.10415191883961791,72.12219073549342,0.0
299,-0.7463799267787478,0.10458947741138237,72.14989905030546,0.0
300,-0.7439142237488446,0.1065117779791998,72.17533273873094,0.0
301,-0.7391053780439669,0.11018662073861621,72.19841403575141,0.0
302,-0.7324437193443091,0.11551250186312906,72.21906543735409,0.0
303,-0.7247615850735096,0.12207925476739112,72.23720975096484,0.0
304,-0.7169841595605526,0.12926288707146433,72.2527701473779,0.0
305,-0.7099251096469287,0.13633439374393208,72.26567021413626,0.0
306,-0.7041773388622642,0.14256335214537982,72.27583401031144,0.0
307,-0.7001068624838178,0.14730249027513043,72.28318612262747,0.0
308,-0.6979189920539791,0.1500467648108094,72.28765172286853,0.0
309,-0.6977444267019748,0.15046713575548143,72.28915662650603,1.0
310,-0.699694675088669,0.1484232660202014,72.2857070069086,0.0
311,-0.7038587314895829,0.14396024143182684,72.27545760652599,0.0
312,-0.7102455442694234,0.13729290309901948,72.25856036563079,0.0
313,-0.7187051754453131,0.12877916234628894,72.23517067095784,0.0
314,-0.7288735373688108,0.11888241964588861,72.20544707758656,0.0
315,-0.7401767297730789,0.10812391028550355,72.16955103335279,0.0
316,-0.7519061862577334,0.09702832023454792,72.1276466065136,0.0
317,-0.7633465310216874,0.08606921880729357,72.07990021734594,0.0
318,-0.7739166188459313,0.07562312229968096,72.026480374319,0.0
319,-0.7832785417360977,0.0659409491212339,71.96755741543541,0.0
320,-0.7913801702797136,0.05714270558725084,71.9033032552932,0.0
321,-0.7984187339056393,0.04923601268376508,71.8338911383754,0.0
322,-0.8047379607388109,0.04215305309903867,71.7594953990296,0.0
323,-0.8106916754623765,0.03579561753539894,71.68029122855484,0.0
324,-0.816516749405904,0.03007584130125176,71.59645444976992,0.0
325,-0.8222549784592567,0.02494177651250419,71.5081612993925,0.0
326,-0.8277476457617216,0.02038180416171805,71.41558821851658,0.0
327,-0.832703126745891,0.01640862195884513,71.31891165143406,0.0
328,-0.8368144319741263,0.013030063502027081,71.21830785300543,0.0
329,-0.8398872616243366,0.010218241385898046,71.11395270474594,0.0
330,-0.8419346554283258,0.007889081413137121,71.00602153975618,0.0
331,-0.8432033801270344,0.005901002814890512,70.89468897658939,0.0
332,-0.8441184734935853,0.0040753268030176495,70.78012876211503,0.0
333,-0.8451605681018388,0.0022339230777599084,70.66251362340434,0.0
334,-0.8467161966443103,0.00024388747764114704,70.54201512863453,0.0
335,-0.848953301535583,-0.0019435143942784366,70.41880355697879,0.0
336,-0.8517660779931658,-0.004271058670812906,70.29304777742313,0.0
337,-0.8548074973525337,-0.006577650556712104,70.16491513642683,0.0
338,-0.8575952847943493,-0.008624559277005478,70.03457135431988,0.0
339,-0.8596515614175134,-0.01013994023539884,69.90218043031099,0.0
340,-0.860627715131936,-0.010871747721308667,69.76790455596046,0.0
341,-0.8603763597804895,-0.01063810084846488,69.63190403695575,0.0
342,-0.8589557235212346,-0.009365919287865742,69.49433722301237,0.0
343,-0.856578111027672,-0.007112106556154511,69.35536044571003,0.0
344,-0.8535326830329388,-0.0040652900714742805,69.21512796406208,0.0
345,-0.8501170911994526,-0.000528962619092594,69.07379191760702,0.0
346,-0.8466021250339447,0.003111639898636342,68.93150228680267,0.0
347,-0.8432340270753234,0.0064360798359789015,68.78840686049712,0.0
348,-0.8402593405855077,0.009045404280173412,68.64465121024553,0.0
349,-0.837945412197905,0.010624442769451705,68.50037867123847,0.0
350,-0.8365706545216041,0.011002716175857224,68.35573032960464,0.0
351,-0.8363719931977933,0.010203773802334677,68.21084501585077,0.0
352,-0.8374576422472477,0.008470195671601018,68.0658593042004,0.0
353,-0.8397137536032547,0.0062512515744363294,67.92090751759577,0.0
354,-0.8427455492916391,0.004143772609682248,67.77612173812798,0.0
355,-0.8458917374065992,0.0027846907455488738,67.63163182266501,0.0
356,-0.8483345124211742,0.002705052691570996,67.48756542345019,0.0
357,-0.8493004659245303,0.004167780408702618,67.3440480134491,0.0
358,-0.8483176855946569,0.007021692800913552,67.20120291622848,0.0
359,-0.8454691450073111,0.010608830695395356,67.05915134015646,0.0
360,-0.8415691012778479,0.013758338913271792,66.91801241672061,0.0
361,-0.8381931093258067,0.014887283714381994,66.77790324276769,0.0
362,-0.8375166110952479,0.01220842540724924,66.63893892647633,0.0
363,-0.8419603556428237,0.004021037954611651,66.50123263688269,0.0
364,-0.8536946245798654,-0.010961155888507875,66.36489565678735,0.0
365,-0.8741034090657184,-0.03330525707497201,66.23003743888069,0.0
366,-0.9033373583163061,-0.06264032640289216,66.09676566493346,0.0
367,-0.9400779179441918,-0.09757554443476349,65.96518630790855,0.0
368,-0.9815917520474617,-0.13578284476726674,65.83540369685964,0.0
369,-1.0240837276183645,-0.17424035238695648,65.70752058449261,0.0
370,-1.0632788283262453,-0.20960131337020999,65.58163821727531,0.0
371,-1.0951036301332155,-0.23862821825823138,65.45785640799171,0.0
372,-1.1163166372370839,-0.25861911186309583,65.33627361064701,0.0
373,-1.1249597297844331,-0.26775524904996784,65.21698699764015,0.0
374,-1.1205589536834946,-0.26531533466083235,65.1000925391314,0.0
375,-1.1040693648812003,-0.25172749279697604,64.98568508454316,0.0
376,-1.077612841175156,-0.2284598834603953,64.87385844614256,0.0
377,-1.0440863686534445,-0.19777826678736388,64.76470548466567,0.0
378,-1.0067211668165,-0.16241869648300644,64.65831819695416,0.0
379,-0.9686599630368006,-0.1252328772194441,64.55478780558585,0.0
380,-0.9326027975820036,-0.08886191147138778,64.45420485049199,0.0
381,-0.9005577156741348,-0.0554827202858407,64.35665928256596,0.0
382,-0.8737205937761587,-0.026653476678677443,64.26224055927818,0.0
383,-0.8524929144820201,-0.0032639435615775675,64.17103774232511,0.0
384,-0.8366242200583592,0.014422209671983988,64.08313959735096,0.0
385,-0.8254399171739979,0.02665969613069226,63.99863469579316,0.0
386,-0.8180934953754431,0.034081306984199755,63.917611518914676,0.0
387,-0.8137753108090199,0.03755603020869716,63.840158564099106,0.0
388,-0.8118245232222103,0.03806814561320437,63.7663644534967,0.0
389,-0.8117250955449796,0.03662762918151273,63.69631804512326,0.0
390,-0.8130101868962718,0.03421000335423802,63.630108546527026,0.0
391,-0.8151351235117356,0.03171517355475835,63.567825631152786,0.0
392,-0.8173919669617046,0.029932088427107456,63.50955955754704,0.0
393,-0.8189216850648082,0.029499531789639107,63.45540129156304,0.0
394,-0.818838694683921,0.030861172940293828,63.405442631740314,0.0
395,-0.8164333833868608,0.03422186554300428,63.35977633804967,0.0
396,-0.8113813971210868,0.03951847184246142,63.3184962642118,0.0
397,-0.8038795180424221,0.04641954612185211,63.28169749381597,0.0
398,-0.7946507287649873,0.05436330676804836,63.249476480483764,0.0
399,-0.7848061569682374,0.06263390833650806,63.22193119234344,0.0
400,-0.775600900492545,0.07046520054336698,63.19916126110156,0.0
401,-0.7681557187617575,0.07715259067773665,63.18126813602075,0.0
402,-0.7632257127519007,0.0821502458444062,63.168355243136794,0.0
403,-0.7610790953126954,0.0851339016424186,63.16052815007372,0.0
404,-0.7615118348588217,0.08601811617756988,63.15789473684211,1.0
405,-0.763980823749916,0.08492831338332364,63.25386746071069,0.0
406,-0.7678038055624465,0.08213895583049326,63.53601053129442,0.0
407,-0.7723593919372064,0.0779965322991043,63.99787046930528,0.0
408,-0.7772285086632703,0.07284786067958293,64.63559719146082,0.0
409,-0.7822445350400368,0.06699036939249045,65.4476069327397,0.0
410,-0.7874522186964015,0.06065306331909052,66.43432943938207,0.0
411,-0.7930029810029443,0.05400738775408977,67.598017124831,0.0
412,-0.7990282733015828,0.04719894983568175,68.94259875407525,0.0
413,-0.8055317027986217,0.04038618281068217,70.47356316800925,0.0
414,-0.8123288451346912,0.03377151807089503,72.1978600245571,0.0
415,-0.8190471205179342,0.027614136546597823,74.12380476265255,0.0
416,-0.8251817630613751,0.02221952539286066,76.26097409498456,0.0
417,-0.8301906614680673,0.01790793671013538,78.62007631266493,0.0
418,-0.8336024294090818,0.014969532178059825,81.21277747698973,0.0
419,-0.8351098175060507,0.013617134782204342,84.05146007759853,0.0
420,-0.8346252652139058,0.013947568113251046,87.14888484998366,0.0
421,-0.8322863978205873,0.01591990225564189,90.5177191294113,0.0
422,-0.8284139804716998,0.019354585161653746,94.16988650195022,0.0
423,-0.8234387647320965,0.023952770092163806,98.11568306250608,0.0
424,-0.8178217386575779,0.029331379354463564,102.36259636906243,0.0
425,-0.8119910736824529,0.03506732220599175,106.91375623663579,0.0
426,-0.8063088421297736,0.04074392509177635,111.7659453834908,0.0
427,-0.8010659515240396,0.04599359299071405,116.90710827029743,0.0
428,-0.7964917253754994,0.050532274339177334,122.31332656588398,0.0
429,-0.7927609427569989,0.0541827830828966,127.94529064345664,0.0
430,-0.7899871896393573,0.05688510880478099,133.74440132158705,0.0
431,-0.7882031011121061,0.05869261137228023,139.62879636992272,0.0
432,-0.7873387715684237,0.05975384187294251,145.4898157129001,0.0
433,-0.7872138234410657,0.06028108247646774,151.18968207557424,0.0
434,-0.7875549197261414,0.060508732098747915,156.56143020159757,0.0
435,-0.7880413721944923,0.060647140593508966,161.4122710973211,0.0
436,-0.7883711041515592,0.060839760775393006,165.53148637301052,0.0
437,-0.7883311835027866,0.061132672687294075,168.70345899473068,0.0
438,-0.7878536913674313,0.06146484035415686,170.72547542648184,0.0
439,-0.7870398203809773,0.061684466936346515,171.42857142857144,1.0
440,-0.7861424059081775,0.06159168891570348,171.34202066936,0.0
441,-0.7855074997654875,0.06100141250335848,171.08660381927214,0.0
442,-0.7854858953774105,0.05981370080993463,170.6693688614736,0.0
443,-0.7863329340004728,0.05807439765989167,170.0981864620083,0.0
444,-0.788118421210107,0.05600717111618814,169.38161620577625,0.0
445,-0.7906686350988069,0.05400096189990939,168.52877098246918,0.0
446,-0.7935601003678354,0.052544211790542666,167.54918278178255,0.0
447,-0.7961799475623091,0.05210847269496466,166.45267278928222,0.0
448,-0.7978589388874693,0.05299721027513048,165.24922823942723,0.0
449,-0.798069004174296,0.055188045296129876,163.94888800942846,0.0
450,-0.7966572754877608,0.05820507350880046,162.5616384536914,0.0
451,-0.7940663405199275,0.06105925505521579,161.09732050683138,0.0
452,-0.7914730855301356,0.062287247582097895,159.56554864249497,0.0
453,-0.7907761428532004,0.060102463936224176,157.97564187947273,0.0
454,-0.794383287804598,0.05264894940305965,156.3365666850605,0.0
455,-0.8047968559561283,0.03832355797388363,154.6568913431113,0.0
456,-0.8240581805528869,0.016110952287059718,152.94475113170108,0.0
457,-0.8531718669527909,-0.014134823237424002,151.2078234907132,0.0
458,-0.8916640195546764,-0.051524880917121235,149.4533122485249,0.0
459,-0.9374168619449453,-0.0941301386985664,147.68793991338396,0.0
460,-0.9868607442503152,-0.13914956027267528,145.91794701215034,0.0
461,-1.0355072239371084,-0.18322995582367785,144.14909746964898,0.0
462,-1.078704630412225,-0.22288348498735344,142.3866890588784,0.0
463,-1.112427901863389,-0.2549289291588803,140.6355680091202,0.0
464,-1.1339056361105622,-0.2768795349564573,138.90014692964047,0.0
465,-1.141943522679653,-0.28721427444931025,137.1844252859972,0.0
466,-1.1369017252962832,-0.2854965421537614,135.4920117496383,0.0
467,-1.1203851246545768,-0.27233710292667146,133.8261478259938,0.0
468,-1.0947731969495698,-0.24922801057396762,132.18973224891306,0.0
469,-1.0627331707831662,-0.21829423643989104,130.5853457080568,0.0
470,-1.026831413284492,-0.18201624879889994,129.01527554931977,0.0
471,-0.9893039759107932,-0.14297017819704355,127.48154015564828,0.0
472,-0.9519900968335072,-0.1036163619375343,125.98591277625289,0.0
473,-0.9163876441000408,-0.06614780340277092,124.5299446260772,0.0
474,-0.8837641318824946,-0.03239330015195645,123.11498712457738,0.0
475,-0.855252693741623,-0.0037599801499175953,121.74221318370792,0.0
476,-0.8318778543223132,0.01880159990798158,120.41263748992355,0.0
477,-0.8144868592428579,0.034820946626105,119.12713575451215,0.0
478,-0.8036009103865763,0.044321222522744494,117.88646293122258,0.0
479,-0.7992360849591059,0.04781515615221902,116.69127042051976,0.0
480,-0.8007644806359108,0.04627038461122882,115.54212229644831,0.0
481,-0.8068835368182364,0.04103260576118983,114.43951060556596,0.0
482,-0.815733439105298,0.0337024012201683,113.38386979822926,0.0
483,-0.8251562278824728,0.025972948993756483,112.3755903611602,0.0
484,-0.8330415924490642,0.019447356697303186,111.41503172713529,0.0
485,-0.8376724001989798,0.015462191430742636,110.50253454322187,0.0
486,-0.8379813016097375,0.014945314299849861,109.63843238361646,0.0
487,-0.8336591533064884,0.018330716487149283,108.82306299715258,0.0
488,-0.8251039395014288,0.02554221206231891,108.05677918325974,0.0
489,-0.8132456036544288,0.03604462441098325,107.33995939386668,0.0
490,-0.7993105564036317,0.04894903398429659,106.67301816273171,0.0
491,-0.7845924497725323,0.0631506055455182,106.05641646822919,0.0
492,-0.7702773175860023,0.07747490976119695,105.49067214100596,0.0
493,-0.7573426967722497,0.09081125635241058,104.9763704344301,0.0
494,-0.7465239385491459,0.10221779391324337,104.51417488370569,0.0
495,-0.7383245860503245,0.11099080166835984,104.10483858926278,0.0
496,-0.7330437323172052,0.11669762917459578,103.7492160719454,0.0
497,-0.730799486646371,0.11917776206795219,103.44827586206897,1.0
498,-0.7315396672060719,0.11851906799698772,103.18002852910412,0.0
499,-0.7350436751629394,0.11501678180144731,102.92151522250666,0.0
500,-0.7409285019583833,0.10912205153924386,102.6723522041778,0.0
501,-0.7486733230196343,0.10138574277721864,102.43216634521497,0.0
502,-0.7576700518767601,0.09240224185578289,102.20059449058523,0.0
503,-0.7672945332388754,0.08275733922808035,101.97728286180174,0.0
504,-0.7769813178106133,0.07298371078351806,101.76188649524168,0.0
505,-0.7862810963520144,0.06352674858542906,101.55406871393903,0.0
506,-0.7948866805965513,0.05472235891928723,101.3535006308608,0.0
507,-0.8026273182579144,0.046786935370841234,101.15986068183912,0.0
508,-0.8094441103743596,0.03981832611954965,100.97283418647885,0.0
509,-0.8153640222995193,0.03380558892802679,100.79211293549761,0.0
510,-0.8204844004081279,0.02864487256141778,100.61739480308005,0.0
511,-0.8249682544082835,0.024158870841084805,100.44838338294176,0.0
512,-0.8290403234374776,0.020117785727872706,100.28478764690576,0.0
513,-0.8329712371304855,0.016260388609985504,100.12632162488887,0.0
514,-0.83704343127726,0.012314441739571429,99.97270410528648,0.0
515,-0.8415043524106844,0.008016392918315374,99.82365835482344,0.0
516,-0.8465232310431807,0.003130858905731202,99.67891185701605,0.0
517,-0.8521706766660845,-0.002529177031361445,99.538196068457,0.0
518,-0.8584322883424021,-0.009080634368293164,99.40124619219941,0.0
519,-0.8652509312600123,-0.016547284943224175,99.26780096757298,0.0
520,-0.8725754522944774,-0.024837793341014033,99.13760247581831,0.0
521,-0.8803863725734544,-0.03373036691527323,99.0103959609743,0.0
522,-0.8886775255499827,-0.04287261293271947,98.88592966549601,0.0
523,-0.8973946139480142,-0.05180671158108092,98.76395468012154,0.0
524,-0.9063574361867572,-0.06002827516959862,98.64422480754195,0.0
525,-0.9152094910446059,-0.06708115954812506,98.52649643946086,0.0
526,-0.9234378730545947,-0.07268019638779108,98.41052844665948,0.0
527,-0.9304866674988317,-0.07684121182771644,98.29608208170924,0.0
528,-0.9359547666899476,-0.07998626968718377,98.1829208939961,0.0
529,-0.9398342114113588,-0.08298615267787159,98.07081065674225,0.0
530,-0.9427175481684622,-0.0871055935716407,97.95951930572724,0.0
531,-0.9458899400396279,-0.09383176565237952,97.84881688942538,0.0
532,-0.9512298222011936,-0.10459206661232225,97.73847553028922,0.0
533,-0.9608750445140255,-0.12039873416524371,97.62826939691828,0.0
534,-0.9766700486453195,-0.14148766149914704,97.51797468686041,0.0
535,-0.9994861164544037,-0.16703775929249737,97.40736961979796,0.0
536,-1.0285827728488797,-0.19505712338500716,97.29623444087511,0.0
537,-1.0612261839191675,-0.22249868697512384,97.18435143392355,0.0
538,-1.0927693306403068,-0.245622642597641,97.07150494434414,0.0
539,-1.117308035847733,-0.26056436940323074,96.95748141139835,0.0
540,-1.1288609653806223,-0.2640092658734762,96.84206940966135,0.0
541,-1.1228219569868376,-0.2538363531937262,96.72505969938108,0.0
542,-1.0972751981475277,-0.22958459075439736,96.60624528548205,0.0
543,-1.0537317823294963,-0.19262560414622604,96.48542148494269,0.0
544,-0.9969869247085762,-0.14598923428315527,96.36238600226622,0.0
545,-0.9340802146468228,-0.0938687553916407,96.23693901275315,0.0
546,-0.872656747957605,-0.04090913473234512,96.10888325327156,0.0
547,-0.8192357160093124,0.008567097226495457,95.9780241202073,0.0
548,-0.7779037846898541,0.05123019598402796,95.8441697742629,0.0
549,-0.7497700537940825,0.08517411164324283,95.707131251758,0.0
550,-0.7332405225263878,0.11003512793890746,95.5667225820689,0.0
551,-0.7249132334954836,0.12680202351202766,95.42276091082776,0.0
552,-0.7207479791405664,0.1373908877869153,95.27506662848599,0.0
553,-0.7171529429373861,0.1441026410868556,95.12346350382894,0.0
554,-0.711727571009265,0.14909312882445522,94.96777882201165,0.0
555,-0.7035508095527787,0.15396556835892075,94.80784352666802,0.0
556,-0.6930490463844993,0.1595524422508175,94.64349236562954,0.0
557,-0.6815773167666093,0.16590230699465178,94.47456403977202,0.0
558,-0.6708839715631894,0.17244005803679083,94.30090135449291,0.0
559,-0.662610382534843,0.17823704939743265,94.12235137330619,0.0
560,-0.6579259463109252,0.18231478565384854,93.9387655730263,0.0
561,-0.6573399518170937,0.18391189945237818,93.75,1.0
562,-0.660683611375574,0.18266390951485606,93.55291654261761,0.0
563,-0.6672247069845793,0.17867188938469944,93.34478185226435,0.0
564,-0.6758631916509998,0.17246274141149343,93.12606373561543,0.0
565,-0.6853553710269449,0.16486488058706644,92.89723069029317,0.0
566,-0.69452341414427,0.156835730874318,92.65875098050236,0.0
567,-0.7024217088789247,0.14928084736043978,92.41109175772422,0.0
568,-0.7084467185541032,0.1428999331732393,92.15471822778721,0.0
569,-0.7123877448435271,0.13808491971948328,91.89009286529944,0.0
570,-0.7144207701286364,0.1348824360861396,91.61767467610628,0.0
571,-0.7150490641490814,0.13302004834510575,91.3379185081372,0.0
572,-0.7149974016694457,0.13198471085569186,91.05127441072396,0.0
573,-0.7150742776045105,0.13113436065060957,90.75818704221129,0.0
574,-0.7160259525966853,0.12982020310373166,90.45909512544021,0.0
575,-0.718411301368871,0.12749798746127605,90.15443095046575,0.0
576,-0.7225223982906931,0.12381083080272283,89.84461992367241,0.0
577,-0.7283631717026726,0.11863279578254257,89.5300801622738,0.0
578,-0.7356828947306702,0.11207005264780395,89.21122213302674,0.0
579,-0.7440491738133687,0.10442364373702856,88.88844833385416,0.0
580,-0.7529398480708186,0.09612347435364163,88.56215301695502,0.0
581,-0.7618344604715169,0.08764650208288262,88.23272195188063,0.0
582,-0.770291273953479,0.07943304198924331,87.90053222697853,0.0
583,-0.7780024885210833,0.07181395161902576,87.56595208754094,0.0
584,-0.7848260953211771,0.06495878193870647,87.22934080894748,0.0
585,-0.7907960069823066,0.05885141939689922,86.8910486030609,0.0
586,-0.7961122617302762,0.053295847975330886,86.55141655611372,0.0
587,-0.8011116469834102,0.047950809784264865,86.21077659631943,0.0
588,-0.8062188874560582,0.04238857007511035,85.8694514894455,0.0
589,-0.8118817656633526,0.03616985249261628,85.52775486060185,0.0
590,-0.8184993968075542,0.028924462471293988,85.18599124052315,0.0
591,-0.8263575411534786,0.020425376335609008,84.84445613465537,0.0
592,-0.8355842590621189,0.010643424003597218,84.5034361133982,0.0
593,-0.8461326123477562,-0.0002295313333331092,84.16320892190046,0.0
594,-0.8577881282799239,-0.011798461980122507,83.82404360785792,0.0
595,-0.8701933688319438,-0.02352901335966577,83.48620066581825,0.0
596,-0.882884706591179,-0.034855422711593885,83.14993219655895,0.0
597,-0.8953467375072688,-0.04532194101004114,82.81548208016525,0.0
598,-0.9071005317898767,-0.05473758188864948,82.48308616150179,0.0
599,-0.9178419556445501,-0.06331533100091223,82.15297244683694,0.0
600,-0.9276272375739407,-0.07176172083058717,81.82536131044787,0.0
601,-0.9370671323394697,-0.08128367928643591,81.50046571010192,0.0
602,-0.9474541275036772,-0.09348885872912899,81.17849141037895,0.0
603,-0.9607319166062095,-0.11017352397041566,80.85963721286724,0.0
604,-0.9792402660027729,-0.13301621674234468,80.54409519233356,0.0
605,-1.0052323765901503,-0.1632208661366996,80.23205093803494,0.0
606,-1.0402471103213646,-0.20117311554911985,79.92368379940488,0.0
607,-1.0844928585569564,-0.24618183496806442,79.61916713541122,0.0
608,-1.1364306410141554,-0.29636982794938066,79.3186685669463,0.0
609,-1.1927119169402385,-0.3487534398751215,79.02235023167003,0.0
610,-1.2485354602813268,-0.3995146418414622,78.73036904078685,0.0
611,-1.2983657332551253,-0.4444295228301653,78.44287693729423,0.0
612,-1.336845462233324,-0.4793838505170362,78.16002115529685,0.0
613,-1.35967785105435,-0.5008879880794124,77.88194448003313,0.0
614,-1.364269270093834,-0.5065045752999898,77.60878550831391,0.0
615,-1.3500029752186293,-0.49512228788935986,77.34067890912178,0.0
616,-1.3181261148651184,-0.46704197986676343,77.07775568416838,0.0
617,-1.271334841663848,-0.42387875472660363,76.82014342825325,0.0
618,-1.2132037136601672,-0.36831574980435405,76.56796658931196,0.0
619,-1.1476142794258928,-0.3037656380422181,76.32134672808502,0.0
620,-1.0783026592133211,-0.2340010234032497,76.08040277737989,0.0
621,-1.0085867956860437,-0.16280638563028632,75.84525130093927,0.0
622,-0.9412710695013329,-0.09368682066005618,75.61600675196715,0.0
623,-0.8786750481807893,-0.02964893988175593,75.3927817314027,0.0
624,-0.8227057465858609,0.02694713321819109,75.1756872460681,0.0
625,-0.7748954971947526,0.07447495217646666,74.96483296685338,0.0
626,-0.7363590021036732,0.11207971291309962,74.76032748713621,0.0
627,-0.7076719011839463,0.1396741051970587,74.56227858166974,0.0
628,-0.6887203858920237,0.15789276362450153,74.37079346620676,0.0
629,-0.6785981303560497,0.16800176442198014,74.18597905816215,0.0
630,-0.6756220564288559,0.17176019674885232,74.00794223865165,0.0
631,-0.677503406876373,0.17123674690488677,73.83679011627919,0.0
632,-0.681658334954557,0.1685936558202489,73.67263029308062,0.0
633,-0.6855929437739606,0.16586001805786962,73.51557113306899,0.0
634,-0.6872709560887809,0.16472262993239228,73.36572203386332,0.0
635,-0.6853782684438797,0.16636297143660647,73.2231937019216,0.0
636,-0.6794335549612924,0.1713628156334645,73.08809843193951,0.0
637,-0.6697416412368618,0.17968978915203196,72.96055039101823,0.0
638,-0.6572268647544837,0.19076076281702362,72.84066590824939,0.0
639,-0.6432038249883595,0.2035684712867183,72.72856377041172,0.0
640,-0.6291410504765443,0.21684793166534547,72.62436552452422,0.0
641,-0.6164568324659987,0.22925552686702327,72.52819578805358,0.0
642,-0.6063665395019288,0.23953511654081058,72.44018256762996,0.0
643,-0.5997851668749077,0.24665116129320044,72.36045758718686,0.0
644,-0.5972805501689211,0.24987686021687708,72.28915662650603,1.0
645,-0.5990699814164883,0.2488338435868414,72.22233794901278,0.0
646,-0.6050522837566348,0.2434874527122597,72.15597257630958,0.0
647,-0.6148658951531214,0.23410701717322946,72.09006863452711,0.0
648,-0.6279609701632863,0.22120333413812882,72.02463419538655,0.0
649,-0.643672022949509,0.20545583377779159,71.95967727749564,0.0
650,-0.6612794817324888,0.1876401699032548,71.89520584765663,0.0
651,-0.6800540730043303,0.1685639595390399,71.83122782218621,0.0
652,-0.6992851656610061,0.14901494399203485,71.7677510682469,0.0
653,-0.7182997938229732,0.12972269401342063,71.70478340518981,0.0
654,-0.7364803932133716,0.11133263198777515,71.64233260590872,0.0
655,-0.753285915396373,0.09438979246158692,71.5804063982052,0.0
656,-0.7682751559051528,0.07932931588958748,71.51901246616481,0.0
657,-0.7811264679687138,0.0664709335882836,71.45815845154397,0.0
658,-0.7916472906328675,0.05601539037300951,71.39785195516767,0.0
659,-0.7997703932369783,0.04804167114165314,71.33810053833783,0.0
660,-0.8055394710591619,0.042504944977052636,71.27891172425217,0.0
661,-0.8090918926605206,0.039236242894544734,71.2202929994336,0.0
662,-0.8106483645909516,0.03794590824120477,71.16225181517012,0.0
663,-0.8105161020891627,0.038233542807842844,71.10479558896493,0.0
664,-0.8091035047514744,0.03960716348830416,71.04793170599714,0.0
665,-0.8069332667909347,0.041513274252389945,70.99166752059266,0.0
666,-0.8046335384641219,0.043377482244104565,70.93601035770563,0.0
667,-0.8028896271305138,0.044652492325204095,70.88096751441003,0.0
668,-0.8023534816514596,0.04486757674040959,70.82654626140192,0.0
669,-0.803529193706217,0.04367194054615041,70.77275384451187,0.0
670,-0.8066695023947186,0.04086464333080167,70.71959748622815,0.0
671,-0.8117215865721898,0.03640617862099013,70.66708438723039,0.0
672,-0.8183473954509881,0.030410909912599177,70.61522172793376,0.0
673,-0.8260188561084839,0.023124002025992907,70.56401667004415,0.0
674,-0.8341607688628477,0.014889599989595763,70.51347635812408,0.0
675,-0.8422945106761633,0.006117425091844764,70.46360792116961,0.0
676,-0.850132204682041,-0.0027477473223017565,70.4144184741984,0.0
677,-0.8575873058506345,-0.011254216412019083,70.36591511984903,0.0
678,-0.8647000610209037,-0.018974733295942015,70.31810494999186,0.0
679,-0.8715140252839733,-0.025549558789231173,70.27099504735129,0.0
680,-0.87796716806795,-0.030747957603834995,70.22459248714026,0.0
681,-0.883864098246251,-0.03454809950889007,70.17890433870632,0.0
682,-0.8889692098907745,-0.03722482078303815,70.13393766719032,0.0
683,-0.8932112260790105,-0.03942371877171828,70.08969953519745,0.0
684,-0.8969355570500683,-0.042192861510236455,70.04619700448107,0.0
685,-0.9011040312807638,-0.046943799359666694,70.00343713763958,0.0
686,-0.9073393073080708,-0.05532344533266005,69.96142699982653,0.0
687,-0.9177489867346349,-0.0689967200273547,69.92017366047459,0.0
688,-0.9345318923883591,-0.08936264855830123,69.87968419503311,0.0
689,-0.9594432222926621,-0.11724786864991074,69.83996568672023,0.0
690,-0.9932498553437413,-0.152635013458507,69.80102522828949,0.0
691,-1.0353228075428922,-0.19448459359525153,69.76286992381137,0.0
692,-1.0834855756797757,-0.24069641442171433,69.72550689047033,0.0
693,-1.1341738932829069,-0.2882325430423521,69.68894326037746,0.0
694,-1.1828832228326378,-0.333393835332871,69.65318618239947,0.0
695,-1.2248081989538733,-0.3722130933915213,69.61824282400406,0.0
696,-1.255534036729291,-0.40090669439588406,69.5841203731226,0.0
697,-1.2716358345135033,-0.4163174394816455,69.55082604003007,0.0
698,-1.2710771051841385,-0.41628553974189053,69.5183670592433,0.0
699,-1.2533604712665587,-0.3998998668851612,69.48675069143732,0.0
700,-1.2194500038715321,-0.3676032440280184,69.4559842253812,0.0
701,-1.17153432130844,-0.32114822842483204,69.42607497989306,0.0
702,-1.1127175537166953,-0.26341896939011533,69.39703030581542,0.0
703,-1.0467096698970804,-0.19814772232345096,69.36885758801128,0.0
704,-0.9775501558808619,-0.1295611738689112,69.34156424738133,0.0
705,-0.9093595776831035,-0.061993359858189,69.31515774290324,0.0
706,-0.8460908289533878,0.0004992003051013383,69.28964557369348,0.0
707,-0.7912549517091247,0.05448675961687374,69.26503528109232,0.0
708,-0.7476219444989227,0.09744936575358915,69.24133445077288,0.0
709,-0.7169318075254097,0.1279670305903736,69.21855071487461,0.0
710,-0.6996782328648962,0.14579700593915795,69.19669175416226,0.0
711,-0.6950326881505785,0.15182831743596076,69.17576530021094,0.0
712,-0.7009546134260425,0.14791741210413284,69.15577913761808,0.0
713,-0.7144899192318716,0.13662435499568637,69.13674110624292,0.0
714,-0.7322103078197836,0.12088356474988157,69.11865910347477,0.0
715,-0.7507084017669373,0.10365326056128077,69.10154108653047,0.0
716,-0.7670511645294247,0.087590885585466,69.08539507478208,0.0
717,-0.7791089999846869,0.07479660606257368,69.07022915211594,0.0
718,-0.7857126969981802,0.06665438500671547,69.05605146932348,0.0
719,-0.7866326693413939,0.0637827302446186,69.04287024652542,0.0
720,-0.7824129011560707,0.06608874980294291,69.03069377562984,0.0
721,-0.774117261827743,0.07290343556092654,69.01953042282541,0.0
722,-0.7630541220528448,0.0831660821475147,69.0093886311107,0.0
723,-0.7505364597465626,0.09562283595679522,69.00027692286069,0.0
724,-0.7377134018359249,0.1090082288765007,68.99220390243183,0.0
725,-0.725483591426315,0.12218739733133266,68.98517825880624,0.0
726,-0.7144795730749135,0.13424789737701776,68.97920876827706,0.0
727,-0.7051005964064195,0.1445408887772487,68.9743042971753,0.0
728,-0.6975685218473276,0.15267982892244497,68.9704738046401,0.0
729,-0.6919843858222492,0.15850951830405463,68.96772634543352,0.0
730,-0.6883689131650924,0.16205927330009037,68.96607107280103,0.0
731,-0.6866785861024346,0.16349196306103575,68.96551724137932,1.0
732,-0.6868000178674881,0.16305695148129606,68.97000677639869,0.0
733,-0.6885368081322605,0.16105102257842357,68.98331989560478,0.0
734,-0.6916089527110113,0.15778819772162506,69.0052281784972,0.0
735,-0.6956798324256533,0.1535774584204534,69.0355091523968,0.0
736,-0.7004101120252788,0.14870665937134692,69.07394573470242,0.0
737,-0.7055195666270514,0.14343086891157159,69.120325698925,0.0
738,-0.710828677436483,0.1379634982641399,69.17444116260806,0.0
739,-0.7162593652361948,0.1324686519453559,69.23608809541034,0.0
740,-0.7217957798574909,0.12705331388708152,69.30506584578038,0.0
741,-0.7274294583964621,0.12175866519459033,69.38117668479562,0.0
742,-0.7331241093626074,0.11655127160291776,69.46422536587151,0.0
743,-0.7388262218803529,0.11131688814161594,69.5540186991705,0.0
744,-0.7445223495513669,0.10586146463994536,69.65036513965715,0.0
745,-0.7503151806200374,0.09992455501271916,69.7530743878555,0.0
746,-0.7564736498933347,0.09320888633425731,69.86195700246854,0.0
747,-0.7634171964308051,0.08542618767362369,69.97682402411797,0.0
748,-0.7716201080473855,0.07635433097762759,70.0974866095569,0.0
749,-0.7814576074261655,0.06589599988968514,70.22375567579742,0.0
750,-0.7930448542372099,0.054126291800906993,70.35544155368267,0.0
751,-0.8061300305325667,0.04131715426572413,70.49235365051523,0.0
752,-0.8200882242141168,0.0279305166804686,70.6343001214365,0.0
753,-0.8340288168086539,0.01457828316565743,70.78108754932911,0.0
754,-0.8469880366674019,0.001953993143591286,70.93252063309309,0.0
755,-0.85814615692567,-0.009254176479291207,71.08840188422094,0.0
756,-0.8669991780833558,-0.018457627272036578,71.24853133167214,0.0
757,-0.8734333127657861,-0.02525863092377366,71.41270623512018,0.0
758,-0.8776910364737567,-0.02953150997887532,71.58072080671806,0.0
759,-0.8802633324832676,-0.03148898881952476,71.75236594159942,0.0
760,-0.8817737183224558,-0.031729127780790414,71.92742895740327,0.0
761,-0.8829207017823041,-0.03125551557395154,72.1056933431801,0.0
762,-0.8845138927126742,-0.03145909238916841,72.28693851810701,0.0
763,-0.8875865932489768,-0.03404697280004861,72.47093960050645,0.0
764,-0.8935156934679996,-0.040905287440505964,72.65746718773251,0.0
765,-0.9040513764850752,-0.05389169480529364,72.84628714755294,0.0
766,-0.9211706876456979,-0.07456876748910068,73.03716042172198,0.0
767,-0.9467224735575177,-0.103908860506785,73.22984284250086,0.0
768,-0.981911669505896,-0.14201875503777878,73.42408496294557,0.0
769,-1.02675014280951,-0.18794188185287344,73.61963190184049,0.0
770,-1.0796472148534173,-0.23959215401445783,73.8162232042129,0.0
771,-1.1373022557982644,-0.2938546988097293,74.01359271841778,0.0
772,-1.194990313615235,-0.3468579490279199,74.21146849083208,0.0
773,-1.2472187592520247,-0.3943856905950451,74.40957267924364,0.0
774,-1.288615761260083,-0.4323661221356127,74.60762148606226,0.0
775,-1.314832395918665,-0.457356568668772,74.80532511251518,0.0
776,-1.3232298151672737,-0.46694260759008815,75.00238773502105,0.0
777,-1.313186645976128,-0.4599891551212733,75.19850750495868,0.0
778,-1.285977589260909,-0.43671326400062044,75.39337657306405,0.0
779,-1.244301271515219,-0.3985849807686128,75.58668113969595,0.0
780,-1.1916301079008726,-0.34809372792668064,75.77810153221111,0.0
781,-1.1315863477188735,-0.2884357163115816,75.96731231067704,0.0
782,-1.067508913433825,-0.22317982314159202,76.15398240313127,0.0
783,-1.0022831271435582,-0.1559573746025243,76.3377752715617,0.0
784,-0.9383969276293691,-0.09020159320840232,76.51834910973848,0.0
785,-0.8781043859124593,-0.028942930786284904,76.69535707396982,0.0
786,-0.8235502805121797,0.02534636202965626,76.86844754778289,0.0
787,-0.7767454342983283,0.07086823635880196,77.0372644414452,0.0
788,-0.7393640266263402,0.10657986833502012,77.20144752714114,0.0
789,-0.7124264038803869,0.1322348562177542,77.36063281050274,0.0
790,-0.6959954383764145,0.14837232400626924,77.51445293906201,0.0
791,-0.6890243100979633,0.15624078212100162,77.66253764804456,0.0
792,-0.6894449066837117,0.1576508932874894,77.80451424376051,0.0
793,-0.694499896594724,0.15476485575760415,77.94000812466916,0.0
794,-0.701234229761887,0.14984535565683713,78.06864333999829,0.0
795,-0.7070085212966618,0.14499856305812842,78.19004318558783,0.0
796,-0.7098964152492916,0.14194933676867327,78.30383083640257,0.0
797,-0.7088765712967625,0.1418812846683904,78.40963001491829,0.0
798,-0.7038042133464695,0.14536129609360537,78.50706569433399,0.0
799,-0.6952164335580535,0.15235156543754427,78.59576483529916,0.0
800,-0.6840645049519627,0.16229660264086282,78.67535715457076,0.0
801,-0.6714652826647562,0.17426199543862464,78.74547592373433,0.0
802,-0.6585297195569516,0.18709747889426412,78.80575879583482,0.0
803,-0.6462790900170697,0.19959872268649256,78.85584865747313,0.0
804,-0.6356205456079088,0.210648137672591,78.89539450363186,0.0
805,-0.6273377626542965,0.21932238592045303,78.92405233220441,0.0
806,-0.6220620858867941,0.22496109674750572,78.94148605491642,0.0
807,-0.620215766912302,0.22719654248525722,78.94736842105263,1.0
808,-0.6219467473296101,0.22594774127188963,78.9444836930555,0.0
809,-0.6270901034976827,0.22138521366944752,78.935913018629,0.0
810,-0.635187548956142,0.21387493530333337,78.92178342402985,0.0
811,-0.6455750730829174,0.20391189312365351,78.9022241412733,0.0
812,-0.6575195268453325,0.19205449830786286,78.87736643038224,0.0
813,-0.670361258455711,0.17887014733141388,78.84734340383446,0.0
814,-0.6836133919008074,0.16489899832559402,78.81228985356101,0.0
815,-0.6969833012645186,0.15063787327084993,78.77234208082768,0.0
816,-0.7103126853400986,0.13654033637813176,78.72763772931074,0.0
817,-0.7234662218992761,0.12302423390103857,78.67831562165624,0.0
818,-0.736220356862763,0.11047602489170089,78.62451559979108,0.0
819,-0.7482038745016821,0.09924300458926015,78.566378369232,0.0
820,-0.7589205961691419,0.08960968609304969,78.50404534761734,0.0
821,-0.7678513751049584,0.08176157566756091,78.43765851766517,0.0
822,-0.7746016270035585,0.07574600568176645,78.36736028474013,0.0
823,-0.7790437594372798,0.07144326725501336,78.29329333919074,0.0
824,-0.7814054791541992,0.0685605518032125,78.21560052359861,0.0
825,-0.7822719304950281,0.06665608959808729,78.13442470506155,0.0
826,-0.7824949049516311,0.06519274473939782,78.04990865261287,0.0
827,-0.783028779157309,0.06361162581782154,77.96219491986112,0.0
828,-0.7847343067235824,0.06140974711398355,77.87142573291668,0.0
829,-0.7882025693538968,0.0582036280588215,77.77774288365413,0.0
830,-0.7936482515567356,0.05376389392310697,77.68128762834365,0.0
831,-0.8009032465510548,0.04801377561650719,77.58220059166841,0.0
832,-0.8095126500824513,0.040994755571789505,77.48062167613102,0.0
833,-0.8189039380716235,0.032812424541744045,77.37668997683791,0.0
834,-0.8285766063087496,0.023581840069062734,77.27054370163725,0.0
835,-0.8382520527703055,0.01339216576221975,77.16232009657452,0.0
836,-0.8479356024853132,0.0023045840773451842,77.05215537661827,0.0
837,-0.8578713374655382,-0.009613277952614352,76.94018466159818,0.0
838,-0.8684062049547289,-0.022226039399523737,76.82654191728818,0.0
839,-0.8798094545427343,-0.03526334608766599,76.71135990155881,0.0
840,-0.8921057383705713,-0.04827408600645579,76.59477011551486,0.0
841,-0.9049724436657617,-0.060628448019140455,76.4769027595277,0.0
842,-0.917731123891839,-0.0715853902613566,76.35788669406541,0.0
843,-0.9294408392529152,-0.08042767549096717,76.2378494052181,0.0
844,-0.9390850985333762,-0.08664771825980815,76.11691697481187,0.0
845,-0.9458322500950309,-0.09014932136728158,75.9952140549999,0.0
846,-0.9493346308199212,-0.09141761373688881,75.87286384721715,0.0
847,-0.950010746106753,-0.09160626416038255,75.74998808538137,0.0
848,-0.9492325692703013,-0.09249990719518802,75.62670702322228,0.0
849,-0.9493304103184214,-0.09633075652171433,75.50313942561868,0.0
850,-0.9533460532168075,-0.10545859454946128,75.37940256382315,0.0
851,-0.964518802417634,-0.12195672471857671,75.25561221445324,0.0
852,-0.9855712085148846,-0.14717507761265955,75.13188266212909,0.0
853,-1.0179466614816304,-0.18136738173759528,75.00832670563774,0.0
854,-1.061204493469439,-0.22346628144143724,74.88505566750584,0.0
855,-1.1127693930931644,-0.27106697937566715,74.76217940686452,0.0
856,-1.1681519354437544,-0.3206402786567737,74.63980633549194,0.0
857,-1.2216265753854898,-0.3679485705957577,74.51804343692179,0.0
858,-1.2672167163928199,-0.4085948675224832,74.39699628850897,0.0
859,-1.2997431368012067,-0.4386064521922587,74.27676908634666,0.0
860,-1.3156761583648215,-0.45494840778999596,74.15746467293276,0.0
861,-1.3135976345617597,-0.4558795747303493,74.03918456748754,0.0
862,-1.2941996603080062,-0.4410994075183967,73.92202899882776,0.0
863,-1.2598783718462068,-0.41167908165905454,73.80609694070795,0.0
864,-1.214079876404496,-0.36981253620318677,73.69148614954311,0.0
865,-1.1605948100655674,-0.318452985869062,73.5782932044319,0.0
866,-1.1029752383254054,-0.2609120452861499,73.46661354940528,0.0
867,-1.0441795380345247,-0.20049160782455433,73.35654153782902,0.0
868,-0.9864654767831554,-0.14019753031100368,73.24817047889543,0.0
869,-0.9314775346066165,-0.08255654252919051,73.14159268614385,0.0
870,-0.8804318645560388,-0.029531711283888235,73.03689952795548,0.0
871,-0.8342978566470014,0.017486455771642984,72.93418147997393,0.0
872,-0.7939025364925667,0.057643542592276206,72.83352817940829,0.0
873,-0.7599285086438344,0.09056669596582048,72.73502848118177,0.0
874,-0.732821868517297,0.11630940856301203,72.63877051589493,0.0
875,-0.7126603512174238,0.1353008514381525,72.54484174957847,0.0
876,-0.6990456427896372,0.14829513829098023,72.45332904521716,0.0
877,-0.6910747773924032,0.15631124401762264,72.36431872603276,0.0
878,-0.6874180010803751,0.1605555413139951,72.27789664052032,0.0
879,-0.6864943408750626,0.16232468727274116,72.19414822923866,0.0
880,-0.6867039784183212,0.16289419369359293,72.11315859336314,0.0
881,-0.6866591330867586,0.1634045107947574,72.03501256501546,0.0
882,-0.6853576783511338,0.164759662544424,71.95979477939211,0.0
883,-0.6822643109309958,0.16755258260621775,71.88758974872087,0.0
884,-0.6772948484647011,0.17202693784414425,71.81848193808193,0.0
885,-0.6707287888174187,0.178079010758989,71.75255584313757,0.0
886,-0.6630926215410397,0.18529703067481443,71.6898960698229,0.0
887,-0.6550551617871657,0.1930306454072604,71.63058741605747,0.0
888,-0.6473577926380709,0.20048060677889665,71.57471495554653,0.0
889,-0.6407762228493101,0.2067979564347378,71.522364123749,0.0
890,-0.6360894759687519,0.21118232576047155,71.4736208060983,0.0
891,-0.6340273050998658,0.2129697444505607,71.42857142857143,1.0
892,-0.6351819923802606,0.21170137999645075,71.38540751388231,0.0
893,-0.6398972497769568,0.20716621930785983,71.34227083316358,0.0
894,-0.6481712778401691,0.1994133919822396,71.29917360155787,0.0
895,-0.6596187369708897,0.1887338876749671,71.25612797513597,0.0
896,-0.6735211243701047,0.17561641378388115,71.21314605114188,0.0
897,-0.6889621320684651,0.16068688347618432,71.17023986827832,0.0
898,-0.7050085823043479,0.14464391957751743,71.12742140703229,0.0
899,-0.7208754769028799,0.12820247488800462,71.08470259004051,0.0
900,-0.736016939134426,0.1120538279121357,71.04209528249342,0.0
901,-0.7501136278606401,0.09684376078191448,70.99961129257827,0.0
902,-0.762970056259613,0.08316375629725961,70.95726237195979,0.0
903,-0.7743736958737076,0.07154510237737821,70.91506021629887,0.0
904,-0.7839847623067826,0.06244487906481177,70.87301646580799,0.0
905,-0.7913134727324687,0.056216569313585735,70.83114270584346,0.0
906,-0.7958054432604014,0.05306539439532053,70.78945046753371,0.0
907,-0.7970110823746092,0.05299691213074293,70.74795122844345,0.0
908,-0.7947797780670047,0.055773848320604294,70.70665641327285,0.0
909,-0.7894077921621498,0.060898012064769635,70.66557739459179,0.0
910,-0.7816831912750516,0.06763039294984861,70.62472549360835,0.0
911,-0.7728046753028843,0.07505395067250256,70.58411198097134,0.0
912,-0.7641908242910016,0.08217262330229431,70.54374807760655,0.0
913,-0.7572290265865658,0.08802998365847309,70.503644955586,0.0
914,-0.7530300553717322,0.0918248376630298,70.4638137390301,0.0
915,-0.7522512772870881,0.093000781672488,70.42426550504253,0.0
916,-0.7550305974990883,0.09129247330850179,70.38501128467675,0.0
917,-0.7610408387470189,0.08672152818722494,70.34606206393478,0.0
918,-0.7696397523428832,0.07954671656294962,70.30742878479718,0.0
919,-0.7800646588726925,0.07018333265024648,70.2691223462843,0.0
920,-0.7916114882481496,0.059112658191807554,70.23115360554831,0.0
921,-0.8037495456635086,0.04680302493645565,70.19353337899588,0.0
922,-0.8161518284145848,0.03365930458298483,70.15627244344124,0.0
923,-0.8286543001605817,0.02000921723879906,70.11938153728917,0.0
924,-0.8411806892720841,0.006124862693544439,70.08287136174805,0.0
925,-0.8536714405311219,-0.007731398094774383,70.04675258207226,0.0
926,-0.8660378934992262,-0.02125434341322903,70.01103582883431,0.0
927,-0.8781390235150182,-0.03405728218837836,69.97573169922603,0.0
928,-0.8897647882916373,-0.04566694753828508,69.94085075838889,0.0
929,-0.9006160060140245,-0.0555657746074637,69.90640354077331,0.0
930,-0.9102913267678509,-0.06328566969978626,69.87240055152667,0.0
931,-0.9183130544046073,-0.06854440863704453,69.83885226791013,0.0
932,-0.9242295243900613,-0.07140157748539994,69.80576914074399,0.0
933,-0.9278125246475899,-0.07239854135646986,69.77316159588155,0.0
934,-0.929324627905172,-0.0726401116013488,69.74104003571144,0.0
935,-0.9297771630952987,-0.07377800335912159,69.70941484068852,0.0
936,-0.9310601915859242,-0.07786990157288377,69.67829637089295,0.0
937,-0.9358286833717016,-0.08711218667412693,69.64769496761782,0.0
938,-0.9470878881502733,-0.10347481706431823,69.61762095498521,0.0
939,-0.9675230974054159,-0.12829626549253273,69.58808464159063,0.0
940,-0.9987268523213375,-0.1619163200880268,69.55909632217616,0.0
941,-1.0405438445367323,-0.20342795687629772,69.53066627933198,0.0
942,-1.0907475851251216,-0.25061327226304086,69.50280478522686,0.0
943,-1.1451795337071993,-0.3000949515333494,69.47552210336728,0.0
944,-1.19834757791204,-0.3476914488566987,69.44882849038574,0.0
945,-1.244343380822276,-0.38892165484289715,69.42273419785812,0.0
946,-1.2778460212226372,-0.41957404792958575,69.3972494741504,0.0
947,-1.2949643616595736,-0.43624368425366233,69.372384566295,0.0
948,-1.293734915713082,-0.4367500121883369,69.34814972189697,0.0
949,-1.2742079721493618,-0.4203757514895037,69.3245551910702,0.0
950,-1.2381770517683415,-0.3879039658014177,69.30161122840398,0.0
951,-1.1886915213798663,-0.34146735972934916,69.27932809496038,0.0
952,-1.1295145160329438,-0.28425243442308873,69.25771606030244,0.0
953,-1.0646514251697055,-0.22011660196057645,69.23678540455404,0.0
954,-0.9980054577036379,-0.1531780948498651,69.21654642049123,0.0
955,-0.9331522284367233,-0.0874294810476079,69.19700941566606,0.0
956,-0.8731907081016548,-0.026410694735287746,69.1781847145628,0.0
957,-0.8206281311172986,0.027038335413389056,69.16008266078745,0.0
958,-0.7772785632106123,0.0709385417904585,69.14271361929086,0.0
959,-0.7441799640841729,0.10424800296305309,69.12608797862583,0.0
960,-0.7215491938020249,0.12686032986566673,69.1102161532392,0.0
961,-0.7087944835537,0.1395337113829703,69.09510858579894,0.0
962,-0.7045942136242295,0.14375988837847267,69.08077574955745,0.0
963,-0.7070370255085432,0.14158326432854265,69.0672281507512,0.0
964,-0.7138086321520154,0.13538232339115366,69.05447633103776,0.0
965,-0.722408627753925,0.12762859883959787,69.04253086997075,0.0
966,-0.7303840356739426,0.1206420580325033,69.03140238751364,0.0
967,-0.7355691009892769,0.11636490042408024,69.02110154659279,0.0
968,-0.736317104872273,0.11617710265971187,69.0116390556912,0.0
969,-0.7316990489693597,0.12077534728024653,69.0030256714831,0.0
970,-0.721632116505775,0.13013144366969423,68.99527220151084,0.0
971,-0.7068979363471287,0.14353703311441726,68.98838950690482,0.0
972,-0.6890245635705401,0.1597293874513659,68.98238850514714,0.0
973,-0.6700365347683394,0.17708061033293093,68.97728017288068,0.0
974,-0.652114962656161,0.19382226497522037,68.9730755487638,0.0
975,-0.6372396470894596,0.20827195419099442,68.96978573637243,0.0
976,-0.6268942997095882,0.21902924948164984,68.96742190715048,0.0
977,-0.6218987419571638,0.2251155954307453,68.96599530340953,0.0
978,-0.6223935963195389,0.22604468150267734,68.96551724137932,1.0
979,-0.6279575070795788,0.22182329609145982,68.96900528089182,0.0
980,-0.6378010084450626,0.21289451643896282,68.97935119710031,0.0
981,-0.6509673003522445,0.2000425682485658,68.99638059496424,0.0
982,-0.6664818687706537,0.18428059209240902,69.01992268288639,0.0
983,-0.6834236730457994,0.1667393898175602,69.04980994103545,0.0
984,-0.7009272013541119,0.14856890391577132,69.08587780258482,0.0
985,-0.7181522772299049,0.1308572394141234,69.12796434698932,0.0
986,-0.7342665450538418,0.11456670847157202,69.17591000449558,0.0
987,-0.7484719278827159,0.10048389390557941,69.22955727115172,0.0
988,-0.7600784702309926,0.08918105814687284,69.28875043364602,0.0
989,-0.7686010081409234,0.08098831852422327,69.35333530336604,0.0
990,-0.7738402197563976,0.07597838459611461,69.42315895912661,0.0
991,-0.7759163035505396,0.07396703500202965,69.4980694980695,0.0
992,-0.7752457715801176,0.07453226687437686,69.57791579428894,0.0
993,-0.7724760479299482,0.0770532666326377,69.66254726478584,0.0
994,-0.7684049295939005,0.08076760950090922,69.75181364240069,0.0
995,-0.7639069150632418,0.0848421333851615,69.84556475541865,0.0
996,-0.759871643266898,0.08845038418719763,69.94365031358441,0.0
997,-0.7571439382098096,0.09084785096254558,70.04591970030421,0.0
998,-0.7564513701574799,0.09143574839991256,70.1522217708531,0.0
999,-0.7583164740584726,0.08980516622684474,70.2624046564434,0.0
1000,-0.7629700626282607,0.08575618765330371,70.37631557404764,0.0
1001,-0.7702978820947197,0.0792909543470984,70.49380064190608,0.0
1002,-0.7798549113916438,0.07058492295664626,70.61470470068299,0.0
1003,-0.7909652504417471,0.05994536420345003,70.73887114027211,0.0
1004,-0.8028939611914389,0.04776874884636856,70.86614173228347,0.0
1005,-0.8150418263911589,0.034507507473460555,70.99635646827865,0.0
1006,-0.8270916730539263,0.020651206053618622,71.12935340385233,0.0
1007,-0.8390409644083302,0.0067185349956304236,71.26496850869053,0.0
1008,-0.8510944442842978,-0.006752528031936891,71.40303552276643,0.0
1009,-0.863451333337295,-0.019234591880558365,71.54338581886567,0.0
1010,-0.8760790839051976,-0.03027750213273437,71.68584827166156,0.0
1011,-0.8885918167321024,-0.03961830827293657,71.83024913359053,0.0
1012,-0.900327842718459,-0.047323580355190555,71.97641191780572,0.0
1013,-0.910648536541638,-0.053933043724700036,72.12415728851396,0.0
1014,-0.919383897483864,-0.06055788371453713,72.27330295902759,0.0
1015,-0.9272667287372317,-0.06888295466879871,72.42366359788807,0.0
1016,-0.9361653084443681,-0.08103397090492899,72.57505074344189,0.0
1017,-0.9489642816837395,-0.0992983239633282,72.72727272727273,0.0
1018,-0.9690479693178519,-0.1257258280931102,72.88013460691427,0.0
1019,-0.999475140504104,-0.16167356919310885,73.03343810828879,0.0
1020,-1.0420512543351539,-0.20738577868491798,73.18698157833373,0.0
1021,-1.0965602244490957,-0.2617060108908905,73.34055994829477,0.0
1022,-1.1603918215074078,-0.3220008248990487,73.49396470817807,0.0
1023,-1.228700396609303,-0.3843344610388642,73.64698389286492,0.0
1024,-1.2950870443324058,-0.443881825038218,73.79940208040189,0.0
1025,-1.3526541305890698,-0.4955154885251161,73.9510004029849,0.0
1026,-1.3951805802517787,-0.534464555417584,74.10155657115875,0.0
1027,-1.4181378366299364,-0.5569286298732421,74.25084491175366,0.0
1028,-1.4193181028650226,-0.5605418979737629,74.39863642007592,0.0
1029,-1.398961975119617,-0.5446165575224785,74.54469882686256,0.0
1030,-1.3594146961940807,-0.5101418653887928,74.68879668049793,0.0
1031,-1.3044623781481663,-0.45956263569475386,74.83069144497448,0.0
1032,-1.2385623312550817,-0.39639783196328304,74.97014161405905,0.0
1033,-1.1661689015169765,-0.32477875134393236,75.10690284210096,0.0
1034,-1.09128164101484,-0.2489856489087649,75.2407280918886,0.0
1035,-1.0172424316165998,-0.17304527812584164,75.37136779992453,0.0
1036,-0.9467231766292076,-0.10042694263463972,75.4985700594504,0.0
1037,-0.8818033812323723,-0.033849226387349565,75.62208082150524,0.0
1038,-0.8240431711307503,0.024810166497956032,75.74164411425025,0.0
1039,-0.7744988262932226,0.0745200412849891,75.85700228073574,0.0
1040,-0.7336813285248525,0.11503802231518359,75.96789623522271,0.0
1041,-0.7015001120174188,0.14680777611888987,76.07406573810368,0.0
1042,-0.6772487607502727,0.17082444480983638,76.17524968939314,0.0
1043,-0.6596745873018736,0.18847774121497687,76.27118644067797,0.0
1044,-0.6471402835866097,0.20138093660204495,76.36161412533454,0.0
1045,-0.6378503168713077,0.21119524224908412,76.44627100672814,0.0
1046,-0.6300930072400083,0.2194615353455566,76.52489584401661,0.0
1047,-0.6224485120968956,0.22745331212986125,76.59722827508062,0.0
1048,-0.6139300333165085,0.23606481386291456,76.66300921600025,0.0
1049,-0.6040496735858987,0.24574585996673415,76.72198127639099,0.0
1050,-0.5928193006922222,0.2564902132192357,76.77388918980309,0.0
1051,-0.5807031336642797,0.2678780255374918,76.81848025827607,0.0
1052,-0.568533435225402,0.2791660655300222,76.85550481002818,0.0
1053,-0.5573918687516697,0.2894130599413164,76.8847166691455,0.0
1054,-0.5484567696561485,0.2976225936551431,76.90587363602243,0.0
1055,-0.542825567626419,0.30288350648894935,76.91873797719241,0.0
1056,-0.5413376586891364,0.30448828045494836,76.92307692307692,1.0
1057,-0.544435560517399,0.30201378292974723,76.91956644180041,0.0
1058,-0.5521012893156749,0.295355515953973,76.90913420756557,0.0
1059,-0.5638877074306891,0.28471504834583117,76.89193171767309,0.0
1060,-0.5790368549119642,0.2705487787147266,76.86811383311634,0.0
1061,-0.5966500459908123,0.25349259640105876,76.83783851314402,0.0
1062,-0.6158586615994601,0.23427977205253192,76.80126655217012,0.0
1063,-0.6359462091349288,0.21366786761815698,76.75856131969263,0.0
1064,-0.6563907323276239,0.192385188979351,76.70988850384606,0.0
1065,-0.6768255334852898,0.1711000063405319,76.65541585917553,0.0
1066,-0.696945553687342,0.15040872280297657,76.59531295917985,0.0
1067,-0.7164063283350341,0.13083450810358266,76.52975095413356,0.0
1068,-0.734764380030439,0.11282688825731475,76.45890233465646,0.0
1069,-0.7514900945225919,0.09675536102541216,76.3829407014598,0.0
1070,-0.7660524655065117,0.08289501967846043,76.30204054165871,0.0
1071,-0.7780426746380616,0.07140740379666323,76.2163770120002,0.0
1072,-0.7872851574598065,0.0623233776983737,76.12612572931737,0.0
1073,-0.7938895772943658,0.05553555025375667,76.0314625684821,0.0
1074,-0.7982228521942769,0.0508055465605568,75.93256346809103,0.0
1075,-0.8008145749236527,0.047787359754803894,75.82960424408277,0.0
1076,-0.8022355297279616,0.0460636645333491,75.7227604114498,0.0
1077,-0.8029958014246719,0.04518885993540063,75.61220701417363,0.0
1078,-0.8034945122449042,0.04473153929490147,75.49811846348003,0.0
1079,-0.8040259210693332,0.04430998007509475,75.38066838447926,0.0
1080,-0.8048202748108846,0.043616343347709086,75.26002947122778,0.0
1081,-0.806084955305205,0.042427609396200994,75.13637335021846,0.0
1082,-0.8080176954593837,0.04060318247181874,75.00987045228197,0.0
1083,-0.8107848543005597,0.038070455178163806,74.88068989285586,0.0
1084,-0.8144818613520591,0.034800774871050995,74.74899936055589,0.0
1085,-0.8191060314616184,0.03077964550454148,74.61496501396317,0.0
1086,-0.8245662552766471,0.025976754885968997,74.47875138652081,0.0
1087,-0.8307330286012601,0.020323110881009687,74.34052129941631,0.0
1088,-0.8375085513485415,0.013703303743216572,74.20043578231045,0.0
1089,-0.8448839446959763,0.005969697280108627,74.05865400175823,0.0
1090,-0.8529553198663398,-0.0030184005980225526,73.91533319715568,0.0
1091,-0.8618884133508252,-0.0133336417437174,73.77062862403423,0.0
1092,-0.8718421646769706,-0.024908059562549982,73.62469350451596,0.0
1093,-0.8828748986906223,-0.03746637008129101,73.47767898473336,0.0
1094,-0.8948588179444043,-0.05048691226712236,73.32973409901214,0.0
1095,-0.9074228357157571,-0.06321200906295034,73.18100574060878,0.0
1096,-0.9199377839105293,-0.07472396351381684,73.03163863879146,0.0
1097,-0.9315569458476626,-0.0840915689850737,72.88177534204945,0.0
1098,-0.9413271138788,-0.09057604667221758,72.73155620721452,0.0
1099,-0.9483828594402774,-0.09386730881400386,72.58111939427724,0.0
1100,-0.9522204896998699,-0.09430525666327678,72.4306008666813,0.0
1101,-0.9530159473350965,-0.09303106647999851,72.28013439688037,0.0
1102,-0.9519111176387479,-0.0920144191729876,72.12985157694372,0.0
1103,-0.9511627336376905,-0.09391708965552506,71.97988183400054,0.0
1104,-0.9540462143329439,-0.10178099319488385,71.8303524503158,0.0
1105,-0.9644458674341427,-0.11856572536232017,71.68138858779531,0.0
1106,-0.9861422474047156,-0.14659934257854026,71.53311331672262,0.0
1107,-1.0219093493495977,-0.18703701047053478,71.38564764853581,0.0
1108,-1.072625772669571,-0.23943591404270687,71.23911057245834,0.0
1109,-1.1366467191312504,-0.30154534286029805,71.09361909580511,0.0
1110,-1.2096504225260911,-0.36937747301013596,70.94928828779098,0.0
1111,-1.28506241428133,-0.4375727977956941,70.80623132667753,0.0
1112,-1.3550045386252472,-0.5000155522390797,70.66455955010032,0.0
1113,-1.4115653707185898,-0.5506026080312734,70.52438250842793,0.0
1114,-1.4480977886515345,-0.5840368150063908,70.38580802101173,0.0
1115,-1.4602487802307234,-0.5965105275487952,70.24894223519384,0.0
1116,-1.4465120741409434,-0.5861680209406088,70.11388968794986,0.0
1117,-1.4082308548755504,-0.5532805242695069,69.98075337005118,0.0
1118,-1.349117321584504,-0.500123369693872,69.84963479264114,0.0
1119,-1.2744572061330646,-0.43059813477108333,69.72063405612856,0.0
1120,-1.190209531617946,-0.34968222655012404,69.59384992131073,0.0
1121,-1.1021946310291753,-0.2628072216878019,69.46937988264827,0.0
1122,-1.015501474611709,-0.1752642708910893,69.34732024362286,0.0
1123,-0.9341621997188502,-0.09171408774173043,69.22776619411925,0.0
1124,-0.8610643202211703,-0.015847980569080017,69.1108118897817,0.0
1125,-0.7980224485158165,0.049786491902522934,68.99655053330541,0.0
1126,-0.7459220013141414,0.10380925345070915,68.88507445763305,0.0
1127,-0.7048708046265549,0.14591289927204623,68.77647521103651,0.0
1128,-0.6743317940970943,0.1766889182254461,68.67084364407366,0.0
1129,-0.6532409073543426,0.19741314093938286,68.56826999842049,0.0
1130,-0.6401274211182901,0.2098214711414373,68.46884399758893,0.0
1131,-0.6332497217260412,0.21589747072247376,68.37265493955103,0.0
1132,-0.6307459444693461,0.2176842681706202,68.27979179130075,0.0
1133,-0.6307860365413243,0.21712620287037768,68.19034328539543,0.0
1134,-0.6317067500663138,0.21594120829269053,68.10439801852957,0.0
1135,-0.6321157133765589,0.2155230067444869,68.02204455220505,0.0
1136,-0.6309613589712062,0.21687212570979858,67.94337151557309,0.0
1137,-0.6275751616964501,0.22055574367994368,67.86846771053493,0.0
1138,-0.6216953671224703,0.22669757106649988,67.79742221920037,0.0
1139,-0.6134758433999691,0.23499955010419268,67.7303245138155,0.0
1140,-0.6034740059350165,0.24479645644374354,67.66726456928397,0.0
1141,-0.5926048682658556,0.2551421657584037,67.60833297841924,0.0
1142,-0.5820495722012394,0.2649225536480018,67.55362107007905,0.0
1143,-0.5731170157490888,0.2729854172106171,67.50322103034802,0.0
1144,-0.5670723977537881,0.2782735800605568,67.45722602694886,0.0
1145,-0.5649601856058158,0.2799447755152125,67.41573033707866,1.0
1146,-0.5674554504573165,0.2774620819577108,67.37658701337612,0.0
1147,-0.5747739906173444,0.270642107819547,67.3375901763991,0.0
1148,-0.5866592958036105,0.25965447782597156,67.29874659253127,0.0
1149,-0.6024473252819214,0.24497433924070833,67.260062997372,0.0
1150,-0.6211934698304353,0.2272979048718124,67.22154609610399,0.0
1151,-0.641834162554835,0.2074376374416031,67.18320256387324,0.0
1152,-0.6633505035066751,0.18621701311641614,67.14503904618111,0.0
1153,-0.6849028717995322,0.1643840204498455,67.10706215928852,0.0
1154,-0.7059122709178671,0.14255770738294896,67.06927849063179,0.0
1155,-0.7260743624853946,0.12121417051063577,67.03169459925046,0.0
1156,-0.7453048982223002,0.10070912164958691,66.99431701622646,0.0
1157,-0.7636301745608524,0.0813256836569966,66.95715224513503,0.0
1158,-0.7810515067653226,0.06333038278402575,66.92020676250667,0.0
1159,-0.7974238954612188,0.04701884841109234,66.88348701830049,0.0
1160,-0.8123895112138595,0.03273593948031754,66.8469994363887,0.0
1161,-0.8253923229985914,0.02086215498745378,66.81075041505197,0.0
1162,-0.8357741596869748,0.011767476912185673,66.77474632748566,0.0
1163,-0.8429248851518379,0.005742861298156737,66.73899352231693,0.0
1164,-0.8464419739581609,0.0029261003027713645,66.70349832413255,0.0
1165,-0.8462540360986395,0.003241070226171608,66.66826703401709,0.0
1166,-0.8426769357842407,0.0063669208230343055,66.63330593010171,0.0
1167,-0.8363925068023531,0.011747229347963462,66.59862126812351,0.0
1168,-0.8283599606283953,0.01864019250301048,66.56421928199492,0.0
1169,-0.8196830711572397,0.026201713959700404,66.5301061843835,0.0
1170,-0.8114603992049253,0.0335858764238679,66.49628816730191,0.0
1171,-0.8046433464788535,0.04004337852171813,66.46277140270787,0.0
1172,-0.799921902417885,0.044998893116730915,66.42956204311433,0.0
1173,-0.7976538827309285,0.04809289356342185,66.39666622220943,0.0
1174,-0.7978502769161864,0.04918137173190966,66.36409005548657,0.0
1175,-0.8002238812149597,0.04829641261353343,66.33183964088424,0.0
1176,-0.8042974114090118,0.04557973271392172,66.29992105943566,0.0
1177,-0.8095511405126555,0.041207895519309104,66.26834037592845,0.0
1178,-0.8155742254205757,0.035330222828157135,66.23710363957372,0.0
1179,-0.8221762483001552,0.028037499405139464,66.20621688468518,0.0
1180,-0.829421832554467,0.019371685871367297,66.17568613136788,0.0
1181,-0.8375714846105357,0.009375570016550108,66.14551738621662,0.0
1182,-0.846940254561092,-0.0018307910137940059,66.11571664302409,0.0
1183,-0.8577133770656685,-0.013969772129357134,66.08628988349861,0.0
1184,-0.8697756092110003,-0.026549673798960532,66.05724307799181,0.0
1185,-0.8826119688863682,-0.03885757901175736,66.02858218623561,0.0
1186,-0.8953204471801182,-0.05001814283788043,66.00031315808931,0.0
1187,-0.9067469082211316,-0.05912052446797626,65.97244193429606,0.0
1188,-0.9157188440841911,-0.065398902350588,65.94497444724931,0.0
1189,-0.9213287792884165,-0.06843649328568087,65.91791662176897,0.0
1190,-0.9232066686086928,-0.06835228079089334,65.89127437588725,0.0
1191,-0.9217240654134575,-0.06592644295268497,65.86505362164458,0.0
1192,-0.9180867784296505,-0.06262606359812847,65.83926026589523,0.0
1193,-0.9142911171492158,-0.06050679505422919,65.813900211123,0.0
1194,-0.9129367139748348,-0.06198680629439196,65.78897935626682,0.0
1195,-0.9169045156627293,-0.06951334427371476,65.76450359755654,0.0
1196,-0.9289241007359823,-0.0851653799269587,65.74047882935884,0.0
1197,-0.9510745066932211,-0.11025357396120163,65.71691094503318,0.0
1198,-0.9842889078126684,-0.14498704261798676,65.69380583779841,0.0
1199,-1.0279592437465328,-0.18827225802001438,65.6711694016095,0.0
1200,-1.0797473745199497,-0.23769214763848207,65.64900753204489,0.0
1201,-1.1356888172277437,-0.28968507672232036,65.62732612720443,0.0
1202,-1.1906183525487342,-0.33990870870834555,65.60613108861803,0.0
1203,-1.238866070160261,-0.3837395926623153,65.5854283221652,0.0
1204,-1.2750946944035946,-0.4168331363521836,65.56522373900548,0.0
1205,-1.2951038141255713,-0.4356564726440525,65.54552325652004,0.0
1206,-1.2964316738403496,-0.43791164665791915,65.52633279926455,0.0
1207,-1.2786382330870978,-0.42278755000463253,65.50765829993333,0.0
1208,-1.24323452319687,-0.3910112456004369,65.48950570033513,0.0
1209,-1.1933063165806435,-0.3447053020808567,65.47188095238069,0.0
1210,-1.1329425506606325,-0.2870894374092967,65.45479001908201,0.0
1211,-1.066608326705511,-0.22208563858121483,65.43823887556387,0.0
1212,-0.9985951497556103,-0.15389261584024397,65.4222335100875,0.0
1213,-0.9326410870945111,-0.08658842107558386,65.40677992508671,0.0
1214,-0.8717520137443727,-0.023803137783061992,65.39188413821681,0.0
1215,-0.8181911801225632,0.03151744467916753,65.37755218341613,0.0
1216,-0.7735600258244232,0.07725536675922673,65.36379011198095,0.0
1217,-0.7388838312210954,0.11218230416461458,65.35060399365352,0.0
1218,-0.7146420705213067,0.13595567304984685,65.33799991772378,0.0
1219,-0.7007309304434164,0.14906331243847348,65.32598399414482,0.0
1220,-0.6963927913794457,0.15272573635579154,65.3145623546625,0.0
1221,-0.7001753901921348,0.14875993922532824,65.30374115395924,0.0
1222,-0.7099820384548533,0.1394069801477257,65.29352657081272,0.0
1223,-0.7232455389734559,0.12712821140652314,65.28392480926921,0.0
1224,-0.7372145929216782,0.11438114188326126,65.27494209983227,0.0
1225,-0.7493003490307305,0.10339310386502702,65.26658470066688,0.0
1226,-0.7574083522589847,0.0959561998917345,65.25885889881951,0.0
1227,-0.7601849274257139,0.09326813505562474,65.2517710114543,0.0
1228,-0.7571332652280248,0.09583955892569113,65.24532738710562,0.0
1229,-0.7485912180757125,0.10348009926122886,65.23953440694783,0.0
1230,-0.7355959081920915,0.11536423879191632,65.23439848608189,0.0
1231,-0.7196790678687991,0.13016695952173246,65.22992607483984,0.0
1232,-0.7026379888007881,0.1462498304296142,65.22612366010716,0.0
1233,-0.6863143472522765,0.16187238534734205,65.22299776666351,0.0
1234,-0.6723968235601399,0.17540177082611424,65.22055495854232,0.0
1235,-0.6622532841747009,0.1854955221168566,65.21880184040961,0.0
1236,-0.6567983979031086,0.19123725926776908,65.21774505896252,0.0
1237,-0.6564088681925501,0.1922121833720834,65.21739130434783,1.0
1238,-0.6609023884961412,0.18851752060024735,65.22134579151623,0.0
1239,-0.669591289274095,0.1807114909062077,65.23307915082839,0.0
1240,-0.681407203625435,0.16971191965860633,65.25240019229066,0.0
1241,-0.6950745566678761,0.15666126671785374,65.27912264859161,0.0
1242,-0.7092966618559285,0.142777852099222,65.31306473902414,0.0
1243,-0.7229157486251789,0.12921308185772118,65.35404875139729,0.0
1244,-0.7350196088156975,0.11693175464596121,65.4019006405469,0.0
1245,-0.7449883614920336,0.1066277986512465,65.4564496421714,0.0
1246,-0.7524953568575893,0.09868206206152887,65.51752790082693,0.0
1247,-0.7574861270784496,0.09316301742514149,65.58497011101622,0.0
1248,-0.7601537492201612,0.08986609148195178,65.65861317039966,0.0
1249,-0.7609124008093949,0.08838307692903095,65.73829584424406,0.0
1250,-0.7603549500184509,0.0881897889796789,65.8238584403071,0.0
1251,-0.7591771224336089,0.08873792407138531,65.91514249343251,0.0
1252,-0.7580644874746162,0.08953634042861695,66.0119904592045,0.0
1253,-0.7575624617188211,0.09020830146158328,66.11424541607897,0.0
1254,-0.7579694985252242,0.09051509873375875,66.22175077547567,0.0
1255,-0.759296413549744,0.09034286650495031,66.33434999937812,0.0
1256,-0.7613161041759794,0.089657426997818,66.45188632504974,0.0
1257,-0.7636948689077292,0.08843993273623396,66.57420249653259,0.0
1258,-0.7661636382075381,0.08662173545790486,66.70114050265215,0.0
1259,-0.7686692077163493,0.08403840643645152,66.83254132130719,0.0
1260,-0.7714500460049625,0.08041922249315706,66.96824466987708,0.0
1261,-0.7750070095510598,0.07542016958688426,67.10808876163206,0.0
1262,-0.779976304601776,0.06869741204173024,67.2519100680838,0.0
1263,-0.7869456490773316,0.06000690447291322,67.39954308726415,0.0
1264,-0.7962716864546745,0.04930716213011646,67.55082011797117,0.0
1265,-0.8079516560391966,0.036838286274400944,67.70557104007041,0.0
1266,-0.8215796513551032,0.02315217267853692,67.86362310098937,0.0
1267,-0.8363896562327242,0.009076198937550004,68.02480070859167,0.0
1268,-0.8513670722073508,-0.004395623324683143,68.18892523066592,0.0
1269,-0.8654045899371174,-0.01627587850953146,68.35581480131242,0.0
1270,-0.8774843684963447,-0.02579872638120259,68.52528413455867,0.0
1271,-0.8868768535089043,-0.03264150804138175,68.69714434558098,0.0
1272,-0.8933470183165815,-0.03710971281613791,68.8712027799574,0.0
1273,-0.8973469534024971,-0.04024049509266326,69.04726285142179,0.0
1274,-0.9001533729194278,-0.04378675588092326,69.2251238886348,0.0
1275,-0.9038903091924204,-0.0500596835488646,69.40458099153119,0.0
1276,-0.9113745062277562,-0.06163148533757015,69.58542489784624,0.0
1277,-0.9257449155961744,-0.08092850638484352,69.76744186046511,0.0
1278,-0.9498907365708389,-0.10977258814254642,69.9504135362794,0.0
1279,-0.9857635650034436,-0.1489487263793498,70.13411688727255,0.0
1280,-1.0337242224948135,-0.19788363575797396,70.31832409459206,0.0
1281,-1.0921045641169362,-0.25450885279205054,70.50280248639883,0.0
1282,-1.1571382759094921,-0.3153536118349563,70.68731448031477,0.0
1283,-1.2233318610857227,-0.3758716005367035,70.87161754131594,0.0
1284,-1.2842306866496036,-0.43096038617026855,71.05546415594158,0.0
1285,-1.3334238204003535,-0.47559316276655145,71.23860182370821,0.0
1286,-1.3655640278995846,-0.505458898004929,71.4207730666313,0.0
1287,-1.377177986491286,-0.5175047393949181,71.60171545776618,0.0
1288,-1.3671039486270224,-0.5102941779786034,71.78116166968216,0.0
1289,-1.3364955744450209,-0.4841310707656517,71.95883954378095,0.0
1290,-1.2884376005685165,-0.4409443238268912,72.13447218135958,0.0
1291,-1.2273010405430573,-0.38397049100584435,72.3077780573009,0.0
1292,-1.1580042830943011,-0.31730268648219595,72.47847115724902,0.0
1293,-1.0853381118173286,-0.24538847319513457,72.64626113909337,0.0
1294,-1.0134672236874012,-0.1725557699701115,72.81085351954204,0.0
1295,-0.9456571028608834,-0.1026276307945654,72.9719498865134,0.0
1296,-0.8842134454894373,-0.03866025830625716,73.12924813801318,0.0
1297,-0.8305765615956863,0.01718892498640484,73.2824427480916,0.0
1298,-0.7854919816619222,0.06367863922794471,73.43122506039431,0.0
1299,-0.7491813032290163,0.10041528520708454,73.57528360972604,0.0
1300,-0.7214606968693453,0.12773077570241173,73.71430447194355,0.0
1301,-0.7017909505508074,0.14653420567253733,73.8479716423789,0.0
1302,-0.6892801784367923,0.15815603774855275,73.9759674428685,0.0
1303,-0.68268426221592,0.16419433539044123,74.09797295732729,0.0
1304,-0.6804515496573237,0.1663662754034801,74.21366849565995,0.0
1305,-0.6808383277946813,0.16636611567673704,74.32273408564456,0.0
1306,-0.6820905085052394,0.16573251422484475,74.42484999225711,0.0
1307,-0.6826584237414934,0.16573173141224373,74.51969726372987,0.0
1308,-0.6813959413537664,0.16726642104351003,74.60695830345331,0.0
1309,-0.6776962843055601,0.17082046251055308,74.6863174666401,0.0
1310,-0.6715331075264923,0.17644771868835957,74.75746168047377,0.0
1311,-0.6634005864254086,0.18380712853822126,74.82008108626289,0.0
1312,-0.6541722562731596,0.19223960439514182,74.87386970191817,0.0
1313,-0.6449168454974328,0.2008757077746635,74.91852610286314,0.0
1314,-0.6367148325703273,0.20875872217625857,74.9537541192846,0.0
1315,-0.630511238127096,0.21496649341562152,74.97926354742516,0.0
1316,-0.6270225859277913,0.21871728541375576,74.99477087242158,0.0
1317,-0.6266965599202433,0.2194490936037041,75.0,1.0
1318,-0.6297093459499001,0.21686710470109172,74.99773611673588,0.0
1319,-0.6359825672978061,0.2109590193775459,74.9910160183685,0.0
1320,-0.6452082486867018,0.20198184141859754,74.97994816622581,0.0
1321,-0.656880332172141,0.19042606768362805,74.96464243285206,0.0
1322,-0.6703373402818205,0.17696403372658834,74.9452099773613,0.0
1323,-0.6848188206372167,0.1623888231910594,74.92176312295416,0.0
1324,-0.6995304688866385,0.14754909889006987,74.8944152367986,0.0
1325,-0.7137059315684213,0.1332839293791806,74.86328061246267,0.0
1326,-0.7266533180139199,0.12036058935171004,74.82847435507298,0.0
1327,-0.737782720409867,0.10941774059511096,74.79011226935866,0.0
1328,-0.7466229877845827,0.10091652544446619,74.74831075072818,0.0
1329,-0.7528434914196995,0.09510283262913241,74.70318667951176,0.0
1330,-0.7562928645760028,0.09198489956356432,74.65485731848963,0.0
1331,-0.7570514666171622,0.09133079938838906,74.60344021381309,0.0
1332,-0.7554757292622042,0.09268949278749591,74.54905309941265,0.0
1333,-0.7522029205842509,0.09543657841795188,74.49181380497542,0.0
1334,-0.7480926769288768,0.09884183539601035,74.43184016756143,0.0
1335,-0.744105231075753,0.1021509960303969,74.3692499469172,0.0
1336,-0.7411441056147022,0.10467027137915338,74.30416074453379,0.0
1337,-0.7399085898132537,0.10584033564171588,74.2366899264857,0.0
1338,-0.7407994690125055,0.10528759495167889,74.16695455007631,0.0
1339,-0.7439013333650294,0.1028445873615972,74.09507129430673,0.0
1340,-0.7490364137776262,0.09853736377183725,74.02115639417435,0.0
1341,-0.7558616024066408,0.09254419971495118,73.94532557879987,0.0
1342,-0.7639719774665831,0.08513543891779428,73.86769401337244,0.0
1343,-0.7729824305883752,0.07660752560173206,73.7883762448952,0.0
1344,-0.782576789173786,0.0672248422820299,73.70748615170632,0.0
1345,-0.7925296998875095,0.05718095170112878,73.62513689674374,0.0
1346,-0.8027120500693334,0.04658677467455938,73.54144088451619,0.0
1347,-0.8130857037344614,0.035487823704704644,73.45650972173675,0.0
1348,-0.8236850853905899,0.02390659803005106,73.37045418157082,0.0
1349,-0.8345800301315379,0.011900408308641558,73.28338417144528,0.0
1350,-0.8458194766586286,-0.00037988668363689304,73.19540870436201,0.0
1351,-0.8573656597649965,-0.012647502127021606,73.10663587365465,0.0
1352,-0.8690374308438799,-0.024470731348652894,73.01717283112554,0.0
1353,-0.8804849360309189,-0.03531040234556123,72.92712576849556,0.0
1354,-0.8912149409949417,-0.04460906366007826,72.83659990209912,0.0
1355,-0.9006772796353791,-0.05192623578129177,72.74569946075327,0.0
1356,-0.9084097055509153,-0.057101595319885755,72.65452767672951,0.0
1357,-0.914223239959024,-0.06041638493749271,72.5631867797559,0.0
1358,-0.9183959975455575,-0.06271552142333893,72.4717779939755,0.0
1359,-0.9218328612894798,-0.06545152891439068,72.38040153778881,0.0
1360,-0.9261424859653222,-0.0706184463014165,72.28915662650603,0.0
1361,-0.9335835927202352,-0.08055963667942923,72.19814147773708,0.0
1362,-0.946843542053599,-0.09765636568093894,72.10745331944719,0.0
1363,-0.9686391721780236,-0.12393042582319602,72.01718840060737,0.0
1364,-1.0011740845851318,-0.16061860741744727,71.92744200437045,0.0
1365,-1.045539460665084,-0.20779342438991602,71.83830846370512,0.0
1366,-1.1011890755283082,-0.2641079394322903,71.74988117942208,0.0
1367,-1.1656330941826207,-0.32672986768419177,71.66225264052902,0.0
1368,-1.234466835949908,-0.39150196288769373,71.57551444685325,0.0
1369,-1.3017819951584833,-0.45332649588576196,71.48975733387363,0.0
1370,-1.3609162652167088,-0.5067291213601604,71.40507119970614,0.0
1371,-1.4054101554947194,-0.5465208111459989,71.32154513419081,0.0
1372,-1.4299838870864894,-0.5684542738683089,71.2392674500305,0.0
1373,-1.4313388680981154,-0.5697688768202287,71.15832571593592,0.0
1374,-1.4086279572843434,-0.5495365624481365,71.07880679173448,0.0
1375,-1.3635135163024397,-0.5087568163066993,71.00079686540477,0.0
1376,-1.2998216711082546,-0.45019369679232796,70.92438149200164,0.0
1377,-1.2228833188238764,-0.37799258119767554,70.84964563444207,0.0
1378,-1.1387086553413364,-0.29714929565020143,70.77667370612492,0.0
1379,-1.0531615259115792,-0.21292294173771148,70.70554961536305,0.0
1380,-0.9712820848027373,-0.13028334294763172,70.63635681161048,0.0
1381,-0.8968590595729717,-0.0534664264230785,70.5691783334714,0.0
1382,-0.832288616456867,0.014318379820919519,70.50409685848399,0.0
1383,-0.7786891179778569,0.07101776401198759,70.44119475467507,0.0
1384,-0.7361849308903785,0.11571933106202778,70.38055413388862,0.0
1385,-0.7042430420635692,0.14852897431341075,70.32225690689505,0.0
1386,-0.681953633580172,0.17038483578726696,70.26638484029431,0.0
1387,-0.6681880588722912,0.18284693502143085,70.2130196152312,0.0
1388,-0.6616289897429734,0.1878891000471637,70.16224288794723,0.0
1389,-0.6607240630050284,0.18770545396659075,70.1141363521989,0.0
1390,-0.6636449042506307,0.18453261213863337,70.0687818035791,0.0
1391,-0.668327889545111,0.18048414866542625,70.02626120578422,0.0
1392,-0.6726355490112286,0.1773961578002583,69.98665675887612,0.0
1393,-0.6746238542122702,0.17668952460798118,69.95005096959538,0.0
1394,-0.6728516677746605,0.17926185995019972,69.91652672378896,0.0
1395,-0.6666424814267506,0.18542592653751014,69.88616736102301,0.0
1396,-0.6562142083204947,0.19490922232346644,69.85905675145911,0.0
1397,-0.6426278538258149,0.20692100987237583,69.83527937508052,0.0
1398,-0.6275585145551726,0.2202807128695307,69.81492040336299,0.0
1399,-0.6129451651705194,0.23358905284373915,69.79806578349404,0.0
1400,-0.6006116133661514,0.24541458398621036,69.7848023252531,0.0
1401,-0.5919574727106232,0.2544661930689642,69.77521779067523,0.0
1402,-0.5877923727517861,0.25972726267637347,69.76940098663091,0.0
1403,-0.5883376316467733,0.26053777402833034,69.76744186046511,1.0
1404,-0.5933646360180023,0.2566231680520128,69.76777607102838,0.0
1405,-0.6023978243442694,0.2480793614320447,69.76876815365455,0.0
1406,-0.6148969493316379,0.23532894676790755,69.77040231131605,0.0
1407,-0.6303522271743304,0.21906327479236637,69.77266278006252,0.0
1408,-0.648269153600881,0.20018003834949327,69.77553382615056,0.0
1409,-0.6680701503244426,0.17971903837580125,69.77899974324887,0.0
1410,-0.6889779706419631,0.1587933870923542,69.78304484971774,0.0
1411,-0.7099560176322627,0.13851201538965452,69.78765348596218,0.0
1412,-0.729759379568176,0.11989267511878605,69.79281001185838,0.0
1413,-0.7471058173088035,0.10377122541530254,69.7984988042526,0.0
1414,-0.7609253175448885,0.09071988245852058,69.80470425453207,0.0
1415,-0.77060943917492,0.08099095153895876,69.81141076626756,0.0
1416,-0.776172084303696,0.07450100052436849,69.81860275292681,0.0
1417,-0.7782565714794061,0.07086312317449409,69.82626463565897,0.0
1418,-0.7779736018748905,0.06946378025452078,69.83438084114917,0.0
1419,-0.7766142470070531,0.06956923803520598,69.8429357995432,0.0
1420,-0.7753292248643132,0.07043875929062113,69.85191394244202,0.0
1421,-0.7748806733664432,0.07142026157794697,69.86129970096576,0.0
1422,-0.7755469280474415,0.07200978108380923,69.87107750388712,0.0
1423,-0.7772027733625368,0.0718669469434716,69.88123177583385,0.0
1424,-0.7795303537780299,0.07079115849674307,69.89174693556058,0.0
1425,-0.782267618051473,0.06867319388118626,69.90260739428918,0.0
1426,-0.7853921608984514,0.06544154848013678,69.91379755411852,0.0
1427,-0.7891715020803493,0.061021011021692655,69.92530180650279,0.0
1428,-0.7940705580966098,0.05531425069302766,69.93710453079885,0.0
1429,-0.8005667718755787,0.04820851124133328,69.9491900928825,0.0
1430,-0.8089577671384321,0.03960215589312295,69.96154284383367,0.0
1431,-0.8192423960190579,0.029441984514905727,69.9741471186907,0.0
1432,-0.8311179776546876,0.017762306876784234,69.98698723527383,0.0
1433,-0.8440833315562526,0.004719277879037503,70.00004749307789,0.0
1434,-0.857592922645633,-0.009383366562343967,70.01331217223448,0.0
1435,-0.8711898873535248,-0.024080318687967048,70.02676553254379,0.0
1436,-0.8845597092202195,-0.03874743151067618,70.04039181257616,0.0
1437,-0.8974841025475357,-0.05262933340516206,70.05417522884365,0.0
1438,-0.9097212723510136,-0.06490199112882131,70.06809997504189,0.0
1439,-0.9208775959402944,-0.07477801062735785,70.0821502213624,0.0
1440,-0.9303525072037198,-0.08165421633583075,70.09631011387552,0.0
1441,-0.9374237139750166,-0.08528732850928028,70.11056377398442,0.0
1442,-0.9414935195934551,-0.08596755026791988,70.12489529795045,0.0
1443,-0.9424506204013859,-0.08464683361582465,70.13928875648976,0.0
1444,-0.9410378366690828,-0.08297427687361515,70.1537281944421,0.0
1445,-0.9390810648331783,-0.0831997309689267,70.16819763051151,0.0
1446,-0.9394476196550196,-0.08792907284646168,70.18268105707965,0.0
1447,-0.9456663948345834,-0.099747198624333,70.19716244009166,0.0
1448,-0.9612423152537835,-0.12076012139903329,70.21162571901536,0.0
1449,-0.988803077713893,-0.1521360516339272,70.22605480687363,0.0
1450,-1.0292915626241799,-0.19373808515877186,70.2404335903507,0.0
1451,-1.0814331934032546,-0.24393275052466135,70.25474592997226,0.0
1452,-1.1416517254777077,-0.29962932140622517,70.26897566036007,0.0
1453,-1.2044913112262619,-0.35656052905989927,70.28310659056122,0.0
1454,-1.2634620833846528,-0.4097665957674903,70.29712250445216,0.0
1455,-1.3121078019689405,-0.4542033442664058,70.3110071612183,0.0
1456,-1.3450380979526568,-0.485371557384337,70.32474429590889,0.0
1457,-1.3586921401268968,-0.4998639711152926,70.33831762006783,0.0
1458,-1.351692610525641,-0.4957473052571217,70.35171082244057,0.0
1459,-1.32477278122202,-0.4727329927319716,70.36490756975736,0.0
1460,-1.2803719555935906,-0.43213184101478647,70.37789150759308,0.0
1461,-1.2220612119716752,-0.3766245771836393,70.39064626130391,0.0
1462,-1.15396711515346,-0.30990455400298567,70.40315543704095,0.0
1463,-1.080312968147064,-0.2362576808239644,70.41540262284117,0.0
1464,-1.0051210367029493,-0.16013932763123906,70.42737138979567,0.0
1465,-0.9320489478328756,-0.08579331961280766,70.4390452932954,0.0
1466,-0.8642961799998047,-0.016940268255098645,70.45040787435475,0.0
1467,-0.8045199973247057,0.0434533372768767,70.46144266101265,0.0
1468,-0.7547315566451225,0.09332452394915527,70.4721331698116,0.0
1469,-0.7161796742104846,0.1315859527568554,70.48246290735459,0.0
1470,-0.6892537887168592,0.15812585284113959,70.49241537193988,0.0
1471,-0.6734428959737632,0.1737401147112066,70.50197405527355,0.0
1472,-0.6673775517601663,0.18000095301381888,70.51112244426005,0.0
1473,-0.668964983128004,0.17906891427013602,70.51984402287026,0.0
1474,-0.6756094049006564,0.1734598570430398,70.52812227408735,0.0
1475,-0.6844948436614425,0.1657848674878337,70.53594068192993,0.0
1476,-0.6928979121691228,0.15848711074109667,70.54328273355254,0.0
1477,-0.6984930162379664,0.1536033641087983,70.55013192142316,0.0
1478,-0.6996113743181954,0.15257779055769322,70.55647174557735,0.0
1479,-0.6954174378620094,0.15615055908343234,70.56228571594902,0.0
1480,-0.6859729654051717,0.16433445408859132,70.56755735477691,0.0
1481,-0.6721723993062636,0.17648001741578725,70.57227019908706,0.0
1482,-0.6555542443217977,0.19141632436665296,70.57640780325019,0.0
1483,-0.6380188939276605,0.20764294788903265,70.57995374161388,0.0
1484,-0.6215066475053547,0.22354155926599456,70.58289161120872,0.0
1485,-0.6077017484342793,0.23757462357499382,70.58520503452817,0.0
1486,-0.5978228656240709,0.24844405311885057,70.586877662381,0.0
1487,-0.5925371470385216,0.25519318310510775,70.58789317681592,0.0
1488,-0.5920002859652747,0.25724841666850695,70.58823529411765,1.0
1489,-0.5959902365330442,0.25440909527908795,70.58823529411765,0.0
1490,-0.6040789118600014,0.2468025949323352,70.58823529411765,0.0
1491,-0.6157816808307175,0.23482446451842226,70.58823529411765,0.0
1492,-0.6306391865270906,0.21908041321237318,70.58823529411765,0.0
1493,-0.6482141417013532,0.2003396229735281,70.58823529411765,0.0
1494,-0.6680179404841992,0.1794999264498423,70.58823529411765,0.0
1495,-0.6894081564895793,0.15755791340290515,70.58823529411765,0.0
1496,-0.71151007722913,0.13557345431662152,70.58823529411765,0.0
1497,-0.7332090752282102,0.11461951961626146,70.58823529411765,0.0
1498,-0.7532371172812031,0.09571389140559912,70.58823529411765,0.0
1499,-0.7703431702933178,0.07973731773607164,70.58823529411765,0.0
1500,-0.783504892989853,0.06735001116799533,70.58823529411765,0.0
1501,-0.7921197574821662,0.05892252533422429,70.58823529411765,0.0
1502,-0.7961160270567926,0.054496432474846014,70.58823529411765,0.0
1503,-0.7959486108587517,0.0537849370778494,70.58823529411765,0.0
1504,-0.7924830757206047,0.056215186054718744,70.58823529411765,0.0
1505,-0.7868076681910993,0.06100509879953345,70.58823529411765,0.0
1506,-0.780033102598825,0.0672606108187169,70.58823529411765,0.0
1507,-0.7731360000169706,0.0740760682887756,70.58823529411765,0.0
1508,-0.7668780883122467,0.0806215921972744,70.58823529411765,0.0
1509,-0.7618014742605543,0.08620572332610595,70.58823529411765,0.0
1510,-0.7582739226172265,0.09030791084055831,70.58823529411765,0.0
1511,-0.7565463723849482,0.09258162605988325,70.58823529411765,0.0
1512,-0.7567903379862573,0.0928337499185279,70.58823529411765,0.0
1513,-0.7591013970127124,0.09098885193650809,70.58823529411765,0.0
1514,-0.7634780733244095,0.087048188367467,70.58823529411765,0.0
1515,-0.7698025197723071,0.0810531382210375,70.58823529411765,0.0
1516,-0.7778516716890268,0.0730616652278769,70.58823529411765,0.0
1517,-0.7873523172715838,0.0631441384325113,70.58823529411765,0.0
1518,-0.7980669947017907,0.051401055542842314,70.58823529411765,0.0
1519,-0.80987306968961,0.037999610092023635,70.58823529411765,0.0
1520,-0.8227889306862219,0.023219037309536436,70.58823529411765,0.0
1521,-0.8369165274258419,0.00748774988957613,70.58823529411765,0.0
1522,-0.8523050462139539,-0.00860909890526794,70.58823529411765,0.0
1523,-0.8687828565246658,-0.024372039300480854,70.58823529411765,0.0
1524,-0.885835751347912,-0.03909187730235354,70.58823529411765,0.0
1525,-0.9026130993356953,-0.05221312019436493,70.58823529411765,0.0
1526,-0.9181126061315711,-0.06353277508569584,70.58823529411765,0.0
1527,-0.9315340038938345,-0.07339150908629684,70.58823529411765,0.0
1528,-0.942719546785736,-0.08280170039857003,70.58823529411765,0.0
1529,-0.9525401999105956,-0.09345743532669763,70.58823529411765,0.0
1530,-0.9630664437389386,-0.10758810872653438,70.58823529411765,0.0
1531,-0.9773975950208826,-0.12764861968953975,70.58823529411765,0.0
1532,-0.9991118017600765,-0.15587902950582658,70.58823529411765,0.0
1533,-1.0314183898367415,-0.193805096260187,70.58823529411765,0.0
1534,-1.076207220602243,-0.24177734792701078,70.58823529411765,0.0
1535,-1.1332543575463436,-0.2986515125052833,70.58823529411765,0.0
1536,-1.1998296742840826,-0.36169352960802337,70.58823529411765,0.0
1537,-1.2708558546198392,-0.4267510702102512,70.58823529411765,0.0
1538,-1.3396162834693954,-0.4886797937209549,70.58823529411765,0.0
1539,-1.3988517179274917,-0.5419595720541541,70.58823529411765,0.0
1540,-1.4419770199110993,-0.5813967552342653,70.58823529411765,0.0
1541,-1.4641264445306095,-0.6027926199147008,70.58823529411765,0.0
1542,-1.4628027742764118,-0.6034684140140143,70.58823529411765,0.0
1543,-1.4380326283369054,-0.5825698873978196,70.58823529411765,0.0
1544,-1.3920699268442114,-0.5411194681532414,70.58823529411765,0.0
1545,-1.3287963866730526,-0.4818305879655218,70.58823529411765,0.0
1546,-1.2530141896824318,-0.4087355816533488,70.58823529411765,0.0
1547,-1.1698064345537853,-0.3266995894795912,70.58823529411765,0.0
1548,-1.0840712334838283,-0.24089669296704014,70.58823529411765,0.0
1549,-1.0002459120848552,-0.15631447215924751,70.58823529411765,0.0
1550,-0.9221645188807758,-0.07733533834958703,70.58823529411765,0.0
1551,-0.8529620593338169,-0.007423652290300314,70.58823529411765,0.0
1552,-0.794959182003622,0.05106876543712782,70.58823529411765,0.0
1553,-0.7495148850489998,0.09697792922013893,70.58823529411765,0.0
1554,-0.7168918152689525,0.1302910019993234,70.58823529411765,0.0
1555,-0.6962101007843736,0.15201108434705213,70.58823529411765,0.0
1556,-0.6855566208959918,0.16394309221784928,70.58823529411765,0.0
1557,-0.6822710297086578,0.16842668472972472,70.58823529411765,0.0
1558,-0.6833670711856396,0.16804742970221315,70.58823529411765,0.0
1559,-0.6859943537351929,0.16535931867785322,70.58823529411765,0.0
1560,-0.6878251758512365,0.16264855343157814,70.58823529411765,0.0
1561,-0.6872737668591584,0.16175991525440098,70.58823529411765,0.0
1562,-0.6835139002406234,0.16399467333512652,70.58823529411765,0.0
1563,-0.6763317352428364,0.17007612278445366,70.58823529411765,0.0
1564,-0.6659042082864848,0.18016908079647553,70.58823529411765,0.0
1565,-0.6526069391028296,0.19393558411703093,70.58823529411765,0.0
1566,-0.6369249809662988,0.21061110600980623,70.58823529411765,0.0
1567,-0.6194801900380397,0.22909203372164005,70.58823529411765,0.0
1568,-0.6011280005690467,0.24803254618156978,70.58823529411765,0.0
1569,-0.5830406657745766,0.26595385078426587,70.58823529411765,0.0
1570,-0.5666978342224431,0.2813686778084339,70.58823529411765,0.0
1571,-0.5537452234994422,0.2929188581950807,70.58823529411765,0.0
1572,-0.545739606871746,0.2995157832400995,70.58823529411765,0.0
1573,-0.543848570811179,0.30046596790847097,70.58823529411765,1.0
1574,-0.5485962508887373,0.29556021675359123,70.58758204116454,0.0
1575,-0.5597337647834104,0.2851071233397636,70.585642531245,0.0
1576,-0.5762723414809765,0.2698998560993006,70.58244723825327,0.0
1577,-0.596665859542537,0.25111739528599164,70.57802676132951,0.0
1578,-0.619087707519396,0.23017429779305426,70.57241181413586,0.0
1579,-0.6417283895546796,0.2085432299432558,70.5656332143689,0.0
1580,-0.66304764073992,0.18757938673159802,70.55772187351381,0.0
1581,-0.6819398943396714,0.16837454402794927,70.5487087868454,0.0
1582,-0.6978016907927466,0.15166156269210243,70.53862502368014,0.0
1583,-0.7105129425516494,0.1377796298007032,70.52750171788396,0.0
1584,-0.7203558684792806,0.12669891346720807,70.51537005863922,0.0
1585,-0.7278969040477824,0.1180930582936151,70.50226128147474,0.0
1586,-0.733852551484455,0.11144089983050763,70.48820665956198,0.0
1587,-0.7389553748991884,0.10613593284524186,70.47323749528019,0.0
1588,-0.7438349273490827,0.10158356579292532,70.45738511205322,0.0
1589,-0.7489302693340693,0.09727139619961829,70.4406808464603,0.0
1590,-0.7544517131845138,0.09280539072412614,70.42315604062252,0.0
1591,-0.760403925799351,0.08791325856427579,70.40484203486707,0.0
1592,-0.7666680209917028,0.08242359939257385,70.38577016067033,0.0
1593,-0.7731201201600042,0.07623389452656901,70.36597173388107,0.0
1594,-0.7797463294859875,0.06928100043646497,70.34547804822473,0.0
1595,-0.7867084779570271,0.06152439301388277,70.32432036908939,0.0
1596,-0.7943271057928679,0.052946066852415645,70.30252992759371,0.0
1597,-0.8029770543056723,0.04356378429521064,70.28013791493709,0.0
1598,-0.8129274977041469,0.03344879523193775,70.25717547703223,0.0
1599,-0.8241873571742108,0.022737304026401534,70.23367370941946,0.0
1600,-0.8364237738328775,0.011627696993765924,70.2096636524628,0.0
1601,-0.8489986309480005,0.0003619919713353653,70.18517628682673,0.0
1602,-0.8611222858256942,-0.010802329784932466,70.16024252923344,0.0
1603,-0.8720732898883221,-0.02161825671782118,70.13489322849892,0.0
1604,-0.8814007859443727,-0.03186023719389461,70.10915916184749,0.0
1605,-0.8890283160338255,-0.041312702412085095,70.08307103150298,0.0
1606,-0.8952146274102561,-0.04973869843010641,70.05665946155558,0.0
1607,-0.9003837865547503,-0.05684292099659459,70.02995499510263,0.0
1608,-0.9048901150331754,-0.06225229342578589,70.00298809166186,0.0
1609,-0.9088119397196468,-0.06553905598525366,69.97578912485552,0.0
1610,-0.9118617023484964,-0.06630386628748158,69.94838838036334,0.0
1611,-0.9134626409970942,-0.06432023159397865,69.92081605414263,0.0
1612,-0.9129889470893918,-0.05972027990893744,69.89310225091383,0.0
1613,-0.9101150081243891,-0.05318118028773016,69.86527698290891,0.0
1614,-0.9051834997040648,-0.04605787603229296,69.8373701688814,0.0
1615,-0.8994873353291306,-0.04040653368969468,69.80941163337536,0.0
1616,-0.8953669162142717,-0.038856888200098395,69.78143110625142,0.0
1617,-0.8960508008461857,-0.044319441264634066,69.75345822246788,0.0
1618,-0.9052146300795645,-0.05955035456560437,69.72552252211473,0.0
1619,-0.9262972965276165,-0.08663491550638724,69.69765345069817,0.0
1620,-0.9616849493001818,-0.1264802758348158,69.66988035967411,0.0
1621,-1.0119338119922203,-0.17842123754353076,69.64223250722792,0.0
1622,-1.0752296105360346,-0.240033810037046,69.61473905929896,0.0
1623,-1.1472574586507425,-0.30721967509298304,69.5874290908473,0.0
1624,-1.2215775550988226,-0.3745758058583415,69.56033158736112,0.0
1625,-1.2904832024277588,-0.43600737210927965,69.53347544660272,0.0
1626,-1.3461895070864542,-0.48549139929400803,69.50688948059098,0.0
1627,-1.3821034065811115,-0.517865505060867,69.48060241781899,0.0
1628,-1.3938928294954462,-0.5295086189758054,69.45464290570463,0.0
1629,-1.3801196284387536,-0.5188008932301833,69.42903951327284,0.0
1630,-1.3423150875149121,-0.4862931685077028,69.40382073406775,0.0
1631,-1.2845221448440614,-0.4345719533631105,69.37901498929337,0.0
1632,-1.2124581111950146,-0.3678608388530774,69.3546506311815,0.0
1633,-1.1325257197708,-0.2914414707733598,69.33075594658557,0.0
1634,-1.0509009497888084,-0.21099860338909193,69.30735916079924,0.0
1635,-0.972862807100673,-0.13199220159990596,69.28448844159904,0.0
1636,-0.9024333635978067,-0.05913871214850684,69.26217190350987,0.0
1637,-0.8423020899734315,0.003948718723199435,69.24043761229285,0.0
1638,-0.7939448972802877,0.05494589900538552,69.21931358965503,0.0
1639,-0.7578277529878632,0.0928427962849879,69.19882781818035,0.0
1640,-0.7336040240788122,0.11784030788603223,69.17900824648191,0.0
1641,-0.72025913384956,0.13115747895356908,69.15988279457517,0.0
1642,-0.7162054077086456,0.1347858009149469,69.14147935947247,0.0
1643,-0.7193649535454165,0.13122000632632091,69.12382582099914,0.0
1644,-0.7272875680982378,0.12318683208988522,69.10695004783155,0.0
1645,-0.7373339586524148,0.1133874752406766,69.09087990375794,0.0
1646,-0.7469223501529701,0.1042668563463148,69.07564325416304,0.0
1647,-0.7538040097912408,0.09782245000513463,69.0612679727373,0.0
1648,-0.7563137056512101,0.09546540147428796,69.04778194841258,0.0
1649,-0.7535412690165217,0.09794494568939507,69.03521309252531,0.0
1650,-0.745388667728697,0.10534262141011036,69.02358934620948,0.0
1651,-0.7325052232267021,0.1171355173077128,69.01293868802128,0.0
1652,-0.7161212126419968,0.13231905528865065,69.00328914179772,0.0
1653,-0.6978185008712031,0.14957156052177928,68.99466878475202,0.0
1654,-0.6792825118451615,0.16743708527352028,68.98710575580844,0.0
1655,-0.6620747474944209,0.1845010980443984,68.98062826417997,0.0
1656,-0.6474546524913359,0.19953625545417805,68.97526459819211,0.0
1657,-0.6362692232837841,0.2116020567057139,68.9710431343567,0.0
1658,-0.628920115881306,0.22009137469804113,68.96799234669987,0.0
1659,-0.6254085840780645,0.22472673225834533,68.96614081634837,0.0
1660,-0.6254449788462491,0.2255176625269018,68.96551724137932,1.0
1661,-0.6285927150504187,0.22269578113435978,68.9685400340148,0.0
1662,-0.634403844458613,0.21664526402622677,68.97750706701204,0.0
1663,-0.6425040745169542,0.20784327046779658,68.99226850954275,0.0
1664,-0.6526032669715688,0.19681857922237858,69.012677241879,0.0
1665,-0.6644373322376111,0.18412925710887285,69.03858860813835,0.0
1666,-0.67767583621954,0.17035376944431901,69.06986017821836,0.0
1667,-0.6918434621182988,0.1560863698177999,69.10635151835179,0.0
1668,-0.7062967129416026,0.1419276727139749,69.14792396976048,0.0
1669,-0.7202734353500834,0.1284645819009141,69.19444043493056,0.0
1670,-0.7330024466755808,0.11623875882671036,69.24576517107255,0.0
1671,-0.7438362526090194,0.10570765839394915,69.30176359037014,0.0
1672,-0.7523611290460586,0.0972051942239546,69.36230206665724,0.0
1673,-0.758449033949138,0.09090952704621956,69.42724774819926,0.0
1674,-0.7622404960859259,0.08682355944507913,69.49646837628707,0.0
1675,-0.7640757170179293,0.08477056485229637,69.56983210938448,0.0
1676,-0.7644094245754113,0.08440437377627215,69.64720735260003,0.0
1677,-0.7637449765417346,0.0852317694511138,69.7284625922836,0.0
1678,-0.7626058827847126,0.08664456147497597,69.81346623557548,0.0
1679,-0.7615384275945316,0.08795976966736997,69.90208645476322,0.0
1680,-0.761120781903145,0.08846751639835108,69.99419103632731,0.0
1681,-0.7619510860064481,0.08748661896440625,70.08964723458152,0.0
1682,-0.7645999557515268,0.08442691910933565,70.18832162983847,0.0
1683,-0.7695338844273109,0.07885511354279735,70.29007999105453,0.0
1684,-0.7770333904785548,0.07055782075281081,70.39478714293087,0.0
1685,-0.7871341624571658,0.059592681779484444,70.50230683747021,0.0
1686,-0.7996089909740695,0.046316304243613216,70.61250163001007,0.0
1687,-0.8139898476304306,0.03137753198969238,70.72523275977507,0.0
1688,-0.8296148911290073,0.01566640056456639,70.84036003501124,0.0
1689,-0.8456837324041772,0.00021361712397423294,70.95774172278533,0.0
1690,-0.8613165060021056,-0.013957341166818155,71.07723444355217,0.0
1691,-0.8756296078605187,-0.026013665310976687,71.19869307061184,0.0
1692,-0.8878511411406126,-0.03550918064621556,71.32197063459743,0.0
1693,-0.8974929513056832,-0.04255938360494389,71.44691823315169,0.0
1694,-0.9045714102645837,-0.0479554259520988,71.5733849459689,0.0
1695,-0.9098317420916208,-0.053177432269120514,71.70121775539472,0.0
1696,-0.9148943519242173,-0.06027784500996186,71.83026147279287,0.0
1697,-0.9222251534352289,-0.07162618513497578,71.96035867090342,0.0
1698,-0.9348524984714478,-0.08953526309942544,72.09134962243132,0.0
1699,-0.9558166742454393,-0.11581985108485474,72.22307224511832,0.0
1700,-0.9874305570016372,-0.15136426761651559,72.35536205356354,0.0
1701,-1.030520219214593,-0.1957871393021748,72.48805211807031,0.0
1702,-1.0838636586860584,-0.24728404675631277,72.62097303080719,0.0
1703,-1.1440262198490432,-0.30270071743356197,72.75395287958051,0.0
1704,-1.2056990374200656,-0.3578455133799523,72.88681722952414,0.0
1705,-1.2625070855651894,-0.4079998672523871,73.01938911301863,0.0
1706,-1.3081122076401115,-0.4485414016186634,73.15148902815696,0.0
1707,-1.3373433967938118,-0.4755682481270751,73.28293494607775,0.0
1708,-1.3470750060459151,-0.4864117800122338,73.41354232748827,0.0
1709,-1.3366476116605486,-0.47994921046307243,73.5431241486994,0.0
1710,-1.3077598153830514,-0.4566710408417266,73.6714909374922,0.0
1711,-1.2639066587890007,-0.41850986522860034,73.79845081913167,0.0
1712,-1.2095534518170967,-0.36848353571653647,73.92380957283589,0.0
1713,-1.149279530872622,-0.3102361868829828,74.04737069899969,0.0
1714,-1.0870978529873458,-0.24756913003272218,74.16893549746082,0.0
1715,-1.026073054871101,-0.18404048394217726,74.28830315708099,0.0
1716,-0.9682575905249378,-0.12268359718760888,74.40527085689806,0.0
1717,-0.914876662174508,-0.06585926404844972,74.51963387908475,0.0
1718,-0.8666391161538827,-0.015225315105464723,74.63118573392666,0.0
1719,-0.8240400771356025,0.028213103405625106,74.73971829700604,0.0
1720,-0.7875483018709705,0.06401501062620606,74.84502195874877,0.0
1721,-0.7576265571198258,0.09221178774268828,74.94688578645936,0.0
1722,-0.734600128840402,0.11323119333795933,75.04509769893349,0.0
1723,-0.7184460223382546,0.12783873133283796,75.13944465369894,0.0
1724,-0.708604564420158,0.1370847740752059,75.22971284689362,0.0
1725,-0.7039065756955782,0.14224096160778305,75.3156879257447,0.0
1726,-0.7026671457024264,0.14471329304011102,75.39715521356466,0.0
1727,-0.702936821019668,0.1459294377453286,75.47389994712907,0.0
1728,-0.7028437921797219,0.14720967173874464,75.54570752624718,0.0
1729,-0.7009265951400846,0.14963986997210368,75.61236377527973,0.0
1730,-0.6963589103299446,0.1539680056825139,75.67365521629965,0.0
1731,-0.6890066182379023,0.16054191244609808,75.72936935352995,0.0
1732,-0.6793180272445499,0.1692973953945955,75.77929496862977,0.0
1733,-0.6681064438173883,0.17979543317406121,75.82322242633522,0.0
1734,-0.656315459710276,0.19129863936208819,75.86094398989461,0.0
1735,-0.6448487809585437,0.20287261890629987,75.89225414567127,0.0
1736,-0.6345037138569602,0.2134977276779042,75.91694993621863,0.0
1737,-0.6259919609337259,0.2221796273969206,75.93483130106505,0.0
1738,-0.6199900023767635,0.2280506494869099,75.94570142437757,0.0
1739,-0.6171530622235553,0.23045636102192632,75.94936708860759,1.0
1740,-0.6180533750476548,0.2290221033239208,75.94575338726222,0.0
1741,-0.6230498297388328,0.22369336996924524,75.93502340292872,0.0
1742,-0.6321385146823505,0.2147434280884205,75.91734667579844,0.0
1743,-0.6448526485262396,0.2027433237181596,75.89289631169603,0.0
1744,-0.6602683689139132,0.18849416301312727,75.86184867385056,0.0
1745,-0.6771356592535781,0.17292865309273453,75.8243830783296,0.0
1746,-0.6941066098772806,0.1569962961390456,75.78068149392541,0.0
1747,-0.7099950211611116,0.14155174345526356,75.730928247233,0.0
1748,-0.7239874803509618,0.12726648028577436,75.67530973360923,0.0
1749,-0.7357423284161703,0.11457944428582525,75.61401413465045,0.0
1750,-0.745352874950015,0.10369335206681043,75.54723114277391,0.0
1751,-0.7531986373476218,0.09461285400345125,75.4751516934362,0.0
1752,-0.7597445390839181,0.08721121078114533,75.39796770546997,0.0
1753,-0.7653596159862809,0.08130660088002861,75.31587182996824,0.0
1754,-0.7702112516132739,0.07672874634793075,75.22905720809563,0.0
1755,-0.7742568168282797,0.0733609663962236,75.13771723815499,0.0
1756,-0.7773171082635675,0.07115033794274844,75.04204535219073,0.0
1757,-0.779190176236809,0.07008699545261345,74.94223480236198,0.0
1758,-0.7797584841589782,0.07016055460948939,74.83847845727439,0.0
1759,-0.7790560323867649,0.07130583600697257,74.73096860841513,0.0
1760,-0.7772863263590742,0.07335119258962648,74.61989678679474,0.0
1761,-0.7748045336791656,0.07598135739900615,74.50545358985967,0.0
1762,-0.7720876381109518,0.0787237576081866,74.38782851870208,0.0
1763,-0.7697112561338282,0.08096351817329107,74.26720982555902,0.0
1764,-0.7683352915620046,0.08198836702300771,74.14378437155936,0.0
1765,-0.7686826397265927,0.08106048625566625,74.01773749464769,0.0
1766,-0.7714867951041846,0.0775080999175772,73.88925288758534,0.0
1767,-0.7773925585589274,0.07082555819081038,73.75851248590352,0.0
1768,-0.7868176836199012,0.06076754960313974,73.62569636566016,0.0
1769,-0.7998111954986062,0.04742174336645155,73.49098265083067,0.0
1770,-0.8159602456211343,0.03124536650137994,73.35454743014454,0.0
1771,-0.8343900232034758,0.013055120415609134,73.21656468316233,0.0
1772,-0.8538710700128278,-0.006034153358881508,73.07720621537393,0.0
1773,-0.8730090404509758,-0.02471972260243277,72.93664160208601,0.0
1774,-0.8904628534780048,-0.0416612539537216,72.79503814085619,0.0
1775,-0.9051326345746807,-0.055657012359415156,72.65256081222333,0.0
1776,-0.916280751012709,-0.06582805913003402,72.50937224847617,0.0
1777,-0.923586190863684,-0.07178984357412446,72.36563271019791,0.0
1778,-0.9271651180141824,-0.07378853952329209,72.22150007032089,0.0
1779,-0.9276003796254754,-0.07277824394793858,72.07712980542358,0.0
1780,-0.9260022890276924,-0.07041586457021239,71.93267499400237,0.0
1781,-0.924080135788472,-0.0689550829702268,71.78828632145076,0.0
1782,-0.9241599947755249,-0.07103103120218161,71.64411209148167,0.0
1783,-0.9290647912772849,-0.07934385292341739,71.50029824373178,0.0
1784,-0.9417940261982367,-0.09627045737462644,71.35698837729113,0.0
1785,-0.9650024104204746,-0.12345528887582943,71.21432377990736,0.0
1786,-1.0003594505179423,-0.1614468201698053,71.07244346261957,0.0
1787,-1.0479442878125595,-0.2094506869583024,70.93148419958543,0.0
1788,-1.1058601511949024,-0.26525899539288433,70.79158057287167,0.0
1789,-1.1702213884654085,-0.3253883800093497,70.65286502198829,0.0
1790,-1.2355755671159188,-0.3854215284773206,70.51546789795533,0.0
1791,-1.2956996430926957,-0.44050657410533056,70.37951752170143,0.0
1792,-1.3445947852031161,-0.4859359827156813,70.24514024660382,0.0
1793,-1.3774412343113878,-0.5177098973714679,70.11246052499038,0.0
1794,-1.3912869103283025,-0.5329928123845452,69.98160097843544,0.0
1795,-1.385327089755377,-0.5303958287449329,69.85268247169343,0.0
1796,-1.3607560237416951,-0.5100532609081349,69.72582419012572,0.0
1797,-1.320289554023288,-0.4735024325718819,69.60114372048888,0.0
1798,-1.2675302901771097,-0.4234092272273676,69.47875713496494,0.0
1799,-1.2063548203677386,-0.363202045101777,69.35877907832756,0.0
1800,-1.140454101050828,-0.296680423339969,69.24132285815017,0.0
1801,-1.073081394399069,-0.2276536613688213,69.12650053797654,0.0
1802,-1.0069880115519825,-0.15964494950566696,69.0144230333871,0.0
1803,-0.9444768612128654,-0.09567481365372851,68.90520021090805,0.0
1804,-0.8874853717206886,-0.0381204280330697,68.79894098972458,0.0
