,PPG_Raw,PPG_Clean,PPG_Rate,PPG_Peaks
0,-0.02212162340422031,-0.0018336521383069916,89.40852819807426,0.0
1,-0.022347533001777747,-0.0020389950415441245,89.40852819807426,0.0
2,-0.02256421380141427,-0.002240181502149339,89.40852819807426,0.0
3,-0.02276500496860624,-0.0024327275296828106,89.40852819807426,0.0
4,-0.022946425724286016,-0.0026134116074327906,89.40852819807426,0.0
5,-0.023108920905366696,-0.0027806067070795942,89.40852819807426,0.0
6,-0.023256700370581702,-0.00293431129135178,89.40852819807426,0.0
7,-0.023396561678319053,-0.0030759445869691752,89.40852819807426,0.0
8,-0.023535842047921758,-0.0032080318584936335,89.40852819807426,0.0
9,-0.023679989617606808,-0.003333911717277784,89.40852819807426,0.0
10,-0.02383057377472713,-0.003457541305065972,89.40852819807426,0.0
11,-0.023984676245817745,-0.00358337154601725,89.40852819807426,0.0
12,-0.024136310876659017,-0.0037161526283225033,89.40852819807426,0.0
13,-0.024279737648794347,-0.003860463447569875,89.40852819807426,0.0
14,-0.02441346346155043,-0.004019787927206432,89.40852819807426,0.0
15,-0.024542850231442356,-0.004195107910114786,89.40852819807426,0.0
16,-0.02467920495529898,-0.0043832209193645395,89.40852819807426,0.0
17,-0.024834421026329347,-0.004575243910005959,89.40852819807426,0.0
18,-0.025012477589023654,-0.004755921042895348,89.40852819807426,0.0
19,-0.025201391101403244,-0.004904312835744742,89.40852819807426,0.0
20,-0.02537010278038789,-0.004996161429836528,89.40852819807426,0.0
21,-0.025473268345221747,-0.005007749503916704,89.40852819807426,0.0
22,-0.02546335141563955,-0.00492053691091224,89.40852819807426,0.0
23,-0.025305648889674997,-0.004725456191843664,89.40852819807426,0.0
24,-0.02499013612740278,-0.004425640620145634,89.40852819807426,0.0
25,-0.02453538473860873,-0.004036621454085317,89.40852819807426,0.0
26,-0.02398341026814077,-0.0035836158957562427,89.40852819807426,0.0
27,-0.023388010259585184,-0.003096276497604221,89.40852819807426,0.0
28,-0.0228010479138088,-0.0026019761672558756,89.40852819807426,0.0
29,-0.022260707462398242,-0.0021191670032681287,89.40852819807426,0.0
30,-0.021783919144449486,-0.0016524538002748253,89.40852819807426,0.0
31,-0.02136338641799754,-0.0011907366992957146,89.40852819807426,0.0
32,-0.020968875203514058,-0.0007091628094229837,89.40852819807426,0.0
33,-0.020552552264959386,-0.00017480927300808592,89.40852819807426,0.0
34,-0.020058380762879902,0.00044483619458220115,89.40852819807426,0.0
35,-0.01943511987399697,0.0011722501973424294,89.40852819807426,0.0
36,-0.018651190494329523,0.0020111744936744057,89.40852819807426,0.0
37,-0.017708148215594806,0.002940908847177413,89.40852819807426,0.0
38,-0.016648677330984064,0.003915191193518771,89.40852819807426,0.0
39,-0.015555585547162142,0.0048663817815314475,89.40852819807426,0.0
40,-0.014540330955833687,0.0057145479551692835,89.40852819807426,0.0
41,-0.01372261939035569,0.0063799332538789265,89.40852819807426,0.0
42,-0.01320560099761039,0.006796461338172475,89.40852819807426,0.0
43,-0.01305303711056132,0.0069235944129603,89.40852819807426,1.0
44,-0.013274658130249107,0.006754140904913537,89.05274228104905,0.0
45,-0.013823697288829167,0.006316435027901237,88.70052222330868,0.0
46,-0.014607030265229361,0.00567049070714737,88.351879707266,0.0
47,-0.015504754972365295,0.004898971091176254,88.00682543590813,0.0
48,-0.01639363689163167,0.004094812024682709,87.66536917811219,0.0
49,-0.01716833862623296,0.003347871028215879,87.32751981291395,0.0
50,-0.017755754599150013,0.002732956614394518,86.99328537274519,0.0
51,-0.01812043132212195,0.0023010896016708083,86.66267308565556,0.0
52,-0.018261912972004433,0.0020750376046305774,86.33568941653635,0.0
53,-0.01820686936585013,0.002049275782734611,86.01234010736373,0.0
54,-0.01799945788831406,0.0021937696139742212,85.69263021648021,0.0
55,-0.01769263660104808,0.0024604820042545134,85.3765641569332,0.0
56,-0.017341697031790896,0.002791314263245093,85.06414573389071,0.0
57,-0.016999874116078888,0.0031262523343373897,84.75537818115427,0.0
58,-0.016715070350762324,0.0034107137697609743,84.45026419678953,0.0
59,-0.016526705388339426,0.0036013805259357662,84.14880597789583,0.0
60,-0.016462326798642683,0.003670087773156317,83.85100525453605,0.0
61,-0.016534485037838928,0.003605587942451422,83.55686332284837,0.0
62,-0.01673897637179077,0.003413221293113945,83.26638107736171,0.0
63,-0.017055512848164388,0.003112710896028865,82.97955904253732,0.0
64,-0.017451161079017834,0.002734467100938609,82.6963974035584,0.0
65,-0.01788588185281052,0.0023149260209214435,82.41689603639043,0.0
66,-0.018318779146677584,0.00189153858210188,82.14105453713468,0.0
67,-0.018713626014654035,0.0014980503882572028,81.86887225069746,0.0
68,-0.01904281323230787,0.0011606566957421476,81.60034829879801,0.0
69,-0.019289609461731194,0.0008954844810487091,81.33548160733714,0.0
70,-0.019449048688317976,0.0007076612581191032,81.07427093315027,0.0
71,-0.019527718303196582,0.0005920022368218014,80.81671489016684,0.0
72,-0.019542429122363397,0.0005351115454446599,80.56281197499898,0.0
73,-0.01951755530781733,0.0005184798991718961,80.31256059198246,0.0
74,-0.019480953455689745,0.0005220032001326791,80.06595907769209,0.0
75,-0.019458814226583628,0.0005272775976253672,79.82300572495465,0.0
76,-0.019470416287274216,0.0005200735783424616,79.58369880638155,0.0
77,-0.019524258193389342,0.0004915638603336047,79.3480365974438,0.0
78,-0.019617063514998135,0.0004381571087574937,79.11601739911208,0.0
79,-0.0197364175946315,0.0003601178083860897,78.8876395600839,0.0
80,-0.019866434703543174,0.0002594520895827857,78.66290149862026,0.0
81,-0.019994496123111268,0.00013772508277471699,78.44180172401433,0.0
82,-0.020116519527191835,-5.514078050503643e-06,78.22433885771433,0.0
83,-0.020238799094505724,-0.00017320226016889176,78.01051165412257,0.0
84,-0.02037589323608253,-0.0003699555741929958,77.80031902109312,0.0
85,-0.02054557320716057,-0.0006001981812629761,77.59376004015007,0.0
86,-0.020762776296116937,-0.0008657746683012519,77.39083398644874,0.0
87,-0.021034554537033012,-0.0011637880435530197,77.19154034850156,0.0
88,-0.021357344591326214,-0.0014854040789570471,76.99587884769106,0.0
89,-0.021716919628650817,-0.00181616294734888,76.80384945759224,0.0
90,-0.022090564984201786,-0.002137984500983807,76.61545242312606,0.0
91,-0.022450672071472857,-0.002432620474624752,76.43068827956671,0.0
92,-0.022769134189867375,-0.0026858876793778405,76.24955787142467,0.0
93,-0.023022365554215118,-0.0028917045728378086,76.07206237122828,0.0
94,-0.02319692283683003,-0.0030548326064744743,75.89820329822598,0.0
95,-0.02329518223628573,-0.003191353405327397,75.72798253703215,0.0
96,-0.0233394301387419,-0.003326312932957037,75.5614023562391,0.0
97,-0.02337178091313128,-0.003488594224063996,75.39846542701856,0.0
98,-0.02344749241110784,-0.0037038271318138214,75.23917484173536,0.0
99,-0.023621075394889127,-0.003986824789970868,75.08353413259707,0.0
100,-0.023927779833448938,-0.00433543778950055,74.93154729036323,0.0
101,-0.02436630705364026,-0.004727656544884702,74.78321878313805,0.0
102,-0.024890096587275957,-0.005123195971354553,74.63855357527089,0.0
103,-0.02541277954155177,-0.005469752891301531,74.49755714638918,0.0
104,-0.025828353299461107,-0.005712888962033816,74.36023551058899,0.0
105,-0.026040298006295114,-0.00580741492000918,74.22659523580826,0.0
106,-0.025989437900195256,-0.005727576449298407,74.09664346340932,0.0
107,-0.025670401020339753,-0.005473472311809724,73.97038792799646,0.0
108,-0.025131221129171495,-0.005071960718698259,73.847836977496,0.0
109,-0.024457550275288578,-0.004571606034729883,73.72899959352634,0.0
110,-0.02374858966287154,-0.0040326286047255334,73.61388541208613,0.0
111,-0.023093612814657213,-0.0035139816094750453,73.50250474458963,0.0
112,-0.022555530950304024,-0.0030603299377109996,73.39486859927896,0.0
113,-0.022163270000137344,-0.0026917461908296226,73.2909887030435,0.0
114,-0.021910735291971916,-0.0023984155505964843,73.19087752367813,0.0
115,-0.02175902206406284,-0.002141694952469464,73.09454829261226,0.0
116,-0.021640420184638378,-0.0018616776141555966,73.00201502814319,0.0
117,-0.021465722707061728,-0.0014901491904815213,72.91329255920785,0.0
118,-0.021137729131770477,-0.0009666686416719195,72.8283965497284,0.0
119,-0.020572119397892098,-0.00025466344470935183,72.74734352356866,0.0
120,-0.019722730163087187,0.0006458997042834013,72.67015089013869,0.0
121,-0.018604078688960198,0.0016923560547922175,72.59683697068726,0.0
122,-0.0173023288450198,0.0028017015220156228,72.52742102532291,0.0
123,-0.015968069890501983,0.0038617930890934926,72.46192328080544,0.0
124,-0.014789710989339068,0.0047497595742799605,72.4003649591524,0.0
125,-0.013952933066476074,0.005354225055995036,72.34276830710566,0.0
126,-0.013596880935225606,0.005596845959216345,72.28915662650603,1.0
127,-0.013779518119648863,0.005448567026163603,72.23830363161382,0.0
128,-0.014462062700302985,0.004936997033641744,72.18894051547784,0.0
129,-0.015516627622471798,0.004143181024529057,72.14102788970023,0.0
130,-0.01675431633667604,0.003188346015480582,72.09452672877048,0.0
131,-0.01796552683218404,0.0022133510700395338,72.04939835485717,0.0
132,-0.01896174796164064,0.001355058627615929,72.00560442311644,0.0
133,-0.019609023579063786,0.0007243316245713395,71.9631069075029,0.0
134,-0.01984665850994798,0.0003897889154177104,71.92186808707109,0.0
135,-0.019689183945507154,0.0003700230947830156,71.88185053275444,0.0
136,-0.01921367650802246,0.0006350914397626879,71.84301709461097,0.0
137,-0.018537301557121907,0.0011161943328531036,71.8053308895242,0.0
138,-0.017791075066484873,0.0017209684355573669,71.76875528934946,0.0
139,-0.01709543852306374,0.002351015781316619,71.73325390949542,0.0
140,-0.016541778283207877,0.0029182530444422836,71.69879059793179,0.0
141,-0.016182109754114382,0.0033573090017152813,71.66532942461453,0.0
142,-0.016027329077139163,0.0036323029210142475,71.63283467131993,0.0
143,-0.016052989119020193,0.0037376176258643217,71.6012708218803,0.0
144,-0.016210499761148998,0.0036934572480770266,71.57060255281351,0.0
145,-0.01644093799310361,0.0035378303960011286,71.54079472433945,0.0
146,-0.016688363281132174,0.0033170004313733885,71.5118123717772,0.0
147,-0.016909862565784656,0.0030763809552221766,71.48362069731621,0.0
148,-0.017080586189744597,0.00285341075061652,71.45618506215624,0.0
149,-0.017193557236134232,0.00267327189379943,71.42947097901012,0.0
150,-0.017255519204561767,0.002547597910978904,71.40344410496454,0.0
151,-0.017280969359227967,0.002475717908232186,71.37807023469368,0.0
152,-0.01728653048850735,0.002447605394284431,71.35331529402153,0.0
153,-0.017287089006485543,0.002447582590519544,71.32914533382821,0.0
154,-0.017294108856115473,0.0024579392596208523,71.30552652429667,0.0
155,-0.01731567544445415,0.0024618793958504177,71.28242514949565,0.0
156,-0.01735740743662681,0.0024455130702423955,71.25980760229564,0.0
157,-0.017423429565228108,0.0023988803527348005,71.23764037961416,0.0
158,-0.01751695292240936,0.0023161768551178998,71.21589007798782,0.0
159,-0.017640388735056894,0.0021954301788272455,71.19452338946734,0.0
160,-0.017795126702864875,0.0020378684286792978,71.1735070978337,0.0
161,-0.017981136841495386,0.0018471594076739284,71.15280807513217,0.0
162,-0.018196550841208733,0.0016286202721038426,71.13239327852182,0.0
163,-0.018437445779669385,0.0013884338957161806,71.1122297474385,0.0
164,-0.01869811101223268,0.0011328780684974576,71.09228460106883,0.0
165,-0.018971956756285168,0.0008675793437248019,71.0725250361329,0.0
166,-0.019252880311884976,0.0005968339080980778,71.05291832497421,0.0
167,-0.019536550987538086,0.00032307494767958565,71.03343181395434,0.0
168,-0.019821018037186295,4.659123730689084e-05,71.01403292215083,0.0
169,-0.02010640647564798,-0.00023439758167317568,70.99468914035633,0.0
170,-0.02039401798674973,-0.0005232324823250352,70.97536803037741,0.0
171,-0.020685485686806806,-0.0008238548114325598,70.95603722463098,0.0
172,-0.020982478979705045,-0.001139459814542328,70.93666442603713,0.0
173,-0.021286914760652288,-0.0014709333811092676,70.91721740820604,0.0
174,-0.02160107674157095,-0.001815352942405583,70.89766401591801,0.0
175,-0.021926855476524666,-0.002164927805385365,70.87797216589414,0.0
176,-0.022263660728792434,-0.0025067929733248247,70.85810984785674,0.0
177,-0.0226053181717781,-0.0028240088235319464,70.8380451258769,0.0
178,-0.02293714203487406,-0.0030979232835116038,70.81774614000818,0.0
179,-0.023234981450468258,-0.003311724222024253,70.79718110820393,0.0
180,-0.023467987683404017,-0.0034546017655953014,70.77631832851675,0.0
181,-0.02360590223391029,-0.003525563416119454,70.7551261815779,0.0
182,-0.023629900266092803,-0.0035357443039459296,70.73357313335467,0.0
183,-0.023543952954562554,-0.0035081653131111795,70.71162773818341,0.0
184,-0.023382165672995777,-0.0034743790176348533,70.68925864207607,0.0
185,-0.023207528786255278,-0.003468254010198875,70.66643458629784,0.0
186,-0.023099540564546543,-0.0035180916945422606,70.64312441121321,0.0
187,-0.023132038650089618,-0.003639050782245813,70.61929706039808,0.0
188,-0.02334717606532718,-0.0038281589302295543,70.59492158501483,0.0
189,-0.023734881031481254,-0.004063800836946079,70.56996714844756,0.0
190,-0.02422730321445834,-0.004310475498396785,70.54440303119436,0.0
191,-0.024713589151533554,-0.004528056221446004,70.51819863601331,0.0
192,-0.025072726894793746,-0.004683224901583339,70.49132349331873,0.0
193,-0.025214143747915488,-0.004759727101992477,70.46374726682417,0.0
194,-0.02511112256363561,-0.004764037088536578,70.43543975942795,0.0
195,-0.02481358496231905,-0.004724077559518142,70.40637091933776,0.0
196,-0.02443411717736123,-0.004680580924983697,70.3765108464295,0.0
197,-0.024111126333254126,-0.004672955401648875,70.34582979883623,0.0
198,-0.023961400936603965,-0.004723422065845048,70.31429819976258,0.0
199,-0.02403787994722177,-0.004824089466342141,70.28188664451939,0.0
200,-0.02430626974297775,-0.004931193311144317,70.24856590777381,0.0
201,-0.024647709467180597,-0.00496901957778664,70.21430695100925,0.0
202,-0.024886582894259105,-0.004843506129284698,70.17908093018964,0.0
203,-0.024835426823121596,-0.0044628806679552135,70.14285920362202,0.0
204,-0.024344559897819137,-0.003760673825090413,70.10561334001159,0.0
205,-0.023343377629459223,-0.0027155978011298276,70.06731512670251,0.0
206,-0.021863013722776468,-0.001363327165905449,70.02793657809822,0.0
207,-0.02003520046691702,0.000202993224820681,69.98744994425387,0.0
208,-0.018068171801355726,0.0018441282762725903,69.94582771963437,0.0
209,-0.016205857310574223,0.0033959530570000446,69.90304265203002,0.0
210,-0.014680255747474695,0.0046962505577424095,69.85906775162253,0.0
211,-0.013668012017568166,0.005611741834478351,69.81387630019317,0.0
212,-0.01326059057667981,0.006060066571806883,69.76744186046511,1.0
213,-0.01345344994003813,0.006022645553204961,69.7167195554996,0.0
214,-0.01415448060061352,0.005546349433659002,69.65880101808601,0.0
215,-0.015207362051402055,0.00473417383829369,69.59386736164262,0.0
216,-0.016422858581271554,0.003727172336255212,69.52210284707282,0.0
217,-0.017610900549541654,0.0026813297685595395,69.44369453820926,0.0
218,-0.01860800518741344,0.001743656649698404,69.35883196279701,0.0
219,-0.019296983613348955,0.001031538785675404,69.26770677986887,0.0
220,-0.019617858190727467,0.0006184380916665121,69.17051245430258,0.0
221,-0.0195700122824226,0.0005276666654845399,69.06744393928525,0.0
222,-0.019206089502540227,0.0007344380226898288,68.95869736734471,0.0
223,-0.018618689040459248,0.001175009816526758,68.84446975054296,0.0
224,-0.017921861053165816,0.0017606883963521163,68.72495869036196,0.0
225,-0.017230573877315955,0.0023939060687703266,68.60036209774827,0.0
226,-0.016642034734860055,0.002983555391024413,68.47087792372062,0.0
227,-0.0162224137855713,0.0034572265811255755,68.33670390088282,0.0
228,-0.016001102867642517,0.003768816100460208,68.1980372961257,0.0
229,-0.015972658563870822,0.0039009702162450233,68.05507467474418,0.0
230,-0.016104770075948113,0.003862790622013294,67.9080116761401,0.0
231,-0.01634949586515306,0.0036839779887197673,67.75704280123028,0.0
232,-0.01665480057642004,0.0034070040218000357,67.60236121162698,0.0
233,-0.016973966114270343,0.003078947683885992,67.44415854061356,0.0
234,-0.01727145603850319,0.002744355272338416,67.2826247158914,0.0
235,-0.017524933976066463,0.002439999332887482,67.11794779403404,0.0
236,-0.017724071713538285,0.002191860282966187,66.95031380654572,0.0
237,-0.017867364817295155,0.0020141721117197826,66.77990661738589,0.0
238,-0.0179583856905483,0.0019100558373256224,66.60690779178883,0.0
239,-0.018002786860582973,0.0018731503624195205,66.43149647617831,0.0
240,-0.018006940825279816,0.001889718809078045,66.2538492889499,0.0
241,-0.017978407846088902,0.0019408909859750655,66.07414022187048,0.0
242,-0.017927624345763532,0.0020049081479895487,65.89254055182339,0.0
243,-0.017869597091890625,0.0020593800183103185,65.70921876260849,0.0
244,-0.017824260040745773,0.002083594518877046,65.52434047649254,0.0
245,-0.017814608157743373,0.002060834822240422,65.33806839518992,0.0
246,-0.017862612595420456,0.001980501598929693,65.15056224994487,0.0
247,-0.017983893966377704,0.0018396878535203093,64.96197876037633,0.0
248,-0.018182793270732266,0.0016437905953414563,64.77247160174102,0.0
249,-0.01844956568548057,0.0014058228310473897,64.58219138026563,0.0
250,-0.01876089464867669,0.0011443181184060329,64.39128561619621,0.0
251,-0.01908398302342352,0.000880050970541007,64.19989873421241,0.0
252,-0.019383453335549475,0.0006321396381740116,64.00817206085482,0.0
253,-0.01962947429023835,0.0004143460943889626,63.816243828615946,0.0
254,-0.0198050943669611,0.00023244982319079724,63.624249186349125,0.0
255,-0.019910788008959436,8.340099735293371e-05,63.43232021565429,0.0
256,-0.019964766458232745,-4.342783509740699e-05,63.24058595290576,0.0
257,-0.019998654824288413,-0.00016309222378445786,63.049172416594224,0.0
258,-0.020049455582669393,-0.00029075263577607764,62.858202639662636,0.0
259,-0.02014985241185467,-0.0004372842229931127,62.66779670652497,0.0
260,-0.0203194081027612,-0.00060604633926663,62.47807179446538,0.0
261,-0.02055891968053305,-0.000791834439389199,62.289142219126234,0.0
262,-0.020849337114905275,-0.0009825270042807214,62.10111948380288,0.0
263,-0.0211556404616931,-0.0011632261186634058,61.91411233227485,0.0
264,-0.02143519168437671,-0.0013219398794832317,61.72822680491362,0.0
265,-0.021649325072052278,-0.0014552673212320441,61.54356629781905,0.0
266,-0.021776123227843225,-0.0015723080815431996,61.360231624748124,0.0
267,-0.02182137540808654,-0.0016952529389773104,61.17832108161142,0.0
268,-0.021823946127938296,-0.0018558333164648403,60.997930513324555,0.0
269,-0.0218518903399307,-0.0020878975078886582,60.8191533828143,0.0
270,-0.021987379886399046,-0.0024175849302570246,60.6420808419902,0.0
271,-0.022302073404962246,-0.0028535450197149253,60.466801804505224,0.0
272,-0.022829130186822318,-0.0033800526498371803,60.29340302014029,0.0
273,-0.023541664697341657,-0.00395548002037739,60.121969150659574,0.0
274,-0.024347678798852156,-0.004517387023013785,59.95258284699462,0.0
275,-0.025107018337620416,-0.004993744938135059,59.78532482762753,0.0
276,-0.025667657288483626,-0.00531799081296057,59.62027395805357,0.0
277,-0.025910093978743352,-0.005444286200125031,59.457507331216085,0.0
278,-0.025784209442229956,-0.0053589836612063495,59.297100348815945,0.0
279,-0.025325214986082468,-0.005085070742364602,59.1391268034096,0.0
280,-0.02464340393493267,-0.004678089717818168,58.98365896121987,0.0
281,-0.023892328586364673,-0.004214238249621993,58.830767645593546,0.0
282,-0.023227084170020267,-0.0037734073772323976,58.680522321050624,0.0
283,-0.02276594179602984,-0.0034212330643412308,58.532991177879026,0.0
284,-0.02256512643162132,-0.003194483334997305,58.38824121723899,0.0
285,-0.022610802826423602,-0.00309324914307246,58.24633833675068,0.0
286,-0.022827221627440164,-0.0030817212136396094,58.10734741654735,0.0
287,-0.02309698547767404,-0.00309727429192969,57.971332405786065,0.0
288,-0.023288343209584454,-0.0030656546348398093,57.83835640961705,0.0
289,-0.02328431335518981,-0.0029187145204238527,57.70848177662105,0.0
290,-0.023008516440856365,-0.0026106384754599993,57.581770186733266,0.0
291,-0.02244283696100813,-0.0021290376967566093,57.45828273968116,0.0
292,-0.021632949493393096,-0.0014985260419050233,57.33808004397173,0.0
293,-0.02067978071279512,-0.0007761364982860552,57.22122230647255,0.0
294,-0.01971804076231052,-3.978674367034079e-05,57.10776942263969,0.0
295,-0.018886313112537495,0.0006274700833823019,56.9977810674537,0.0
296,-0.018295791138901413,0.0011538197985651798,56.89131678713392,0.0
297,-0.018005644597212718,0.0014921083981151947,56.7884360917098,0.0
298,-0.018011652643357533,0.0016275843954527253,56.68919854853687,0.0
299,-0.01825122281350353,0.0015786937452938715,56.59366387685377,0.0
300,-0.018623061205663566,0.0013913298665466844,56.50189204348617,0.0
301,-0.01901513520265298,0.001128389357558517,56.41394335981247,0.0
302,-0.019332002516050224,0.0008573512881129423,56.32987858011584,0.0
303,-0.019513273764464843,0.000638708360280841,56.249759001457434,0.0
304,-0.019538748600798565,0.0005174820861942673,56.173646565215414,0.0
305,-0.01942099931144826,0.0005189981421370633,56.101603960445296,0.0
306,-0.01919059177507513,0.0006489317154612757,56.03369472922873,0.0
307,-0.01888092420808801,0.0008966870243024671,55.96998337418854,0.0
308,-0.01851833500865175,0.0012406601469299393,55.910535468361374,0.0
309,-0.018119649853406923,0.0016538908847257877,55.8554177676311,0.0
310,-0.017695570688309417,0.0021089290065000993,55.804698325940514,0.0
311,-0.017256046347666924,0.002581234275587211,55.75844661351299,0.0
312,-0.01681383763672847,0.0030509142221329492,55.71673363833128,0.0
313,-0.01638444720357305,0.0035029624846048884,55.67963207113688,0.0
314,-0.015983092894520465,0.003926364882864775,55.64721637423081,0.0
315,-0.015621081556005662,0.004312526100635083,55.61956293437504,0.0
316,-0.015304079203872849,0.004653492487245601,55.596750200114414,0.0
317,-0.015033548711399511,0.004940440254677357,55.578858823859115,0.0
318,-0.014810818644531354,0.005162859044938201,55.56597180909168,0.0
319,-0.014641765712507507,0.005308757421020536,55.55817466308637,0.0
320,-0.014539583352599413,0.005366021552982107,55.55555555555555,1.0
321,-0.01452375799359688,0.00532477741131338,55.56083284379155,0.0
322,-0.014614904195974238,0.005180294331651666,55.57650425682108,0.0
323,-0.014826901303270665,0.004935715411520098,55.60233745575142,0.0
324,-0.015159094529066877,0.004603804858302517,55.63811052546854,0.0
325,-0.015591608493354628,0.004207026822980482,55.683611145327816,0.0
326,-0.01608591654978833,0.0037756120886276506,55.738635802378475,0.0
327,-0.016591046579976235,0.003343752843032579,55.80298904294209,0.0
328,-0.017053865501212153,0.0029445623652699445,55.876482758722375,0.0
329,-0.017430514833077605,0.002604802586085946,55.95893550394626,0.0
330,-0.01769575784362295,0.0023405072493246984,56.050171840327735,0.0
331,-0.017847776553465138,0.002154469064456861,56.15002170691047,0.0
332,-0.017907419210201614,0.0020361543879378664,56.258319812085624,0.0
333,-0.017912446793993626,0.0019640656208519108,56.374905045300984,0.0
334,-0.017908478268496834,0.0019100319370405643,56.49961990617878,0.0
335,-0.017938899373932626,0.0018445091092420607,56.63230994894487,0.0
336,-0.01803603348464622,0.0017418016896572274,56.77282324024324,0.0
337,-0.018215490548780945,0.001584212357520689,56.921009828569154,0.0
338,-0.01847486103664787,0.0013644314545392929,57.0767212237039,0.0
339,-0.018796838089479413,0.0010859086392381754,57.239809884674024,0.0
340,-0.019155603026706807,0.000761378495977781,57.41012871489213,0.0
341,-0.019524289594458573,0.00041003518919124947,57.58753056326335,0.0
342,-0.01988103807098337,5.4003801904662415e-05,57.77186773016516,0.0
343,-0.020211835480867645,-0.00028526567798733493,57.96299147732757,0.0
344,-0.020509807284423965,-0.0005901989485723918,58.16075154075841,0.0
345,-0.02077222286933898,-0.0008495906454978354,58.36499564597448,0.0
346,-0.02099744234882081,-0.0010602288209597037,58.57556902491471,0.0
347,-0.02118391315850287,-0.0012275509280914613,58.79231393402841,0.0
348,-0.021332173722185526,-0.0013652316799272197,59.015069173148916,0.0
349,-0.021449126261202107,-0.0014936041607632544,59.243669604882655,0.0
350,-0.02155232045869421,-0.001636892108495703,59.47794567436663,0.0
351,-0.021671352915383163,-0.0018194271408236082,59.71772292937349,0.0
352,-0.021844171080037354,-0.002061319472759083,59.96282154087339,0.0
353,-0.02210799724623864,-0.002374353044644372,60.21305582429732,0.0
354,-0.022487083415979683,-0.0027590507594264144,60.4682337618866,0.0
355,-0.02298150555111008,-0.003203777594075322,60.72815652665916,0.0
356,-0.023561705716616338,-0.0036863644596103985,60.99261800867515,0.0
357,-0.024172043489622416,-0.004178102102028443,61.2614043444423,0.0
358,-0.02474358624068715,-0.0046492437700468205,61.53429345046584,0.0
359,-0.025212828983550744,-0.005074606177617384,61.8110545621187,0.0
360,-0.025540364909148346,-0.005437693150754419,62.091447779184534,0.0
361,-0.025722849500674667,-0.00573210302280946,62.37522361960949,0.0
362,-0.025793335242236835,-0.0059597707491016545,62.662122583187305,0.0
363,-0.02580876297593202,-0.0061266182119516415,62.95187472709655,0.0
364,-0.02582793809907073,-0.00623710771393194,63.244199255407224,0.0
365,-0.025887196741921904,-0.006289677013610056,63.538804124876116,0.0
366,-0.02598273001695425,-0.006274862731759016,63.835385669554675,0.0
367,-0.026067192510044104,-0.006177090172788882,64.13362824693877,0.0
368,-0.0260636699168739,-0.005979857877758333,64.43320390859475,0.0
369,-0.025893488350324317,-0.0056727865246756735,64.73377209839879,0.0
370,-0.02550816843451782,-0.005258185037302242,65.03497938172417,0.0
371,-0.024912997539187395,-0.0047547363560028165,65.33645920910293,0.0
372,-0.024172086208375985,-0.004196687658040145,65.63783171806853,0.0
373,-0.02339184670559192,-0.003628312043008762,65.93870357705583,0.0
374,-0.022688583302094466,-0.003094931733020674,66.23866787538648,0.0
375,-0.022152335099476887,-0.0026329357186484076,66.53730406350101,0.0
376,-0.021820366096886024,-0.0022615970240849855,66.83417794770864,0.0
377,-0.021669359994387037,-0.0019789791450035912,67.12884174380753,0.0
378,-0.021627635983252035,-0.0017630098376514604,67.42083419397841,0.0
379,-0.02160113868091186,-0.0015773126622480923,67.70968075136844,0.0
380,-0.021502752999329282,-0.0013801069988760642,67.99489383675511,0.0
381,-0.021274954600051545,-0.0011337917925458903,68.27597317160708,0.0
382,-0.02089995018819826,-0.0008128674341736381,68.55240619173603,0.0
383,-0.020396867110311256,-0.00040852521056449365,68.8236685455562,0.0
384,-0.01980980901777833,7.073648564909435e-05,69.08922468073068,0.0
385,-0.01919243130418432,0.0006020702693450455,69.34852852268385,0.0
386,-0.018594193672770935,0.0011536521385187744,69.60102424809207,0.0
387,-0.018051536397196404,0.0016909785488043363,69.84614715602727,0.0
388,-0.01758494619137129,0.0021826981646311905,70.08332463891861,0.0
389,-0.017200965727302387,0.002604991798386089,70.31197725491278,0.0
390,-0.01689701714721387,0.002944038706778927,70.53151990255566,0.0
391,-0.01666655223249617,0.003196581670117046,70.74136309798322,0.0
392,-0.01650246351461335,0.0033689181725530285,70.9409143540045,0.0
393,-0.016397732560871313,0.00347477470702035,71.12957965958257,0.0
394,-0.016343655239671684,0.0035325115248718677,71.30676505727833,0.0
395,-0.016327220151773687,0.0035620381985927776,71.47187831522038,0.0
396,-0.01632981074658964,0.003581770975669689,71.62433068911312,0.0
397,-0.01632898078112778,0.003605963496837743,71.76353876869841,0.0
398,-0.01630363870176431,0.0036427705064652196,71.88892640196279,0.0
399,-0.01624110630016156,0.003693397280786813,71.99992668923605,0.0
400,-0.01614308028424462,0.0037525797807346287,72.09598403818048,0.0
401,-0.016027348798225427,0.003810404341928443,72.17655626953334,0.0
402,-0.0159235047724418,0.0038551484207046288,72.24111676235883,0.0
403,-0.015863398602310324,0.0038765049513668237,72.28915662650603,1.0
404,-0.015869595313779298,0.0038683686549714335,72.32861075984785,0.0
405,-0.01594640372288298,0.003830412416411785,72.36774075875353,0.0
406,-0.016077358714409986,0.0037679880054276465,72.4065423858165,0.0
407,-0.016230523618730425,0.0036903721552713075,72.44501139787852,0.0
408,-0.016369727175848982,0.0036078919479120264,72.48314354637503,0.0
409,-0.016467361922972993,0.0035288247312827933,72.52093457768562,0.0
410,-0.016513792359960183,0.003457044662959979,72.55838023348966,0.0
411,-0.01651994914275405,0.003391145952857385,72.59547625112712,0.0
412,-0.016512513564793777,0.0033252909203064385,72.63221836396461,0.0
413,-0.01652390478644204,0.003251472586017968,72.66860230176638,0.0
414,-0.016580941015358154,0.003162434334096409,72.7046237910706,0.0
415,-0.01669609912738267,0.0030542978597530414,72.74027855557065,0.0
416,-0.01686400575928558,0.002928068565053221,72.77556231650148,0.0
417,-0.017063842018018967,0.002789563659050937,72.81047079303109,0.0
418,-0.01726647026022922,0.0026478101897085098,72.8449997026569,0.0
419,-0.017443813635969526,0.002512423273199406,72.87914476160732,0.0
420,-0.017577548019877622,0.002390756953296064,72.91290168524804,0.0
421,-0.017664488419934964,0.002285646178035363,72.9462661884935,0.0
422,-0.017717072334082904,0.002194339221889456,72.97923398622306,0.0
423,-0.017758897801981133,0.002108843212449706,73.01180079370225,0.0
424,-0.017816989759037477,0.0020175019873228824,73.04396232700863,0.0
425,-0.01791369427034694,0.0019073226122057667,73.07571430346265,0.0
426,-0.018061180415177028,0.0017664451890668593,73.1070524420631,0.0
427,-0.018260296219901693,0.001586219639691094,73.13797246392744,0.0
428,-0.018503546430020675,0.0013625548497970983,73.16847009273664,0.0
429,-0.01878023069722468,0.001096443561765258,73.19854105518473,0.0
430,-0.019081098335359127,0.000793748844256879,73.22818108143301,0.0
431,-0.01940043756940158,0.00046441488741235976,73.2573859055685,0.0
432,-0.01973496259435629,0.00012124452675678615,73.28615126606728,0.0
433,-0.02008053416299505,-0.00022167614957169105,73.31447290626183,0.0
434,-0.020428924991624818,-0.0005508586100083862,73.34234657481305,0.0
435,-0.020766942030781506,-0.0008555058143434047,73.36976802618645,0.0
436,-0.02107909309321464,-0.0011296046003058224,73.3967330211325,0.0
437,-0.02135311665389983,-0.001373652735884203,73.42323732717136,0.0
438,-0.021586044126053645,-0.0015955602109531237,73.44927671908158,0.0
439,-0.021787944483743254,-0.0018102910660813976,73.4748469793929,0.0
440,-0.02198140194402209,-0.0020379911749699546,73.49994389888299,0.0
441,-0.02219659414483744,-0.002300651041355804,73.52456327707813,0.0
442,-0.022463606517533496,-0.0026177055324471165,73.54870092275779,0.0
443,-0.022804494940581784,-0.003001279769032462,73.57235265446279,0.0
444,-0.023227312541071004,-0.003451970358604191,73.59551430100731,0.0
445,-0.023723198657053454,-0.003956057874244739,73.61818170199447,0.0
446,-0.024266392483248748,-0.004484875910992721,73.64035070833532,0.0
447,-0.02481632402576308,-0.004996743638420069,73.66201718277142,0.0
448,-0.025321015444706652,-0.00544145160501356,73.6831770004006,0.0
449,-0.02572168033507074,-0.005766833417222679,73.70382604920619,0.0
450,-0.02595906040949944,-0.005926525026371293,73.72396023058919,0.0
451,-0.02598205364791283,-0.005887683976021437,73.74357545990365,0.0
452,-0.02575825436570848,-0.005637294144832383,73.76266766699507,0.0
453,-0.025284427305416416,-0.005185788418985405,73.78123279674152,0.0
454,-0.024593514059970515,-0.004567115477194498,73.79926680959771,0.0
455,-0.023754526469751815,-0.0038350222047422496,73.81676568214165,0.0
456,-0.02286322499826438,-0.003056100944808882,73.83372540762387,0.0
457,-0.02202457121399832,-0.0023008724371576506,73.85014199651926,0.0
458,-0.021331422249871487,-0.0016346326349141304,73.8660114770811,0.0
459,-0.02084613249471054,-0.0011098276942266203,73.88132989589737,0.0
460,-0.02059127859239605,-0.0007612964846008441,73.8960933184494,0.0
461,-0.020552431636929058,-0.0006049411720213555,73.91029782967225,0.0
462,-0.02069109342105724,-0.0006394831376210863,73.92393953451725,0.0
463,-0.020961880133481624,-0.0008502099037291101,73.93701455851622,0.0
464,-0.021326759079628634,-0.0012132443327346853,73.94951904834743,0.0
465,-0.021761155058015583,-0.001698965438873251,73.96144917240298,0.0
466,-0.022250876843190295,-0.0022737176162260656,73.97280112135783,0.0
467,-0.02278293820690831,-0.0028996734611137784,73.98357110873997,0.0
468,-0.023335535987592106,-0.0035334272426711315,73.99375537150182,0.0
469,-0.023871913028801456,-0.004124389352358674,74.00335017059267,0.0
470,-0.02434020661728256,-0.004614216765108866,74.01235179153208,0.0
471,-0.02467828298554498,-0.00493834422575999,74.02075654498402,0.0
472,-0.024820699783257513,-0.0050302446673300225,74.02856076733171,0.0
473,-0.02470519814601305,-0.0048284465626461225,74.03576082125291,0.0
474,-0.024278058129240963,-0.004285671731893221,74.04235309629563,0.0
475,-0.023499756380524595,-0.0033788237451689122,74.04833400945415,0.0
476,-0.0223530166428986,-0.0021180540272120493,74.053700005745,0.0
477,-0.020853837097330043,-0.0005528762211448922,74.05844755878294,0.0
478,-0.019063123593089277,0.001226589431374393,74.06257317135689,0.0
479,-0.01709388330960544,0.003094595641563328,74.06607337600532,0.0
480,-0.015108280404696518,0.004901315209874625,74.06894473559126,0.0
481,-0.013301013773315124,0.006489984949948112,74.07118384387674,0.0
482,-0.01186987975925439,0.0077173319916345445,74.07278732609636,0.0
483,-0.010979355725824952,0.008473944866329268,74.0737518395299,0.0
484,-0.010726516738588729,0.008700870400939,74.07407407407408,1.0
485,-0.011118996355846494,0.008399159405591257,74.06889656676097,0.0
486,-0.012071643659507652,0.007630314211865912,74.05350731233952,0.0
487,-0.013423063237248033,0.00650734845380742,74.02812728307372,0.0
488,-0.014967416931025842,0.005178034657184171,73.99298507038607,0.0
489,-0.016492872206123152,0.003803431707146131,73.94831628927348,0.0
490,-0.017817174881085793,0.0025355921478294077,73.89436298329868,0.0
491,-0.01881288989938574,0.0014982851031242156,73.8313730324462,0.0
492,-0.01941863984597842,0.0007737025959798228,73.75959956601818,0.0
493,-0.019636589119362686,0.00039670927242651334,73.67930038262396,0.0
494,-0.0195193432032835,0.0003566198946066346,73.59073737918854,0.0
495,-0.019150968562763118,0.0006051173706868404,73.49417599077069,0.0
496,-0.018627095054760588,0.001068034294321764,73.38988464284371,0.0
497,-0.018038286225864356,0.0016584393713475552,73.27813421754963,0.0
498,-0.017459328365608623,0.0022887607647235526,73.1591975352959,0.0
499,-0.016945170999810053,0.0028803742056083058,73.03334885291996,0.0
500,-0.016532429508173137,0.00336994647487568,72.90086337950517,0.0
501,-0.016244087657210412,0.0037126155953761696,72.76201681079084,0.0
502,-0.016094595728350505,0.0038826301047930256,72.61708488298191,0.0
503,-0.016093004107293595,0.00387228322317049,72.46634294662982,0.0
504,-0.016242943746779523,0.003689892487125594,72.31006556112611,0.0
505,-0.016539810618768788,0.0033573032058014478,72.14852611022692,0.0
506,-0.016966915805398514,0.002907083564827937,71.98199643890668,0.0
507,-0.01749306322815433,0.0023793632978383714,71.81074651172716,0.0
508,-0.018073641293183555,0.0018182211805674573,71.63504409280233,0.0
509,-0.018655940569427237,0.0012676465022620504,71.45515444733904,0.0
510,-0.01918762261974939,0.0007673160461626025,71.27134006464215,0.0
511,-0.01962589781730807,0.00034863693878246045,71.08386040238724,0.0
512,-0.019944656257252943,3.161199336586978e-05,70.89297165188563,0.0
513,-0.020137629110667906,-0.00017696286900781852,70.69892652399608,0.0
514,-0.020217164793177506,-0.0002836517652256099,70.50197405527355,0.0
515,-0.020209638798074605,-0.00030684508753997856,70.30235943388884,0.0
516,-0.020149283583168517,-0.00027378858880580193,70.10032384480274,0.0
517,-0.020072172260529306,-0.00021664741537342548,69.89610433363535,0.0
518,-0.020011485659372885,-0.00016819280515886206,69.6899336886343,0.0
519,-0.019994459590072202,-0.00015770352089599705,69.48204034011458,0.0
520,-0.020040850783791385,-0.00020759196978888377,69.27264827671819,0.0
521,-0.020162474772018418,-0.0003311339143633259,69.06197697782163,0.0
522,-0.020363336940688318,-0.0005315339366165283,68.85024136140612,0.0
523,-0.02064004726977782,-0.0008024143348766485,68.63765174669439,0.0
524,-0.020982490090133733,-0.001129673838323828,68.42441383085485,0.0
525,-0.021374958994718325,-0.0014945151169930772,68.21072867907127,0.0
526,-0.021798005643759274,-0.0018772787607100748,67.99679272728063,0.0
527,-0.022231052159545562,-0.002261551583116678,67.78279779688735,0.0
528,-0.02265552216356282,-0.0026378642198626573,67.56893112077216,0.0
529,-0.02305806589984017,-0.0030062018334695096,67.35537537992641,0.0
530,-0.023433457150842142,-0.0033765776844230334,67.1423087500573,0.0
531,-0.023786753712539122,-0.003767112782275559,66.92990495752706,0.0
532,-0.024134103038293612,-0.004199451347065963,66.71833334400826,0.0
533,-0.024501143210880746,-0.004691901505676253,66.507758939258,0.0
534,-0.02491768114543145,-0.0052513426766778335,66.29834254143647,0.0
535,-0.025407806807775064,-0.005865541527972086,66.09024080441868,0.0
536,-0.02597619190730789,-0.006497880203516288,65.8836063315727,0.0
537,-0.0265937823243904,-0.007086439864517791,65.67858777550279,0.0
538,-0.02718842729646902,-0.007548784935394868,65.47532994328265,0.0
539,-0.027646699337654054,-0.00779267978226986,65.27397390672893,0.0
540,-0.02783096596893211,-0.007731533585285601,65.07465711729334,0.0
541,-0.027610581442391712,-0.007301958286676178,64.87751352517743,0.0
542,-0.02689961531362071,-0.0064798547756733625,64.6826737023017,0.0
543,-0.025688990647529875,-0.0052912664334695825,64.49026496878705,0.0
544,-0.024061163180059665,-0.0038150124474926393,64.30041152263374,0.0
545,-0.022181113175144998,-0.0021757165333092005,64.11323457230948,0.0
546,-0.020265939533603377,-0.0005279020437202672,63.928852471983824,0.0
547,-0.018542544081352932,0.0009661927754132807,63.74738085917318,0.0
548,-0.017205540525511154,0.002161022405744239,63.568932794585216,0.0
549,-0.016385246058045682,0.0029498206156932496,63.39361890397716,0.0
550,-0.01613067398767265,0.0032803324776705203,63.221547521867066,0.0
551,-0.016407808529001162,0.003161495356628728,63.05282483696169,0.0
552,-0.01711081206341605,0.002660188133147782,62.88755503918818,0.0
553,-0.018082995530183284,0.0018890452331741477,62.72584046824087,0.0
554,-0.019144105594404225,0.000987885822089782,62.56778176357721,0.0
555,-0.02011979109267232,0.00010225941012714833,62.41347801581978,0.0
556,-0.020868191996134308,-0.000637175742712147,62.26302691954421,0.0
557,-0.021298505458008023,-0.0011312207341149486,62.11652492745463,0.0
558,-0.021378014930240694,-0.0013224696625792173,61.97406740597047,0.0
559,-0.02112723376745386,-0.0011985452209241423,61.83574879227053,0.0
560,-0.020606226234890782,-0.0007886669049471704,61.70166275286164,0.0
561,-0.019897265935941214,-0.00015499280519801054,61.57190234376114,0.0
562,-0.019088925203300897,0.0006192557828718821,61.446560172404304,0.0
563,-0.018264753892966223,0.0014427770639873802,61.3257285614094,0.0
564,-0.01749704798199794,0.002228442365344913,61.20949971435567,0.0
565,-0.01684412243956552,0.0029034688886207527,61.097965883751215,0.0
566,-0.0163487831637057,0.003416688142631722,60.99121954139157,0.0
567,-0.01603635446837413,0.003742541253535439,60.88935355133197,0.0
568,-0.015912051802327846,0.0038817708029845787,60.792461345721385,0.0
569,-0.01595886288239223,0.003859024029305083,60.70063710377027,0.0
570,-0.0161377519089804,0.0037177881556966826,60.61397593415027,0.0
571,-0.016391658090577035,0.0035132894846559137,60.53257406115038,0.0
572,-0.016653582624683173,0.0033042090201791307,60.456529014942284,0.0
573,-0.016857557091981955,0.0031442589407736227,60.38593982633688,0.0
574,-0.016950116202308328,0.0030747582648542934,60.32090722644468,0.0
575,-0.016899568775750523,0.0031192771317895113,60.261533851685634,0.0
576,-0.01670098078927789,0.0032811551039860975,60.2079244546286,0.0
577,-0.016376011703251803,0.0035442590727674133,60.160186121177425,0.0
578,-0.015968009356246194,0.0038768014196999575,60.11842849466021,0.0
579,-0.015533618794681438,0.004237494635423568,60.08276400742024,0.0
580,-0.01513250200704372,0.004582889280303811,60.05330812055245,0.0
581,-0.01481682199753595,0.004874524756276804,60.03017957247827,0.0
582,-0.014622183400734682,0.005084573677021078,60.01350063710333,0.0
583,-0.014561765627078919,0.0051989833956687225,60.00339739236036,0.0
584,-0.01462515532733558,0.005217656338123058,60.0,1.0
585,-0.01478255726074011,0.0051518555212812026,60.037817267358456,0.0
586,-0.014993634967426474,0.005019630756762828,60.149510827869925,0.0
587,-0.015218687341587716,0.004840489496966069,60.33282134479154,0.0
588,-0.015428940464729328,0.00463067317716826,60.58594694677969,0.0
589,-0.015612950778570632,0.004400201267260937,60.90749260627523,0.0
590,-0.015777443792283463,0.004152350926280068,61.29642709381605,0.0
591,-0.01594278043232913,0.0038855674827296886,61.752046001303945,0.0
592,-0.01613487408803835,0.0035971158938205555,62.27393957772292,0.0
593,-0.016376195654446667,0.0032872581539964,62.86196430921004,0.0
594,-0.016678356900306685,0.002962512546060924,63.51621731476541,0.0
595,-0.017037937346188792,0.002636687038187113,64.2370127288758,0.0
596,-0.017436219390477944,0.0023288703069447884,65.0248593100256,0.0
597,-0.01784274940007278,0.0020583224022899076,65.88043855474707,0.0
598,-0.01822227735267227,0.0018370841071914897,66.80458261444771,0.0
599,-0.0185444420148052,0.0016619316017772575,67.79825130973013,0.0
600,-0.018795204632102786,0.0015078417346299023,68.86250751664267,0.0
601,-0.018988249742529877,0.0013252264681883643,69.99849016328346,0.0
602,-0.019173464504357526,0.0010427304733144063,71.2073840253711,0.0
603,-0.019438684881078146,0.0005763590514229881,72.49038544794774,0.0
604,-0.01990094808776705,-0.00015574730276918854,73.84866304998346,0.0
605,-0.020685266148369505,-0.0012151629529251907,75.28331239287525,0.0
606,-0.02189266170781722,-0.0026252488251066724,76.79530351757721,0.0
607,-0.023564094127185124,-0.004357686264108172,78.38542018507536,0.0
608,-0.025651015228643773,-0.006327358187734984,80.05418960027207,0.0
609,-0.028004199835962425,-0.008398023004365521,81.80180137229691,0.0
610,-0.030388656892959845,-0.01039892664520395,83.62801448087517,0.0
611,-0.03252448472127331,-0.012149857449947203,85.53205109929353,0.0
612,-0.034144420192059086,-0.01348986358218962,87.51247629559035,0.0
613,-0.03505237909134887,-0.014303595814901166,89.56706292644523,0.0
614,-0.03516623631776307,-0.014539443917146096,91.69264149013256,0.0
615,-0.034532808459586097,-0.014215343517072602,93.88493535807021,0.0
616,-0.033311494342147766,-0.013410955227399343,96.1383827041723,0.0
617,-0.03173208508818954,-0.012248143753846847,98.44594764199122,0.0
618,-0.03003889279972068,-0.010864470107098428,100.79892459945358,0.0
619,-0.028435926077988723,-0.009386024992724083,103.18674183224036,0.0
620,-0.027046348017120785,-0.00790595802586567,105.59677219404274,0.0
621,-0.025895006926292687,-0.006473496592925631,108.01416179591395,0.0
622,-0.024916909568335508,-0.005095510346352667,110.42168988646338,0.0
623,-0.023988430635987965,-0.0037494671852672606,112.79967597695762,0.0
624,-0.02297288271071232,-0.00240375863118524,115.12595262970255,0.0
625,-0.02176871510527169,-0.001039565460530998,117.37592402733112,0.0
626,-0.020347823264127006,0.000331866199998775,119.52273094927757,0.0
627,-0.018773633744436684,0.001661398755297536,121.53754153820779,0.0
628,-0.017193550867392462,0.0028659810245723026,123.38998368106346,0.0
629,-0.015806998111224855,0.0038436862675641824,125.04872849522332,0.0
630,-0.014816982714764235,0.004496171413994841,126.48222507410736,0.0
631,-0.014377911972275741,0.004752964769705199,127.65957446808511,1.0
632,-0.014553706002098798,0.0045914675470558365,128.70328596989677,0.0
633,-0.015297498533026805,0.004047579567894016,129.75505349459212,0.0
634,-0.016458167880828004,0.0032141445128988162,130.813772989277,0.0
635,-0.01781152987982322,0.002227349158562677,131.8782654856483,0.0
636,-0.019107605854459243,0.0012440473983488958,132.9472744637758,0.0
637,-0.020121787610263304,0.0004150104545598602,134.01946339471496,0.0
638,-0.020697656822214524,-0.0001401378201271496,135.09341350073706,0.0
639,-0.020772218908604815,-0.00035117909409559315,136.1676217750667,0.0
640,-0.020379207765526035,-0.00020542725673187165,137.240499306026,0.0
641,-0.019631550535048174,0.00025515668134141046,138.31036995332522,0.0
642,-0.018688841831693035,0.0009462873033025524,139.37546942683443,0.0
643,-0.01771880581674234,0.001759670091970822,140.43394482043576,0.0
644,-0.016862550129791334,0.002582977766499412,141.4838546553895,0.0
645,-0.016211687289685816,0.003317372203615553,142.5231694889494,0.0
646,-0.01580150565544334,0.003889601840088591,143.54977314461863,0.0
647,-0.015619430088788064,0.004257383058298755,144.56146462033274,0.0
648,-0.015623608655761623,0.004408493083475517,145.55596072986768,0.0
649,-0.01576406747345757,0.004355315748691047,146.53089953078046,0.0
650,-0.015999223381004315,0.0041272112020290675,147.48384458907913,0.0
651,-0.016303311040609277,0.003762974424920835,148.4122901264776,0.0
652,-0.016664245232249,0.003304967385053047,149.31366709041941,0.0
653,-0.01707501085301694,0.0027955552357451768,150.18535017997488,0.0
654,-0.01752355665951102,0.002275575871546571,151.02466585216243,0.0
655,-0.01798587280438741,0.0017839773958775236,151.8289013231954,0.0
656,-0.018424905485343795,0.001357584368164163,152.5953145676023,0.0
657,-0.018795289316592717,0.001030168175853869,153.32114530516498,0.0
658,-0.019051714789929106,0.0008304581755890307,154.0036269512462,0.0
659,-0.019157824348267696,0.0007792541285755846,154.63999949047462,0.0
660,-0.019092953370345923,0.0008862241736641584,155.2275232171163,0.0
661,-0.018855373292401584,0.001147196428206239,155.76349326802543,0.0
662,-0.018462224427028124,0.0015427497355611477,156.2452548561395,0.0
663,-0.017947318703359923,0.0020387108704434612,156.6702190944165,0.0
664,-0.017358042052027563,0.00258883247062519,157.0358792823039,0.0
665,-0.016751821074546955,0.0031395256181881597,157.33982750972538,0.0
666,-0.016191648217280027,0.003636117335627443,157.5797714176435,0.0
667,-0.015739733029792636,0.0040297584144784356,157.75355093999823,0.0
668,-0.015448905671845859,0.004283885616768844,157.85915483972465,0.0
669,-0.015352786276354486,0.004379107727048389,157.89473684210526,1.0
670,-0.015457240270635154,0.004315581807434819,157.85053130447037,0.0
671,-0.015736367258849873,0.004112374047698114,157.72043075980972,0.0
672,-0.016135613122347254,0.0038038922627244287,157.50840146610213,0.0
673,-0.01658256151242471,0.003434100643063538,157.21863309614113,0.0
674,-0.017003208017798727,0.0030497094599778044,156.85549810978452,0.0
675,-0.017339126242077167,0.002693716044822711,156.423512058871,0.0
676,-0.017560009862048222,0.0024004783699023728,155.92729534244953,0.0
677,-0.017667274226800398,0.002192969389702185,155.37153685420722,0.0
678,-0.01768751309818007,0.0020821532482132935,154.76095988555704,0.0
679,-0.01765849092642175,0.002067785877037739,154.10029056945615,0.0
680,-0.01761338452239054,0.0021396092961549957,153.3942290739958,0.0
681,-0.0175698140793004,0.002278020443471026,152.64742368306554,0.0
682,-0.017528375864649552,0.002453829283615169,151.86444783544465,0.0
683,-0.017481570370913403,0.0026274859348675086,151.04978013458972,0.0
684,-0.01742968345375803,0.002748850063092282,150.20778728985522,0.0
685,-0.017396996112209594,0.0027588901821871685,149.34270990622173,0.0
686,-0.017440903489575915,0.0025944405014040346,148.45865100383938,0.0
687,-0.017648485703730527,0.0021963110607159243,147.55956712057375,0.0
688,-0.018119209090895327,0.0015198627869678495,146.6492618298388,0.0
689,-0.01893742680500753,0.0005460016302521291,145.73138149172325,0.0
690,-0.020142548446631717,-0.0007101667686607899,144.8094130470863,0.0
691,-0.021706660715490225,-0.0021957342829240917,143.88668366117471,0.0
692,-0.023528089671899774,-0.003823254770575546,142.96636202464364,0.0
693,-0.025444944863722396,-0.005481123351709819,142.05146112490593,0.0
694,-0.02726630405327918,-0.007049491589150485,141.14484230878077,0.0
695,-0.028812608980513042,-0.008418578357258144,140.24922046781248,0.0
696,-0.029953469255663303,-0.009505411600147989,139.3671701897943,0.0
697,-0.030631874968133237,-0.01026521692962655,138.50113273343925,0.0
698,-0.030868498146367104,-0.010694835108475112,137.65342369735336,0.0
699,-0.030746374917024588,-0.01082740211238947,136.82624126910997,0.0
700,-0.030382171386042975,-0.010719580145647872,136.02167495500095,0.0
701,-0.02989333055568309,-0.010434367743051738,135.2417147057202,0.0
702,-0.029369941756908095,-0.010023532634358016,134.48826036764444,0.0
703,-0.028857005492717663,-0.009513796466894795,133.76313140340181,0.0
704,-0.028348742056741552,-0.008900077046382151,133.06807683899726,0.0
705,-0.027793563086981173,-0.008147570941431367,132.40478540787115,0.0
706,-0.027107186443379352,-0.007202561883222956,131.77489587493005,0.0
707,-0.026191729677906422,-0.006009933965765238,131.18000753585278,0.0
708,-0.0249592184745132,-0.004533803357759608,130.621690898934,0.0
709,-0.02335759078462083,-0.0027767555527664087,130.10149856849657,0.0
710,-0.021395604085891792,-0.0007931010448069139,129.6209763606224,0.0
711,-0.01916082792366445,0.0013075660573234264,129.18167469379924,0.0
712,-0.016823681568284524,0.0033684751310652326,128.78516030925118,0.0
713,-0.014621800029650247,0.005205063908202816,128.43302838845466,0.0
714,-0.012823484037356154,0.006632738306873233,128.12691514889914,0.0
715,-0.011675665346554401,0.007497998338396865,127.86851101385207,0.0
716,-0.01134830980735244,0.0077067748445528465,127.65957446808511,1.0
717,-0.011890582758681587,0.007244008705537468,127.48066868555799,0.0
718,-0.013212386393750204,0.006180083530215333,127.31084930288887,0.0
719,-0.015098048345034058,0.004662384288070411,127.14967924834235,0.0
720,-0.017249263262983847,0.0028933772046483516,126.9967289673217,0.0
721,-0.01934550024841398,0.0010994253019547368,126.85157586211683,0.0
722,-0.021105366632815533,-0.0005036199059194208,126.71380376668637,0.0
723,-0.022333456749657556,-0.0017415898797875965,126.58300245484484,0.0
724,-0.022943169258258816,-0.0025044857498801526,126.45876718037898,0.0
725,-0.02295410077782268,-0.0027569339348660774,126.34069824775493,0.0
726,-0.022469674936672353,-0.0025358674387567317,126.22840061220695,0.0
727,-0.021644404513035023,-0.0019371509163038344,126.12148350811434,0.0
728,-0.020650156814571042,-0.0010946680430855556,126.01956010468109,0.0
729,-0.01964810293669014,-0.0001562494286341321,125.9222471880302,0.0
730,-0.01876943887448612,0.0007392760534012085,125.82916486891453,0.0
731,-0.01810495266581001,0.0014804756909254841,125.73993631532707,0.0
732,-0.017701798909559547,0.001995017561363779,125.65418750936743,0.0
733,-0.01756542652577558,0.0022539616337331468,125.57154702778759,0.0
734,-0.01766505654409781,0.0022691770163920325,125.49164584570046,0.0
735,-0.017941844316355676,0.0020853712848291775,125.41411716298734,0.0
736,-0.018319337235877704,0.001768772825979074,125.33859625298773,0.0
737,-0.0187157037891541,0.0013946686935603489,125.2647203330959,0.0
738,-0.019056475707745112,0.0010358123757198212,125.19212845692414,0.0
739,-0.019285643970915815,0.0007532507937079776,125.12046142772215,0.0
740,-0.019372560007817327,0.0005904734383090333,125.0493617327661,0.0
741,-0.019312768135867898,0.0005710760650749964,124.97847349845061,0.0
742,-0.019122666280333978,0.0006994880780645554,124.90744246582989,0.0
743,-0.018830110236095435,0.0009638610642706127,124.835915986364,0.0
744,-0.018464659066947175,0.0013400416080377158,124.76354303762957,0.0
745,-0.018051177789990724,0.0017956707227862298,124.68997425875381,0.0
746,-0.0176087945398307,0.0022937983714652476,124.61486200532518,0.0
747,-0.017154534188639933,0.0027958407028012386,124.53786042352385,0.0
748,-0.01670866910927294,0.003264081682139216,124.45862554320084,0.0
749,-0.01629809749250134,0.0036641027165274934,124.37681538961563,0.0
750,-0.015955195482238636,0.003967462567627027,124.29209011351927,0.0
751,-0.01571193374764226,0.004154685413137822,124.20411213924281,0.0
752,-0.015591391684540826,0.004218258509982059,124.11254633041985,0.0
753,-0.015600043100497861,0.004165029328064066,124.01706017293759,0.0
754,-0.015723853007105288,0.004017237739263886,123.91732397467223,0.0
755,-0.0159296114872237,0.0038114763303490617,123.81301108152321,0.0
756,-0.016170874203042467,0.0035951313684059673,123.7037981092164,0.0
757,-0.0163963335046152,0.003420262648155489,123.58936519029824,0.0
758,-0.016558061716768352,0.00333535950148981,123.46939623569432,0.0
759,-0.016617936900875242,0.0033758946437377766,123.34357921015159,0.0
760,-0.016552169012077098,0.0035550283772646627,123.2116064208317,0.0
761,-0.016355275269807526,0.0038561307350117664,123.07317481826591,0.0
762,-0.01604516850961908,0.0042289068314095134,122.92798630882515,0.0
763,-0.01566973091705032,0.00459072904730689,122.7757480778029,0.0
764,-0.015312706797935621,0.004834203875219791,122.6161729221491,0.0
765,-0.015094242687994783,0.004840998036733873,122.44897959183673,1.0
766,-0.015160666377148779,0.0045006073911137675,122.25269269743897,0.0
767,-0.01566039292624124,0.0037313201107348508,122.00741870025874,0.0
768,-0.016708051481236507,0.0024994831225217218,121.71532113646462,0.0
769,-0.018345211038400564,0.0008327476279051972,121.37864079284805,0.0
770,-0.020510510018901185,-0.0011764406143713398,120.99968032593853,0.0
771,-0.023031876995198177,-0.003379165432488066,120.58078934765933,0.0
772,-0.02564794023422374,-0.005589749940746811,120.12435010830188,0.0
773,-0.02805631030204276,-0.007613700822783599,119.63276388817508,0.0
774,-0.02997686634335958,-0.009278518664247991,119.10843818967484,0.0
775,-0.03121242534017683,-0.010460966317939985,118.55377480217831,0.0
776,-0.03168948651430727,-0.011104909238737264,117.97115879350233,0.0
777,-0.03146780977741967,-0.011225875509069935,117.36294846400749,0.0
778,-0.03071700959803343,-0.01090154044336434,116.73146628304548,0.0
779,-0.029667867666496053,-0.010250629627711092,116.0789908125352,0.0
780,-0.028552760242753553,-0.009405391972303999,115.40774960914607,0.0
781,-0.027551649110711528,-0.00848413697165621,114.71991308494336,0.0
782,-0.026757212445134407,-0.0075700431024407966,114.01758929642769,0.0
783,-0.02616615796257856,-0.006700655097291321,113.30281962366188,0.0
784,-0.02569593797225961,-0.005869709996444733,112.57757529456194,0.0
785,-0.02521955821712514,-0.005039902716229965,111.84375470434296,0.0
786,-0.024607715886704608,-0.004162673972738645,111.10318147644794,0.0
787,-0.023767481256843956,-0.0031996524893319216,110.35760320891525,0.0
788,-0.022669252119781637,-0.0021402830800468812,109.60869084892457,0.0
789,-0.021357337613509796,-0.0010113582081135674,108.85803863805835,0.0
790,-0.019943129744629817,0.00012371104495032459,108.10716457148452,0.0
791,-0.018582924939180064,0.0011755356710738346,107.35751131566805,0.0
792,-0.017445078369378437,0.0020466338890526635,106.61044753122519,0.0
793,-0.016673311849022578,0.002652282249942622,105.86726955001745,0.0
794,-0.01635425774493762,0.0029394809543649074,105.12920335843746,0.0
795,-0.01649698974721386,0.0028997329891819004,104.39740684195795,0.0
796,-0.017029848041156155,0.002572842320968257,103.67297224931484,0.0
797,-0.017815575791941096,0.002041012994591972,102.95692883809446,0.0
798,-0.018680854875822675,0.0014146761197885048,102.25024566692947,0.0
799,-0.01945246253189811,0.0008131879677670787,101.55383450292192,0.0
800,-0.019990850604096045,0.00034446035887685965,100.86855281626003,0.0
801,-0.020213378109164994,8.755000837777703e-05,100.19520683724289,0.0
802,-0.02010299633413382,8.133344019898387e-05,99.5345546540444,0.0
803,-0.019702491265741435,0.00032091515242269075,98.88730933251902,0.0
804,-0.019097993178679426,0.0007617524900315404,98.2541420421588,0.0
805,-0.018397408433170385,0.0013300188753046739,97.63568517494947,0.0
806,-0.01770943272895005,0.0019367523307358922,97.03253544634029,0.0
807,-0.01712721998703314,0.0024929752994650623,96.4452569698367,0.0
808,-0.01671841458324943,0.0029231907970685375,95.87438429885415,0.0
809,-0.01652108121489322,0.0031753062981190136,95.32042543144213,0.0
810,-0.016543846975082776,0.003225903909010366,94.78386477530832,0.0
811,-0.01676853465719765,0.0030806656179834875,94.26516607225872,0.0
812,-0.01715435712237697,0.0027705282446956947,93.76477528272837,0.0
813,-0.017643653883099998,0.0023446992921772563,93.28312343252962,0.0
814,-0.018169518631498422,0.001861979354642932,92.8206294253009,0.0
815,-0.018665205004081743,0.0013819082306419633,92.37770282541554,0.0
816,-0.01907414006750666,0.0009570968255888116,91.95474661732734,0.0
817,-0.01935835449876755,0.0006277565634188308,91.55215994849873,0.0
818,-0.019502864942484047,0.00041894603901528613,91.17034086420146,0.0
819,-0.01951441512003627,0.00034050426216954166,90.8096890436146,0.0
820,-0.019414820291476117,0.000389139107398722,90.47060854778887,0.0
821,-0.01923122625061123,0.000551799317769963,90.15351059122249,0.0
822,-0.01898691130794617,0.0008093579708700418,89.85881635002163,0.0
823,-0.018696099303330677,0.0011397902562978847,89.5869598209199,0.0
824,-0.01836454400258323,0.0015203768257977608,89.33839074683456,0.0
825,-0.017995084422273804,0.0019288819764907176,89.11357762616389,0.0
826,-0.017595125531925077,0.0023440000282714873,88.91301082471601,0.0
827,-0.017182141879972124,0.00274552401434137,88.73720581103164,0.0
828,-0.016784253633938224,0.0031146351184337478,88.58670653796418,0.0
829,-0.016435234725077467,0.003434494114232075,88.46208899574887,0.0
830,-0.016165897920262854,0.0036910550711562354,88.36396496447888,0.0
831,-0.01599548807926832,0.0038738448839273913,88.29298599696435,0.0
832,-0.01592677634243366,0.0039764414304572036,88.24984766644648,0.0
833,-0.015946980350923554,0.003996537159234093,88.23529411764706,1.0
834,-0.01603410702603254,0.0039357098593604195,88.24130526003998,0.0
835,-0.01616589756380856,0.0037992093604971664,88.2590821245066,0.0
836,-0.01632734318861344,0.0035960928050955826,88.28824645987079,0.0
837,-0.016513387426064337,0.003339855499799674,88.3284280103496,0.0
838,-0.01672573175644621,0.0030493583351391008,88.37926356052544,0.0
839,-0.016965503725328304,0.002749477669115671,88.44039602392768,0.0
840,-0.017225457487971062,0.002470664396867543,88.51147357198705,0.0
841,-0.017485426799390705,0.0022466310816762784,88.59214880047263,0.0
842,-0.017713136013112293,0.0021097427446287696,88.68207793084082,0.0
843,-0.017870292445076034,0.0020843162905053517,88.78092004422507,0.0
844,-0.017922298658886504,0.002178789896519885,88.88833634607303,0.0
845,-0.01784941928055071,0.0023784047899360746,89.0039894597001,0.0
846,-0.017657465248068438,0.002640437789474822,89.12754274727399,0.0
847,-0.017386272178657746,0.0028939648511762304,89.25865965697939,0.0
848,-0.017113944701546997,0.0030455382723064443,89.39700309533109,0.0
849,-0.016954197182451752,0.002991055139584764,89.542234823817,0.0
850,-0.017044003313629572,0.0026326509519012725,89.69401487925283,0.0
851,-0.017520205349526013,0.001897970244467883,89.85200101742387,0.0
852,-0.01848714630810274,0.0007580328662954182,90.01584817977587,0.0
853,-0.019981966587451043,-0.0007604829546399663,90.18520798309575,0.0
854,-0.02194795822125352,-0.0025721147011628677,90.35972823229669,0.0
855,-0.02422696963744673,-0.004540583263206778,90.5390524565884,0.0
856,-0.026577938704699235,-0.006497394025979343,90.72281946947659,0.0
857,-0.02872083037655765,-0.008268007953596416,90.91066295319025,0.0
858,-0.030396253286950062,-0.009700412871298523,91.10221106828716,0.0
859,-0.03142446868743948,-0.010689964413570731,91.2970860893327,0.0
860,-0.03174625906540032,-0.011194928736646712,91.49490406768574,0.0
861,-0.03143295763930282,-0.01123920196245873,91.69527452255832,0.0
862,-0.030662247015801426,-0.010901719278598596,91.8978001616409,0.0
863,-0.029666896224158145,-0.010295297247290131,92.10207663270364,0.0
864,-0.028671836237719815,-0.009540191608522538,92.3076923076923,0.0
865,-0.02783815258528909,-0.00873880181588383,92.51422810093929,0.0
866,-0.027229720453181824,-0.007957414143746675,92.72125732319802,0.0
867,-0.02681041698461955,-0.0072188339402737495,92.92834557328844,0.0
868,-0.02646993561109581,-0.0065068185532233015,93.13505066920659,0.0
869,-0.026067726693880692,-0.00578021308776548,93.34092262060179,0.0
870,-0.02548034524078872,-0.004992409859295912,93.54550364456206,0.0
871,-0.02463850158752211,-0.0041107422889662204,93.74832822666676,0.0
872,-0.023545245577013808,-0.0031308423739286875,93.94892322926626,0.0
873,-0.02227344936640408,-0.002082605309502303,94.14680804892899,0.0
874,-0.02094650796355574,-0.0010267010111659816,94.34149482495633,0.0
875,-0.019709392881605142,-4.2924685221652596e-05,94.53248870080103,0.0
876,-0.018697694866672065,0.0007864761831886738,94.71928814013786,0.0
877,-0.018010932564850687,0.001394397302919275,94.90138529922082,0.0
878,-0.017694369134446945,0.0017433397884151413,95.07826645701994,0.0
879,-0.01773170031303987,0.0018336285065353366,95.24941250446282,0.0
880,-0.01804940633041212,0.0017038314456181616,95.4142994939059,0.0
881,-0.01853194773489662,0.0014236030976967913,95.5723992497332,0.0
882,-0.019045037211964887,0.0010807762390276374,95.72318004072142,0.0
883,-0.019462197142704193,0.0007656199193383454,95.86610731451974,0.0
884,-0.01968855583994972,0.0005555667759069892,96.0006444942734,0.0
885,-0.019676235272325104,0.0005033577660003494,96.12625383706947,0.0
886,-0.019427987741665525,0.0006305939937062371,96.24239735350368,0.0
887,-0.018989237062923336,0.0009273908432827558,96.34853778725981,0.0
888,-0.018432017259583117,0.0013575247850847409,96.44413965316024,0.0
889,-0.017836195520558755,0.0018674454298171972,96.52867033168803,0.0
890,-0.01727322784317813,0.00239698898906227,96.60160121750465,0.0
891,-0.01679583763754142,0.002889625426874605,96.66240891898994,0.0
892,-0.01643441001171956,0.0033005138116136462,96.71057650532366,0.0
893,-0.01619869840180468,0.003601349596800631,96.74559479710845,0.0
894,-0.01608240621121473,0.003781756795871802,96.76696369601233,0.0
895,-0.016068416217839714,0.0038476327994456804,96.7741935483871,1.0
896,-0.01613339580561182,0.003817289220083594,96.76591258955045,0.0
897,-0.016251507405433095,0.0037164210734310504,96.74139199710099,0.0
898,-0.016397494042771084,0.003572911366877768,96.70112673568887,0.0
899,-0.01654938044709688,0.0034123029569733216,96.64562586448014,0.0
900,-0.01669068680813922,0.0032545134749865255,96.57541093993895,0.0
901,-0.01681178873092127,0.0031120894228643735,96.49101444373161,0.0
902,-0.01691010862954454,0.0029900318757486504,96.39297824276163,0.0
903,-0.016989111679849907,0.002887002737169952,96.2818520877509,0.0
904,-0.017056339728385467,0.002797550724400646,96.15819215617036,0.0
905,-0.01712079713297044,0.002714887610016089,96.02255964470329,0.0
906,-0.017190005006501485,0.002633701590634408,95.87551941580324,0.0
907,-0.017267146824213316,0.0025525169841813817,95.71763870229164,0.0
908,-0.017348929647131382,0.0024751946953441017,95.54948587333546,0.0
909,-0.017424848160102414,0.0024113066398166157,95.37162926455608,0.0
910,-0.01747825691606587,0.0023752921640592542,95.18463607445344,0.0
911,-0.0174890960851146,0.002384490835139103,94.98907132878787,0.0
912,-0.017437589741250946,0.002456316298789679,94.78549691404874,0.0
913,-0.01730803794230467,0.0026049662324667258,94.57447068065719,0.0
914,-0.017091998952006197,0.0028381388396137254,94.35654561610352,0.0
915,-0.01679050397516023,0.0031542428361175314,94.13226908780595,0.0
916,-0.01641522075699439,0.0035405498379965043,93.9021821551021,0.0
917,-0.015988589815065245,0.003972653154883118,93.66681894944423,0.0
918,-0.015542953874172493,0.004415471758549505,93.42670612156698,0.0
919,-0.015118663785538389,0.004825876631268327,93.18236235412878,0.0
920,-0.014761104561491139,0.0051568226903307346,92.93429793809824,0.0
921,-0.014516589302658214,0.0053626517993826655,92.68301441095873,0.0
922,-0.014427210784939373,0.005405009769709056,92.42900425464222,0.0
923,-0.014525066072638166,0.0052586238821534445,92.17275065097097,0.0
924,-0.014826672660018567,0.004916058539908202,91.91472729228366,0.0
925,-0.015328666369781632,0.004390549002927591,91.65539824484924,0.0
926,-0.016005855219844302,0.0037161422136860424,91.39521786262378,0.0
927,-0.016812384899463247,0.002944665226556978,91.13463074888263,0.0
928,-0.01768624241673122,0.0021394830065674247,90.8740717632587,0.0
929,-0.018556720343112457,0.0013665533474738558,90.61396607173737,0.0
930,-0.019353943014202814,0.0006838615532622611,90.35472923719584,0.0
931,-0.020019271136251033,0.00013082136862409667,90.09676734812926,0.0
932,-0.02051540108014163,-0.0002804512893022715,89.84047718327426,0.0
933,-0.020835097380489515,-0.0005700581256880446,89.58624640992296,0.0
934,-0.021007419735543296,-0.0007898475881046763,89.33445381381374,0.0
935,-0.021099824526956842,-0.0010167257589265251,89.08546955858789,0.0
936,-0.021213878723143693,-0.0013400333027239267,88.83965547291349,0.0
937,-0.021472276632106314,-0.0018445830334284379,88.59736536349672,0.0
938,-0.021996268472600902,-0.0025921996470105154,88.35894535232613,0.0
939,-0.02287577906535474,-0.003605456296493075,88.12473423662583,0.0
940,-0.024138579945374564,-0.004857440534340944,87.89506387012823,0.0
941,-0.025728019947715664,-0.006270599248736913,87.67025956441542,0.0
942,-0.027498959622548075,-0.007726022080073962,87.45064050921961,0.0
943,-0.029237617929665106,-0.009082213124890383,87.2365202107164,0.0
944,-0.03070379561636424,-0.010200004035947341,87.02820694699122,0.0
945,-0.03168592585202249,-0.010968431271174313,86.82600424000633,0.0
946,-0.03205381125296105,-0.01132571961576709,86.63021134354553,0.0
947,-0.031793094171949865,-0.011270299091381988,86.44112374676502,0.0
948,-0.03101003628186584,-0.010858948693791046,86.25903369313124,0.0
949,-0.02990375414348733,-0.010192210665700658,86.08423071468239,0.0
950,-0.02871302408768915,-0.009390364808071358,85.91700218170628,0.0
951,-0.027652888727808907,-0.008565638980228139,85.75763386808873,0.0
952,-0.026859680088917252,-0.00779729518693418,85.60641053274901,0.0
953,-0.02636030219684978,-0.007115500434293482,85.46361651774605,0.0
954,-0.026073556919733447,-0.006497673690991532,85.32953636381228,0.0
955,-0.025840973249834677,-0.005877908660152686,85.2044554442482,0.0
956,-0.02547591874069367,-0.005166935933459028,85.08866061829589,0.0
957,-0.024815724460998657,-0.0042777031256625644,84.98244090530231,0.0
958,-0.02376293578119839,-0.003150559025223448,84.8860881811831,0.0
959,-0.022307150791959485,-0.0017723905059742948,84.79989789891157,0.0
960,-0.020525564000776222,-0.0001856641920817653,84.72416983497996,0.0
961,-0.018565823309206027,0.0015143163926057473,84.65920886402061,0.0
962,-0.016617791178088624,0.0031931057950890978,84.60532576402774,0.0
963,-0.014881222110112243,0.004698787847976161,84.56283805489556,0.0
964,-0.013535035400149826,0.00588726121105282,84.53207087328266,0.0
965,-0.012711868436702582,0.006646322012032556,84.51335788713182,0.0
966,-0.012479898705260553,0.006914182693501652,84.50704225352113,1.0
967,-0.01283307808457031,0.006689269454166108,84.58728909186952,0.0
968,-0.01369088783599426,0.0060298342323150695,84.82317683964929,0.0
969,-0.014908807408271513,0.0050437963990564855,85.20858545756083,0.0
970,-0.016299890282765843,0.003870974363868463,85.73875035677604,0.0
971,-0.017665550147109,0.0026611744260180113,86.41005828700048,0.0
972,-0.018830339351791243,0.001552227411884623,87.21987444949792,0.0
973,-0.019672704677831696,0.0006518681662406265,88.16639226696289,0.0
974,-0.020143290794990755,2.6366645802290223e-05,89.2484987541123,0.0
975,-0.020265300970155192,-0.00030274442858696103,90.46564947583384,0.0
976,-0.020117012456883916,-0.0003542723219964892,91.8177477722695,0.0
977,-0.019802580045451046,-0.00017726717975455575,93.30502335799689,0.0
978,-0.01942112959760329,0.0001618713369658984,94.92790563030387,0.0
979,-0.019044139754416416,0.0005920579239229887,96.68688710230663,0.0
980,-0.018707269451584522,0.0010475791958321793,98.58237235841689,0.0
981,-0.018416827387772547,0.0014743204464800895,100.61450786196005,0.0
982,-0.01816554905424057,0.0018321940179703345,102.78298788452463,0.0
983,-0.017949458317819623,0.0020947730556456767,105.08683184421595,0.0
984,-0.017778276635543648,0.002247569147977492,107.52412852522066,0.0
985,-0.017675475860177627,0.0022862504986101793,110.09174311926604,0.0
986,-0.01766889177346691,0.0022155403680088805,112.78498392661879,0.0
987,-0.01777678401280868,0.0020488444702823467,115.59722705976205,0.0
988,-0.017995852128242812,0.0018081138391998813,118.51949981856616,0.0
989,-0.01829654752876348,0.0015232369203016605,121.54002678641307,0.0
990,-0.018627711892149408,0.0012303964315343446,124.64374736880363,0.0
991,-0.018928587460283364,0.0009692066161749454,127.81181965843554,0.0
992,-0.019143302403111868,0.0007788754871046701,131.0211332624434,0.0
993,-0.01923230668371327,0.0006939407101944634,134.24386297692308,0.0
994,-0.019177122961254404,0.0007402185612442253,137.44710554176953,0.0
995,-0.018978148361682566,0.0009315031238539702,140.59265231383108,0.0
996,-0.018648342287222903,0.0012673574265565594,143.63696014854423,0.0
997,-0.01820695546662894,0.001732166903914008,146.53138902883876,0.0
998,-0.01767653575639184,0.002295550330418009,149.2227753826295,0.0
999,-0.01708401085236923,0.0029142370061525456,151.65440160373223,0.0
1000,-0.016464080881118077,0.0035355443974437006,153.7674022373505,0.0
1001,-0.015861718917484998,0.0041025253966540075,155.5026138147715,0.0
1002,-0.015330839937290022,0.004560628210477043,156.80282865383666,0.0
1003,-0.014927881889125829,0.0048653277621049686,157.61535633310862,0.0
1004,-0.014701288565116911,0.004989732073559532,157.89473684210526,1.0
1005,-0.014679712000782002,0.004930785424403907,157.82272537140236,0.0
1006,-0.01486248138550867,0.004712537436911926,157.61048257126996,0.0
1007,-0.015215362218252678,0.004385137212418215,157.2642125898497,0.0
1008,-0.015673200786276716,0.00401877820369728,156.79072585618,0.0
1009,-0.01614933005328344,0.0036927027809674547,156.19733394585094,0.0
1010,-0.016550187401280225,0.0034804313698498274,155.49174443646805,0.0
1011,-0.01679279807937145,0.003433408007520621,154.68195800348605,0.0
1012,-0.016822616497382828,0.003566027997367369,153.77616971596558,0.0
1013,-0.016629393370856494,0.00384532445331396,152.7826761656204,0.0
1014,-0.01625879813515616,0.004188281470764181,151.70978971998983,0.0
1015,-0.01581717528251631,0.004468745493081421,150.5657608485769,0.0
1016,-0.015466269305676877,0.004534283869337937,149.35870914356641,0.0
1017,-0.015404860849352067,0.004231306138449792,148.0965633554576,0.0
1018,-0.01583608249271536,0.0034346902398018145,146.7870104966191,0.0
1019,-0.016923198087505423,0.00207652487957079,145.43745383737325,0.0
1020,-0.01874199739791635,0.00016788563548030965,144.05497943197776,0.0
1021,-0.021242500602938565,-0.0021918272212319324,142.64633066571702,0.0
1022,-0.024233742458684756,-0.004821454183499904,141.2178902073282,0.0
1023,-0.02740133322041545,-0.007480883992104646,139.77566867989646,0.0
1024,-0.030358741842937246,-0.009906838155178054,138.3252993240079,0.0
1025,-0.03272258562587206,-0.011855162467704782,136.87203791469196,0.0
1026,-0.03419359226486569,-0.01314122847288296,135.4207672037309,0.0
1027,-0.03462168498576164,-0.013670015442131075,133.97600518658177,0.0
1028,-0.03403717748059915,-0.013449448148916793,132.54191653408395,0.0
1029,-0.032639276595027716,-0.012584196057896383,131.1223265793893,0.0
1030,-0.030745022287508934,-0.011251518478926761,129.72073730674535,0.0
1031,-0.02871270963890045,-0.009664760266976873,128.34034484801802,0.0
1032,-0.026860455999868554,-0.008032737420650402,126.98405805283296,0.0
1033,-0.025401080652005317,-0.006523847455415622,125.65451775711779,0.0
1034,-0.024408963061883237,-0.005242195275436118,124.354116431278,0.0
1035,-0.023824896295568127,-0.0042198117803960294,123.08501794226906,0.0
1036,-0.023494122980335173,-0.0034250522487395962,121.84917721281623,0.0
1037,-0.02322395524745683,-0.002783544835247637,120.64835960563694,0.0
1038,-0.022843186597155465,-0.0022055265859763835,119.48415990062398,0.0
1039,-0.022246946884374588,-0.0016125854976376574,118.35802076861272,0.0
1040,-0.02141686094718654,-0.0009577582786094033,117.27125067677315,0.0
1041,-0.020414883250686744,-0.00023519298065245698,116.2250411881259,0.0
1042,-0.01935694952160329,0.0005215413948256946,115.22048364153628,0.0
1043,-0.018377199332460663,0.0012507085040299997,114.25858521918026,0.0
1044,-0.017594017697713786,0.001879513392282477,113.34028442632167,0.0
1045,-0.017086116385409002,0.0023425570943545254,112.46646602371179,0.0
1046,-0.016882014265195477,0.0025974406158985257,111.63797546644676,0.0
1047,-0.01696161830597372,0.002634480023084681,110.85563291511154,0.0
1048,-0.017265778896540043,0.002479090471458214,110.12024689591283,0.0
1049,-0.017709314110430995,0.0021870192220617077,109.43262769666043,0.0
1050,-0.01819449154213203,0.0018339392756180973,108.79360059529346,0.0
1051,-0.018623948843829383,0.0015017766598083959,108.20401902756629,0.0
1052,-0.018913176039670358,0.0012644834345190905,107.66477781091561,0.0
1053,-0.019002407805858785,0.0011758220694819493,107.17682655284712,0.0
1054,-0.018866526224369344,0.0012611819647943636,106.74118338486474,0.0
1055,-0.018520431139762445,0.0015146198578138807,106.35894917751044,0.0
1056,-0.01801732347528438,0.0019013388605491157,106.0313224090479,0.0
1057,-0.01743885576175247,0.002364853141814717,105.75961488034635,0.0
1058,-0.01687866244241857,0.002837293935649328,105.54526849234969,0.0
1059,-0.016423274899558096,0.00325084595892121,105.38987333103867,0.0
1060,-0.016135635784753154,0.003548251276453425,105.29518733908284,0.0
1061,-0.01604565784162456,0.0036906778806287802,105.26315789473685,1.0
1062,-0.016149749812065933,0.003661919624426033,105.30954079877647,0.0
1063,-0.0164180501348928,0.003468694249756207,105.44593348286975,0.0
1064,-0.016805690458680737,0.0031375372201477725,105.66851509550216,0.0
1065,-0.017263751960389657,0.0027092917514879087,105.9738298079289,0.0
1066,-0.017746746468638046,0.002232397189351954,106.35872670424041,0.0
1067,-0.018215662729239652,0.0017561041122215607,106.82030520087201,0.0
1068,-0.018637749820186227,0.001324493374212237,107.3558648111332,0.0
1069,-0.018985386757694518,0.0009718695648971694,107.96285825867486,0.0
1070,-0.019236256952124258,0.0007198321540208165,108.63884709794917,0.0
1071,-0.019375797690409362,0.000576137495564966,109.38145912811369,0.0
1072,-0.019401149093943512,0.0005353317649151977,110.18834699632349,0.0
1073,-0.019324432526330686,0.0005810081781582942,111.05714748259673,0.0
1074,-0.019172886524284786,0.0006893799783031737,111.9854410462132,0.0
1075,-0.018984433235310186,0.0008336632526085023,112.97071129707113,0.0
1076,-0.018799215239793995,0.0009885798681735238,114.01030413827488,0.0
1077,-0.018649599982666396,0.0011341999881390014,115.10138641179725,0.0
1078,-0.018552129464776645,0.0012584166202647888,116.24090397040318,0.0
1079,-0.01850438864827517,0.0013576046539661725,117.42553919890449,0.0
1080,-0.018487971598978106,0.0014354186728431067,118.65166811869011,0.0
1081,-0.01847642051207823,0.0015001225204448075,119.91531733340238,0.0
1082,-0.018445186050332227,0.001561189824917008,121.21212121212122,0.0
1083,-0.018380053060075424,0.0016260623579929202,122.53727986027495,0.0
1084,-0.018281278766200573,0.0016978591063664043,123.88551859754263,0.0
1085,-0.018162466933379584,0.0017745287429377188,125.25104984480556,0.0
1086,-0.01804513365773642,0.001849531559955703,126.6275385157054,0.0
1087,-0.01795122982729206,0.0019137504763222075,128.00807220755527,0.0
1088,-0.01789619691099504,0.001958072936519031,129.38513768389288,0.0
1089,-0.017884560099635398,0.0019760114678430245,130.75060532687652,0.0
1090,-0.01790901288953719,0.0019658285080592216,132.095723399172,0.0
1091,-0.017952848594339536,0.001931833120033547,133.41112407623493,0.0
1092,-0.017994731662341466,0.001884729516311874,134.68684327256597,0.0
1093,-0.01801429019010172,0.001841037164864944,135.91235626912436,0.0
1094,-0.01799686212034275,0.0018216301787280286,137.07663103207113,0.0
1095,-0.017935947540382285,0.0018493804812867972,138.16820087427453,0.0
1096,-0.017832561362503684,0.0019458114976458791,139.17525773195877,0.0
1097,-0.017691776308545723,0.002126682782661186,140.08576679599756,0.0
1098,-0.01751813529968578,0.002396622833452991,140.88760254513505,0.0
1099,-0.017312806970159158,0.0027433360389419134,141.56870538239295,0.0
1100,-0.01707561289947645,0.0031324584523953324,142.11725709550444,0.0
1101,-0.01681371342694088,0.0035046462990712653,142.52187228279686,0.0
1102,-0.016555727743883038,0.0037767005555311185,142.77180175978847,0.0
1103,-0.016366251360943464,0.003848220972021435,142.85714285714286,1.0
1104,-0.01635284278316733,0.0036143215080098766,142.8479097585297,0.0
1105,-0.016657516748157478,0.0029834162046806266,142.82046672968036,0.0
1106,-0.017428755954273813,0.0018973381691863047,142.77520817945356,0.0
1107,-0.018777505749278514,0.0003496147191764127,142.71254107586844,0.0
1108,-0.02072902757686828,-0.001602841162037879,142.63288396398053,0.0
1109,-0.023188006564881035,-0.0038386480560769,142.53666598632628,0.0
1110,-0.02593340620671014,-0.0061834731292486666,142.4243259094233,0.0
1111,-0.028651102021646627,-0.008433193577328055,142.29631115963397,0.0
1112,-0.030998850284069547,-0.010384670643634658,142.1530768715156,0.0
1113,-0.03268521338394031,-0.011867828061201234,141.99508495157988,0.0
1114,-0.0335375875734971,-0.012772014971496234,141.8228031601824,0.0
1115,-0.03353760101026796,-0.013060802704731124,141.63670421404987,0.0
1116,-0.03281358649468874,-0.01277214807655535,141.43726491174255,0.0
1117,-0.03159466610067687,-0.012004471473285094,141.22496528412958,0.0
1118,-0.03014321454806306,-0.010892603116122293,141.00028777174387,0.0
1119,-0.028687765151763696,-0.009579783633157191,140.7637164306654,0.0
1120,-0.027375705437058945,-0.008192389371483946,140.51573616837314,0.0
1121,-0.026256446324869665,-0.006822760043927969,140.25683201079772,0.0
1122,-0.02529498244797528,-0.005522927238571593,139.9874884016066,0.0
1123,-0.024406755092619012,-0.004308996213084894,139.708188534558,0.0
1124,-0.02350002836849235,-0.0031732923732616302,139.4194137195732,0.0
1125,-0.02251226359064013,-0.00209981194120601,139.12164278299826,0.0
1126,-0.02143119473826572,-0.001078303231048214,138.81535150235453,0.0
1127,-0.020297394608475697,-0.00011333254570195656,138.50101207571964,0.0
1128,-0.019190839633413035,0.0007734793131348896,138.1790926257277,0.0
1129,-0.018207739601117306,0.0015478156195755702,137.85005673803803,0.0
1130,-0.017435162968513843,0.0021716763258100248,137.51436303399268,0.0
1131,-0.016930135391063424,0.002614123067239736,137.17246477706192,0.0
1132,-0.016707695884405387,0.002860720030588082,136.82480951257,0.0
1133,-0.016739603887288772,0.0029192843518439176,136.4718387400933,0.0
1134,-0.016962607942982332,0.0028207008118319135,136.11398761783653,0.0
1135,-0.017292988928763988,0.0026148386075139523,135.75168469821324,0.0
1136,-0.017643023555243876,0.002362709425582501,135.3853516937901,0.0
1137,-0.017935363864974886,0.002126703343154376,135.01540327269427,0.0
1138,-0.01811285489360865,0.001960945389261712,134.64224688253486,0.0
1139,-0.018143247297666656,0.0019035721382038742,134.26628260184756,0.0
1140,-0.018019697205984817,0.001972164350030828,133.88790301803994,0.0
1141,-0.017758382099763766,0.0021628547996909745,133.5074931307883,0.0
1142,-0.017394183804466834,0.0024529171691746684,133.1254302798219,0.0
1143,-0.016974834737548104,0.002806052680506516,132.7420840960173,0.0
1144,-0.016553748909116525,0.0031792019946677765,132.3578164747229,0.0
1145,-0.016182076506173433,0.0035295568061426445,131.9729815702346,0.0
1146,-0.015901052874601675,0.003820531805771136,131.5879258103504,0.0
1147,-0.01573609742981418,0.004025757489752152,131.20298792994464,0.0
1148,-0.0156941162097842,0.004130612730899758,130.81849902251724,0.0
1149,-0.015764959617549795,0.004131349721766,130.43478260869566,1.0
1150,-0.015926973691884,0.004032368374418813,130.01956906162445,0.0
1151,-0.016155251363032287,0.003842564306856865,129.54250568336425,0.0
1152,-0.016430034611347514,0.0035718178366587277,129.0068677573606,0.0
1153,-0.016742385838406613,0.0032285730799763066,128.4160185848672,0.0
1154,-0.017095107912433235,0.0028191038414679373,127.77338366757655,0.0
1155,-0.01749867487492155,0.002348567449293108,127.08242610411924,0.0
1156,-0.017963807208684637,0.0018234401255412683,126.34662341963086,0.0
1157,-0.018493423529863637,0.0012545409885680518,125.56944600271349,0.0
1158,-0.01907665779812501,0.0006596821877496282,124.75433728031464,0.0
1159,-0.019686682561105902,6.506241392237138e-05,123.90469571933811,0.0
1160,-0.02028275926010199,-0.0004951851813074105,123.02385870501499,0.0
1161,-0.020815730141267544,-0.0009814578610934696,122.11508831082293,0.0
1162,-0.021235374980019543,-0.00135288532930638,121.18155894346901,0.0
1163,-0.021497833662080048,-0.0015726257819965912,120.2263468193892,0.0
1164,-0.02157164882179071,-0.0016133845771635993,119.25242120644535,0.0
1165,-0.021441706916165343,-0.0014622186138540136,118.26263734596091,0.0
1166,-0.02111107235380952,-0.0011237764195842583,117.25973095575651,0.0
1167,-0.020601078859076652,-0.0006213333603029193,116.24631420416873,0.0
1168,-0.01994999420433199,4.721642362645129e-06,115.22487303783399,0.0
1169,-0.019210314640617347,0.0007009390414123172,114.19776574193068,0.0
1170,-0.018444545187672228,0.0014070145162360585,113.16722261020753,0.0
1171,-0.01771932517134004,0.0020633928413999036,112.13534660308784,0.0
1172,-0.017097980316210494,0.0026192038810764233,111.10411487504358,0.0
1173,-0.01663200519901042,0.003039272194242951,110.07538105690735,0.0
1174,-0.016352558621857086,0.003308933661913462,109.05087818449121,0.0
1175,-0.016263646588500456,0.0034356214937870167,108.03222217149428,0.0
1176,-0.016339022271656067,0.003446664303349366,107.02091573192855,0.0
1177,-0.01652467281959021,0.003383425112337816,106.01835266492719,0.0
1178,-0.016747877155658328,0.0032926875211310527,105.02582242261576,0.0
1179,-0.016932163896522957,0.0032168920642928313,104.04451488954736,0.0
1180,-0.017015372748994912,0.0031852490151095727,103.07552530988589,0.0
1181,-0.016966184089747188,0.0032077438938289534,102.11985930595512,0.0
1182,-0.016793934589114493,0.0032735399454102932,101.1784379388649,0.0
1183,-0.01654794406622222,0.003354330571470817,100.25210276862197,0.0
1184,-0.016305687965426648,0.003412002443643142,99.3416208773825,0.0
1185,-0.016152763712892763,0.003408830614132619,98.44768982528525,0.0
1186,-0.016160213251529696,0.003317653375600416,97.57094251360601,0.0
1187,-0.016365426811847366,0.003129309267660251,96.71195193479417,0.0
1188,-0.016761611394585797,0.002855158453241456,95.87123579330392,0.0
1189,-0.017298459334410887,0.0025236707706728914,95.04926098503155,0.0
1190,-0.017894091918728813,0.0021715880007871597,94.24644792663828,0.0
1191,-0.0184560668402658,0.001831688660083498,93.46317472910462,0.0
1192,-0.018907296347614882,0.0015203013339816602,92.69978121255303,0.0
1193,-0.019211149995683977,0.0012280965523169107,91.95657276172543,0.0
1194,-0.019389132915373246,0.0009171638646458848,91.23382402353782,0.0
1195,-0.019524953443292525,0.0005259953028911764,90.53178244989243,0.0
1196,-0.019751095941968097,-1.797101466283332e-05,89.85067169043359,0.0
1197,-0.02021827892708857,-0.0007806707472048967,89.19069484122139,0.0
1198,-0.021053662343438084,-0.0018026478149930471,88.55203755639374,0.0
1199,-0.02231872238373836,-0.0030839335465651773,87.93487103081826,0.0
1200,-0.02398012129388058,-0.004576749022520206,87.33935486252942,0.0
1201,-0.025904778075771896,-0.0061884758452519706,86.76563980442592,0.0
1202,-0.027883396296070905,-0.007794827345802504,86.21387041528875,0.0
1203,-0.029677032576001943,-0.009260523231648662,85.68418762069915,0.0
1204,-0.031072847461395745,-0.010462763949355197,85.17673119490087,0.0
1205,-0.03193180083382537,-0.011312000764243664,84.6916421750856,0.0
1206,-0.03221427343442849,-0.011765146557511841,84.2290652200037,0.0
1207,-0.031977804300700706,-0.011828294184485253,83.78915092522583,0.0
1208,-0.03135056476260647,-0.011548668040915549,83.3720581078294,0.0
1209,-0.03049098784280428,-0.010998206874660046,82.97795607376763,0.0
1210,-0.02954604879143648,-0.01025316903864066,82.60702688171759,0.0
1211,-0.028618416156196154,-0.009374990923823098,82.25946761781643,0.0
1212,-0.027748203153914835,-0.008397162512693925,81.93549269639524,0.0
1213,-0.026910749219518682,-0.007321283013748337,81.63533620263117,0.0
1214,-0.026029063503095806,-0.006123145266979848,81.35925429397936,0.0
1215,-0.02499808578333469,-0.004767222438038789,81.10752767834094,0.0
1216,-0.023716752333044593,-0.003225855337677963,80.88046418819337,0.0
1217,-0.022122259373532373,-0.0014982250448995439,80.6784014713908,0.0
1218,-0.020219170669323723,0.0003758791809131902,80.50170982105851,0.0
1219,-0.01809530080911171,0.002311386041063691,80.35079516900053,0.0
1220,-0.015917920831623078,0.004184200231746154,80.2261022693551,0.0
1221,-0.013908254010008851,0.005847682786083822,80.12811810191391,0.0
1222,-0.012298549099410685,0.007156196827750209,80.05737552763702,0.0
1223,-0.011282072675314666,0.007990812675202574,80.01445723249999,0.0
1224,-0.010969582976302688,0.008281657603053775,80.0,1.0
1225,-0.01136452811392245,0.00802208574442886,80.05663947553016,0.0
1226,-0.012363532050194042,0.007271654017116138,80.22344487290535,0.0
1227,-0.013780854440633018,0.006147352479010276,80.49636745784213,0.0
1228,-0.015388564343813351,0.0048050306920931415,80.87209360231536,0.0
1229,-0.016960700810886235,0.0034148903489592403,81.34794318411173,0.0
1230,-0.018310521905940617,0.002135871625116686,81.92178168960656,0.0
1231,-0.01931400565788535,0.0010936194224789155,82.5919427437833,0.0
1232,-0.019917907611394146,0.00036562771779400527,83.35715833313465,0.0
1233,-0.02013480631066197,-2.4524259684870258e-05,84.21649438586186,0.0
1234,-0.02002953590747515,-0.00010378398709167446,85.16928966325757,0.0
1235,-0.019701293877324246,6.13402585551019e-05,86.21509612143522,0.0
1236,-0.019264492820547915,0.00038060816653388526,87.35361904300537,0.0
1237,-0.018830272647593228,0.000757506456622958,88.58465532945732,0.0
1238,-0.01849019817148837,0.0011052113695259522,89.90802840018306,0.0
1239,-0.018303934883238525,0.001358557859470126,91.32351817556574,0.0
1240,-0.01829293268196815,0.0014805100340254701,92.83078464169881,0.0
1241,-0.0184416363060046,0.001462780174606072,94.42928351652073,0.0
1242,-0.01870624453675493,0.0013213469365832603,96.11817257685125,0.0
1243,-0.01902896044184201,0.0010884820488774641,97.89620728130582,0.0
1244,-0.019353861174204283,0.0008033623562252721,99.76162445737744,0.0
1245,-0.01963986534091112,0.0005033536170874124,101.71201303856218,0.0
1246,-0.01986727479993384,0.0002176360736636301,103.74417117057622,0.0
1247,-0.020036748487226134,-3.587509697420551e-05,105.8539494905965,0.0
1248,-0.02016232504597946,-0.00025019269377924574,108.0360810602337,0.0
1249,-0.02026199285680287,-0.00042613303122455396,110.28399934393317,0.0
1250,-0.02034950275549209,-0.0005675533727531249,112.58964681066145,0.0
1251,-0.020429720035182435,-0.000676316869355029,114.94327823204311,0.0
1252,-0.0204977145501692,-0.0007482724694383841,117.33326457326231,0.0
1253,-0.02054015559099334,-0.0007712315906960427,119.74590551612815,0.0
1254,-0.02053720216998137,-0.0007254782078477967,122.16526106786193,0.0
1255,-0.02046397653137262,-0.0005868434778256155,124.57301528781771,0.0
1256,-0.020292157351974555,-0.0003318698244521816,126.94838772579018,0.0
1257,-0.01999319838493185,5.586727593272979e-05,129.26811043807868,0.0
1258,-0.01954441700106183,0.0005795602245514573,131.50649006190713,0.0
1259,-0.018937676246717695,0.0012245384072147993,133.63557492527374,0.0
1260,-0.018188358395087235,0.001956552034787876,135.62544602577614,0.0
1261,-0.017340954157416617,0.0027239021364819714,137.4446474017675,0.0
1262,-0.016467784882678114,0.0034636317271817827,139.06076550154046,0.0
1263,-0.015659278164560128,0.004111082565316018,140.44115839656803,0.0
1264,-0.015007111607218607,0.004611209803574973,141.55382419161205,0.0
1265,-0.014584229652616607,0.004929369773074696,142.3683843355922,0.0
1266,-0.014427145218209493,0.005059068866205467,142.85714285714286,1.0
1267,-0.014525563472386255,0.005024509411262101,143.17221501880135,0.0
1268,-0.014822435811524063,0.004876681713746958,143.4822982863999,0.0
1269,-0.015224835614124004,0.004683075770326459,143.7872327718365,0.0
1270,-0.01562347012117919,0.004512552499433391,144.08685787222237,0.0
1271,-0.015916896971304748,0.004418197593794242,144.38101236696363,0.0
1272,-0.016035824944246786,0.004421771357604801,144.66953451843642,0.0
1273,-0.015963023929291414,0.004503437756322388,144.95226217622204,0.0
1274,-0.015744932575182967,0.00459971244699372,145.22903288486035,0.0
1275,-0.015491779637100345,0.004611084339326841,145.49968399506977,0.0
1276,-0.015364072502963481,0.0044187787631569135,145.76405277837375,0.0
1277,-0.015545126328561722,0.003908026828171094,146.02197654506384,0.0
1278,-0.016202312187144786,0.0029934538713628223,146.27329276542022,0.0
1279,-0.017443686304516565,0.001641259845074981,146.51783919409962,0.0
1280,-0.0192804369486332,-0.0001169304145302349,146.7554539975923,0.0
1281,-0.021607139546234236,-0.0021822267140488042,146.98597588463795,0.0
1282,-0.02420922591979888,-0.004399864993882638,147.20924423948105,0.0
1283,-0.026799916737492824,-0.006582108269640518,147.42509925783568,0.0
1284,-0.029079124857904634,-0.008538226162931789,147.6333820854194,0.0
1285,-0.03079843083355101,-0.010105374368613489,147.8339349589054,0.0
1286,-0.0318130855812429,-0.011173910461832453,148.02660134913165,0.0
1287,-0.03210586584999932,-0.011701969724902301,148.21122610639614,0.0
1288,-0.03177709378658779,-0.011716650418354076,148.38765560765592,0.0
1289,-0.031006383936176826,-0.011302242272353559,148.55573790543858,0.0
1290,-0.030000239771518385,-0.010578761894270351,148.7153228782651,0.0
1291,-0.028942367126809965,-0.009675939080167935,148.86626238237224,0.0
1292,-0.027959968722433722,-0.008708348814441685,149.00841040451417,0.0
1293,-0.027111490179801436,-0.007756617618757291,149.14162321561412,0.0
1294,-0.026393081086009455,-0.006857896288902703,149.2657595250277,0.0
1295,-0.02575596418668757,-0.006006608893216693,149.38068063517085,0.0
1296,-0.02512654293770686,-0.005164383695003866,149.4862505962587,0.0
1297,-0.024424366660716523,-0.004276433130921018,149.58233636089366,0.0
1298,-0.02357721971957629,-0.0032906784326621587,149.66880793823367,0.0
1299,-0.022534910443402573,-0.002175651231282203,149.74553854746637,0.0
1300,-0.02128274809246099,-0.0009335943727642757,149.81240477030923,0.0
1301,-0.019853112233089082,0.0003938708140592776,149.86928670224916,0.0
1302,-0.018330949552437054,0.0017287684494136182,149.91606810223382,0.0
1303,-0.016848358453757283,0.0029681062056813546,149.9526365405206,0.0
1304,-0.015565501627789703,0.004001496622468669,149.9788835443874,0.0
1305,-0.01463946347426054,0.004731663436219398,149.99470474140918,0.0
1306,-0.014187740053158935,0.0050936737467114045,150.0,1.0
1307,-0.014256604482538805,0.0050688235472518125,149.9449112985537,0.0
1308,-0.01480469424345901,0.004690104123516042,149.78258455795196,0.0
1309,-0.015708168510334245,0.0040379212297599505,149.51774629238676,0.0
1310,-0.016786918122996725,0.0032268399189955234,149.15549525750518,0.0
1311,-0.0178443299734712,0.0023860743977976084,148.70123824597337,0.0
1312,-0.01870895148100963,0.0016377479923867038,148.16062645266427,0.0
1313,-0.01926665956332275,0.0010772988434344776,147.53949351055314,0.0
1314,-0.019476097064578844,0.0007597515840004493,146.8437961530088,0.0
1315,-0.019366054941931738,0.0006941310409743601,146.07955830048707,0.0
1316,-0.01901866289606818,0.0008464651047677559,145.25281920698436,0.0
1317,-0.018545072313547677,0.0011500711412856704,144.36958614051971,0.0
1318,-0.018060474592177987,0.0015205298809412872,143.43579191787984,0.0
1319,-0.0176635514547969,0.0018721443976045973,142.45725747124632,0.0
1320,-0.017422969239883415,0.002132788977809019,141.43965949632886,0.0
1321,-0.01737130879745555,0.0022547398519567764,140.38850312033048,0.0
1322,-0.01750541630978851,0.0022201154390137897,139.30909943452994,0.0
1323,-0.017791640928361566,0.0020406815482082816,138.20654766066465,0.0
1324,-0.01817449663295481,0.0017527746816103375,137.08572166208452,0.0
1325,-0.018587465843268005,0.001408810727407586,135.95126046872372,0.0
1326,-0.018964561082974896,0.0010672028263047947,134.80756245779878,0.0
1327,-0.019250879139995604,0.0007825103978742345,133.65878281803458,0.0
1328,-0.01941017225920817,0.0005973397559593123,132.5088339222615,0.0
1329,-0.019427970174821486,0.0005370149612418779,131.36138823952052,0.0
1330,-0.019310106654301617,0.0006074548145437168,130.2198834315173,0.0
1331,-0.01907804342344127,0.0007961428852478906,129.08752929766428,0.0
1332,-0.01876323620447741,0.0010756484846044766,127.9673162564961,0.0
1333,-0.018402409388499914,0.001408889287420882,126.86202507756913,0.0
1334,-0.01803426021645433,0.0017552169708533434,125.77423760589855,0.0
1335,-0.017696732961557268,0.0020764215876135405,124.70634824958259,0.0
1336,-0.01742356254690587,0.0023418485973889912,123.66057602973054,0.0
1337,-0.017239606063813646,0.002531979873057213,122.63897701955037,0.0
1338,-0.01715597476436817,0.0026400425391249847,121.64345702601396,0.0
1339,-0.01716706071625815,0.002671481503450387,120.67578439259854,0.0
1340,-0.017251396667481596,0.0026414542199869446,119.73760282500378,0.0
1341,-0.01737688507989895,0.002570841637730673,118.83044416338069,0.0
1342,-0.017509053973733313,0.002481551404953544,117.9557410444622,0.0
1343,-0.017619667365901488,0.002392043725177367,117.11483941511213,0.0
1344,-0.017692898253839514,0.0023139828411425463,116.30901087531487,0.0
1345,-0.017727337609988267,0.0022506981281840213,115.53946484365278,0.0
1346,-0.017733752390836566,0.0021977692118538,114.8073605520414,0.0
1347,-0.017729919329608067,0.0021456084919852323,114.11381888910925,0.0
1348,-0.017734496162994304,0.002083494068864801,113.45993412333802,0.0
1349,-0.01776166892905425,0.002004185959291648,112.8467855481505,0.0
1350,-0.01781755904710992,0.0019080902052092728,112.27544910179641,0.0
1351,-0.017898560848697048,0.0018059404302877124,111.74700902539705,0.0
1352,-0.01799127788033459,0.001719143680216407,111.26256963314839,0.0
1353,-0.018073669941022035,0.001677273278503331,110.82326727974258,0.0
1354,-0.01811731588009165,0.0017126629596678276,110.4302826218743,0.0
1355,-0.018091095311272634,0.0018526258315709194,110.0848532836054,0.0
1356,-0.017966816389548237,0.0021104243256516515,109.7882870497663,0.0
1357,-0.017727144336335116,0.0024766527156327364,109.54197572793429,0.0
1358,-0.01737549624198337,0.0029130281555549515,109.34740983836409,0.0
1359,-0.016946376280138696,0.0033505745223359543,109.2061943131825,0.0
1360,-0.016513167210203093,0.003693711921048969,109.12006541191798,0.0
1361,-0.016189240243059042,0.0038308047546603166,109.09090909090908,1.0
1362,-0.016118263214045202,0.003650375968163249,109.23651288469682,0.0
1363,-0.01645156826338398,0.0030607168491379724,109.66274653197225,0.0
1364,-0.017314494591106896,0.00200937991622742,110.35658786464022,0.0
1365,-0.018768719784770346,0.0004984355319535348,111.308235748335,0.0
1366,-0.02078165491574165,-0.001408297697136299,112.5105038380316,0.0
1367,-0.023214651428988233,-0.003588494705228951,113.95830849571027,0.0
1368,-0.025837670186891103,-0.00587534455766176,115.6482171013088,0.0
1369,-0.028369889288769195,-0.008080218431717953,117.57802915737257,0.0
1370,-0.03053641407036628,-0.01001976598117877,119.74636649572419,0.0
1371,-0.03212479065030444,-0.011542086962788575,122.15225123948868,0.0
1372,-0.03302444782887792,-0.01254679763973941,124.794651478265,0.0
1373,-0.03323798183201829,-0.01299526440340961,127.67197532072274,0.0
1374,-0.032863041626596805,-0.012909602863695399,130.78149453485744,0.0
1375,-0.03205346710293015,-0.012361583852737104,134.1186798674915,0.0
1376,-0.030974346845248548,-0.011454662596744103,137.67643196321356,0.0
1377,-0.02976559929173228,-0.010303457054829428,141.44419535641174,0.0
1378,-0.02852303688942157,-0.0090149772442495,145.4069492654649,0.0
1379,-0.027297620859668588,-0.007674920273420683,149.5440790513966,0.0
1380,-0.02610673543574506,-0.0063408002092674495,153.82814752341898,0.0
1381,-0.024948724104702683,-0.005042046455528858,158.22360704785763,0.0
1382,-0.023814027380231795,-0.003785855062191098,162.68552253028747,0.0
1383,-0.02269096338763285,-0.0025667124532998886,167.15841173978626,0.0
1384,-0.02156842344994349,-0.0013771549338189952,171.5753513413893,0.0
1385,-0.0204392732477174,-0.00021739916129816933,175.85753990702707,0.0
1386,-0.019306694095335454,0.0008981254791259915,179.91454496957738,0.0
1387,-0.01819241761936815,0.0019386692210393948,183.64547769954618,0.0
1388,-0.017142871452489983,0.002859968573524143,186.94132055166438,0.0
1389,-0.016228365788015457,0.0036114919984757436,189.68856420318934,0.0
1390,-0.015532252521941698,0.004146681165995671,191.77417883945859,0.0
1391,-0.01513088022112589,0.004433965964124526,193.09175169195368,0.0
1392,-0.015069555292134062,0.0044659650161553025,193.5483870967742,1.0
1393,-0.01534261296574382,0.0042645010616502044,193.40891323981185,0.0
1394,-0.015885553311201926,0.0038798985069384336,192.99613597881302,0.0
1395,-0.016583685299205227,0.003384339194204791,192.32015979954969,0.0
1396,-0.01729605104205992,0.002860512437908611,191.39306430057454,0.0
1397,-0.01788785158906689,0.0023880027926045655,190.2286205003682,0.0
1398,-0.01826146281774684,0.0020304543653850192,188.8419893558451,0.0
1399,-0.01837663701434897,0.0018263429330011964,187.2494130395521,0.0
1400,-0.018254273783455413,0.00178522617387465,185.46790877139108,0.0
1401,-0.017963607201426805,0.0018899081379859222,183.51497384766716,0.0
1402,-0.017597794523483437,0.0021034686635581458,181.408309079067,0.0
1403,-0.01724609513650268,0.0023789994165014272,179.16556626506753,0.0
1404,-0.01697126367669001,0.00266945299907549,176.80412371134022,0.0
1405,-0.016798472918615973,0.002935328126310527,174.34089223774012,0.0
1406,-0.016717869052175403,0.00314882630602122,171.79215270413573,0.0
1407,-0.016698201765740148,0.0032942963353112154,169.17342485248446,0.0
1408,-0.016705482584288254,0.0033658484353034346,166.49936625605653,0.0
1409,-0.01671946800413334,0.0033636571160966977,163.78369939017904,0.0
1410,-0.016742188020866088,0.0032905351299775975,161.03916428655268,0.0
1411,-0.016796058172275332,0.00314990567767408,158.27749388627151,0.0
1412,-0.016913064105200545,0.0029455472896579007,155.50940903849812,0.0
1413,-0.0171197306909466,0.002682732056686562,152.74463007159903,0.0
1414,-0.01742399375712022,0.0023698859991153746,149.99190195972574,0.0
1415,-0.0178091625543954,0.002019810119479336,147.2590302899702,0.0
1416,-0.01823720251465558,0.0016497900636657735,144.5529254758727,0.0
1417,-0.01865974802025031,0.0012804309507653561,141.879652938587,0.0
1418,-0.019032191372706033,0.0009335566932423429,139.2444872679979,0.0
1419,-0.019325199265451298,0.0006298131953787623,136.65196866732373,0.0
1420,-0.01952943126581911,0.0003866188245394359,134.10596026490066,0.0
1421,-0.01965232800111445,0.00021685191901979841,131.60970513807305,0.0
1422,-0.019709192034096275,0.0001282967520023215,129.16588213142535,0.0
1423,-0.019713013614853274,0.00012356517094014644,126.77665976236078,0.0
1424,-0.019667761595440925,0.00020010660075080872,124.44374769044713,0.0
1425,-0.019568123420174877,0.0003500499570778274,122.16844538352946,0.0
1426,-0.019405677052504764,0.0005599120326737269,119.95168774481286,0.0
1427,-0.019178491823487274,0.0008105089386389493,117.79408757299642,0.0
1428,-0.018899497018412967,0.0010775649683267292,115.69597481448166,0.0
1429,-0.018599359624411182,0.0013334343789720518,113.6574326352066,0.0
1430,-0.01832187808623253,0.0015500468560668982,111.67833039227904,0.0
1431,-0.018113037552309804,0.0017027660958864855,109.75835362469563,0.0
1432,-0.018007588881047826,0.001774473716979456,107.89703121025417,0.0
1433,-0.01801821927882187,0.0017590015178028482,106.09375985429914,0.0
1434,-0.018131554299076084,0.001663101493434075,104.34782608695653,0.0
1435,-0.018312613516403845,0.0015064311433200745,102.65842595055398,0.0
1436,-0.018515939356351627,0.0013194264675836602,101.0246825593065,0.0
1437,-0.01869887023738678,0.0011392970340572866,99.44566171018873,0.0
1438,-0.018831609383935233,0.0010046089229217804,97.92038571813747,0.0
1439,-0.018900351309681034,0.0009490112227007019,96.44784564109506,0.0
1440,-0.01890320426221129,0.0009946849812085923,95.02701205153066,0.0
1441,-0.01884250292568823,0.0011461614354813594,93.65684450145436,0.0
1442,-0.018719464228033084,0.001385339456983702,92.33629981795627,0.0
1443,-0.01853651941458979,0.0016687934618001081,91.06433935626075,0.0
1444,-0.018308795580602284,0.0019286412212867663,89.83993532740502,0.0
1445,-0.018080527560434406,0.002078104099723252,88.66207630810833,0.0
1446,-0.01793738178608211,0.00202225009911738,87.52977203130317,0.0
1447,-0.018004597620650948,0.0016732407713261714,86.44205754724103,0.0
1448,-0.018424909409785868,0.0009679311590375648,85.39799683711125,0.0
1449,-0.01931842039631796,-0.00011565261504489647,84.39668595374944,0.0
1450,-0.0207357387746184,-0.0015470695102490534,83.43725575727727,0.0
1451,-0.022621564475250027,-0.0032410888554603116,82.51887430739907,0.0
1452,-0.024805216854015145,-0.00506612961290256,81.64074896858138,0.0
1453,-0.027026584099866014,-0.006862878768595727,80.80212827943161,0.0
1454,-0.02899325273741288,-0.008469686496413562,80.0023036332616,0.0
1455,-0.030452238159629295,-0.009749247421596514,79.2406108130417,0.0
1456,-0.03125311174035323,-0.010610399908918338,78.51643142070287,0.0
1457,-0.031381417485405086,-0.011019927333932172,77.82919423800848,0.0
1458,-0.030951411351260325,-0.011001789409515388,77.17837655397422,0.0
1459,-0.030161388807306625,-0.01062451075004734,76.56350549205209,0.0
1460,-0.02922772750088062,-0.009980511991311503,75.98415936900028,0.0
1461,-0.028320459980936186,-0.009163069195988664,75.43996911653353,0.0
1462,-0.027521360075341377,-0.008246801787143683,74.93061979648472,0.0
1463,-0.02681615297947452,-0.007276144591836168,74.45585224032047,0.0
1464,-0.026119462394041414,-0.006263703010441475,74.01546484445244,0.0
1465,-0.02531973939928661,-0.0051975749375215395,73.60931555389818,0.0
1466,-0.024325993700996106,-0.004054500648987564,73.23732406850297,0.0
1467,-0.02310018697688154,-0.002814641835200248,72.89947430818226,0.0
1468,-0.021666907213647363,-0.0014740256106594574,72.59581717654191,0.0
1469,-0.020101556499561454,-5.1929723474073656e-05,72.32647366585279,0.0
1470,-0.01850573863231605,0.001407817666954748,72.09163835078992,0.0
1471,-0.016981343072991234,0.002841076568308898,71.89158332370728,0.0
1472,-0.015612713818328827,0.00417158367781114,71.72666263064886,0.0
1473,-0.014460882165547096,0.00532112663840185,71.59731727496192,0.0
1474,-0.013567742092630342,0.006219904518627243,71.50408086449342,0.0
1475,-0.012963824906912481,0.006815710008716316,71.44758598916708,0.0
1476,-0.012672612358360669,0.007081006793865868,71.42857142857143,1.0
1477,-0.012707215044409553,0.007017268454232176,71.4289387595771,0.0
1478,-0.013060235464359778,0.006656103944827819,71.43002887747618,0.0
1479,-0.013692220323660438,0.0060568447382623744,71.43182400087649,0.0
1480,-0.014525916959254577,0.005300552627849929,71.43430638726504,0.0
1481,-0.015451592618999024,0.004480886235440909,71.43745832954444,0.0
1482,-0.01634392534291577,0.0036928682078971793,71.44126215266239,0.0
1483,-0.017085853012201262,0.003021143046440682,71.44570021033311,0.0
1484,-0.017591772366845875,0.002529595200771526,71.45075488185033,0.0
1485,-0.017822840886494835,0.002254062322560721,71.4564085689904,0.0
1486,-0.01779033214903655,0.002199318931157023,71.46264369300543,0.0
1487,-0.017547317537626058,0.0023406574961843357,71.46944269170524,0.0
1488,-0.017172529673823978,0.0026294909214089387,71.4767880166278,0.0
1489,-0.01675193216939887,0.003001688665274333,71.48466213029762,0.0
1490,-0.016363095979863372,0.003387011752816294,71.4930475035714,0.0
1491,-0.016065577552704113,0.003718078602092035,71.50192661307068,0.0
1492,-0.015898051537372438,0.0039376943308628955,71.51128193870102,0.0
1493,-0.015880808808689157,0.004003943205429725,71.52109596125732,0.0
1494,-0.016020905822320897,0.0038929862953405903,71.53135116011528,0.0
1495,-0.01631695125600059,0.003599875674955469,71.54203001100826,0.0
1496,-0.016761229551150197,0.003137830157208301,71.55311498388996,0.0
1497,-0.017338380995366758,0.002536348684721598,71.56458854088214,0.0
1498,-0.018021720950271297,0.0018383699590604698,71.57643313430789,0.0
1499,-0.01876977224967485,0.0010965465536719853,71.58863120480993,0.0
1500,-0.019525969842040813,0.0003686830080912287,71.60116517955422,0.0
1501,-0.020223434887425482,-0.00028748498989185464,71.61401747051862,0.0
1502,-0.02079456874558964,-0.0008197718951694153,71.627170472867,0.0
1503,-0.021182960669123507,-0.001186675230566494,71.64060656340855,0.0
1504,-0.021353838208917873,-0.00136146096545427,71.65430809914268,0.0
1505,-0.021299659172967805,-0.0013345965042642356,71.66825741588946,0.0
1506,-0.021039290993708964,-0.0011141966234088495,71.68243682700597,0.0
1507,-0.020611666818278137,-0.0007245148093003113,71.69682862218856,0.0
1508,-0.020066696018636997,-0.00020286075105737105,71.71141506636154,0.0
1509,-0.01945671610861051,0.00040445103881092367,71.7261783986522,0.0
1510,-0.01883081943310723,0.0010464710498910013,71.74110083145284,0.0
1511,-0.018232610222026494,0.0016717737058640637,71.75616454956976,0.0
1512,-0.01770029509072744,0.002232096520789554,71.77135170945975,0.0
1513,-0.01726723021493513,0.0026853801484290497,71.78664443855439,0.0
1514,-0.016961368032549187,0.002998290869163747,71.80202483467244,0.0
1515,-0.01680314373019069,0.0031483581620142644,71.81747496552074,0.0
1516,-0.016802553838878433,0.003125802176624783,71.83297686828404,0.0
1517,-0.01695684727906344,0.0029349909522283267,71.84851254930405,0.0
1518,-0.017250058030702176,0.0025953004657282576,71.8640639838482,0.0
1519,-0.017654730421621412,0.0021409976759723752,71.87961311596848,0.0
1520,-0.01813514485032579,0.0016196700373399403,71.89514185845078,0.0
1521,-0.018650717834692982,0.001088727136251752,71.91063209285512,0.0
1522,-0.019158395891391993,0.0006096462130288152,71.92606566964714,0.0
1523,-0.01961381995348784,0.00023996227286727633,71.94142440842151,0.0
1524,-0.01997244458402633,2.3525188746597063e-05,71.95669009821721,0.0
1525,-0.020192931652258193,-1.9789415533164175e-05,71.97184449792549,0.0
1526,-0.02024514459510354,9.694456933534315e-05,71.98686933679089,0.0
1527,-0.020123400894613827,0.0003223701052450786,72.00174631500524,0.0
1528,-0.019862518207996706,0.0005674936699543213,72.01645710439567,0.0
1529,-0.019550756377334232,0.0007140006516714618,72.03098334920655,0.0
1530,-0.01933175487628415,0.0006305612166101235,72.04530666697579,0.0
1531,-0.01938861090612522,0.0001955399516805137,72.05940864950587,0.0
1532,-0.019907984157397276,-0.0006775060323298767,72.07327086393003,0.0
1533,-0.021029614961347885,-0.002016712657649778,72.08687485387358,0.0
1534,-0.022794344666806413,-0.0037768388260661775,72.10020214071099,0.0
1535,-0.02510818130529196,-0.00583693319637626,72.11323422491866,0.0
1536,-0.02773826345266928,-0.008013007909625832,72.12595258752377,0.0
1537,-0.030348049591745443,-0.010084583761938796,72.13833869164934,0.0
1538,-0.0325661419422962,-0.011830439252430349,72.15037398415566,0.0
1539,-0.03407076267037221,-0.013066246242568573,72.16203989737815,0.0
1540,-0.03466522883430046,-0.013675850750905223,72.17331785096178,0.0
1541,-0.034321740311582465,-0.013629144862102878,72.18418925379213,0.0
1542,-0.03318070438928187,-0.012982548856711715,72.19463550602292,0.0
1543,-0.03150686345258393,-0.0118622872251498,72.20463800120021,0.0
1544,-0.029616563158571953,-0.010434769228706283,72.21417812848286,0.0
1545,-0.027798252950105604,-0.008871354257266222,72.2232372749596,0.0
1546,-0.026248625007965345,-0.007315820515266635,72.23179682806185,0.0
1547,-0.025040245290744403,-0.005861753439066565,72.23983817807272,0.0
1548,-0.024125880926354107,-0.004544219042794386,72.24734272073152,0.0
1549,-0.02337377328705177,-0.003346331496788328,72.25429185993343,0.0
1550,-0.022620280119546525,-0.0022176907011701905,72.26066701052417,0.0
1551,-0.02172357970672043,-0.0010990646483798544,72.26644960118895,0.0
1552,-0.020604495882119076,5.3319035456058685e-05,72.27162107743536,0.0
1553,-0.01926626319268841,0.0012498317061791883,72.27616290466949,0.0
1554,-0.017791715145091123,0.002459784017545049,72.28005657136471,0.0
1555,-0.016321806057241338,0.00361522579302469,72.28328359232238,0.0
1556,-0.015022556404110753,0.004624625815277309,72.28582551202359,0.0
1557,-0.014048564368509814,0.0053927225771155055,72.28766390807147,0.0
1558,-0.013510782198459276,0.005841743754409638,72.28878039472241,0.0
1559,-0.013454776959022682,0.005929258347480359,72.28915662650603,1.0
1560,-0.0138532889882329,0.005659002674229066,72.28778641114731,0.0
1561,-0.014613676863690453,0.005082759396916752,72.28371839438084,0.0
1562,-0.015597362788117004,0.004293319785926738,72.27701695176445,0.0
1563,-0.01664572345028614,0.003410291016086253,72.26774699658094,0.0
1564,-0.017606025679796265,0.002561700257876802,72.25597393339669,0.0
1565,-0.018352274044225077,0.0018648394286179023,72.2417636125325,0.0
1566,-0.018798499456324884,0.0014096041603954546,72.22518228549379,0.0
1567,-0.018904709968983347,0.001246855554173626,72.20629656140416,0.0
1568,-0.01867722138760021,0.0013832885846178024,72.18517336448299,0.0
1569,-0.018164990966902276,0.0017831444848722296,72.16187989260476,0.0
1570,-0.017452493121706863,0.0023760349347732427,72.13648357697467,0.0
1571,-0.01664874875602188,0.0030692810873534466,72.10905204295184,0.0
1572,-0.015872284909824626,0.0037625960976368994,72.07965307204873,0.0
1573,-0.015233195803377052,0.004362712485071824,72.04835456513236,0.0
1574,-0.014815359976347229,0.004795704190517477,72.0152245068497,0.0
1575,-0.014663067423019416,0.005015264556648812,71.98033093129754,0.0
1576,-0.014775901631994418,0.005006001367587851,71.94374188895364,0.0
1577,-0.015113568133918773,0.0047817555138956625,71.905525414884,0.0
1578,-0.01560922976762069,0.004379847539450877,71.86574949823803,0.0
1579,-0.016187112403258805,0.003852808377010186,71.82448205304158,0.0
1580,-0.01677890604921241,0.003259413268051567,71.78179089029454,0.0
1581,-0.01733434422396092,0.0026566702989051687,71.7377436913787,0.0
1582,-0.017823898664748532,0.0020938958502883334,71.69240798277808,0.0
1583,-0.018234633752243677,0.0016093122484861846,71.64585111211318,0.0
1584,-0.018562586705861778,0.0012289388415369742,71.59814022548763,0.0
1585,-0.018805675813669723,0.0009670953643527609,71.54934224614473,0.0
1586,-0.018960036884141083,0.0008276883723055961,71.49952385442893,0.0
1587,-0.019020600601702808,0.0008055940376285771,71.44875146904637,0.0
1588,-0.018984740937842172,0.0008877819168379493,71.39709122961658,0.0
1589,-0.018856778041797428,0.0010541995922030156,71.34460898050644,0.0
1590,-0.018651221117505282,0.0012787217041663847,71.29137025593595,0.0
1591,-0.018393524195169122,0.001530572457327477,71.23744026634424,0.0
1592,-0.018118186455386483,0.0017765385011139748,71.18288388600348,0.0
1593,-0.017864766297247904,0.0019840407066593737,71.12776564186683,0.0
1594,-0.017672639472331327,0.002124811106644887,71.07214970363626,0.0
1595,-0.017575276715457805,0.0021786226588438196,71.01609987503488,0.0
1596,-0.01759472785907223,0.0021363339864901307,70.95967958626834,0.0
1597,-0.017737067431666146,0.0020015022823991198,70.90295188765823,0.0
1598,-0.01798975595248856,0.0017900099660741618,70.84597944443126,0.0
1599,-0.0183219689517949,0.0015275230326407597,70.78882453264673,0.0
1600,-0.01868864660949572,0.001245082367276541,70.73154903624452,0.0
1601,-0.019038189519811257,0.0009736151395231617,70.67421444519626,0.0
1602,-0.01932256118771973,0.0007385134695633503,70.61688185474154,0.0
1603,-0.019507512808131684,0.0005555441601878965,70.55961196569129,0.0
1604,-0.019580201943095715,0.00042915408720550687,70.50246508578056,0.0
1605,-0.019551886598590053,0.0003537230953117559,70.44550113205281,0.0
1606,-0.01945455593664668,0.00031757971389345294,70.38877963425828,0.0
1607,-0.019331948995265705,0.000308801587313109,70.33235973924917,0.0
1608,-0.019226944037039256,0.0003211822029867276,70.27630021635433,0.0
1609,-0.01916837706514536,0.00035846030262922084,70.22065946371744,0.0
1610,-0.019160760761496146,0.00043511600320833956,70.16549551558218,0.0
1611,-0.019180097321404698,0.000572764050394813,70.11086605050893,0.0
1612,-0.019178049113751348,0.0007923081061538676,70.05682840050811,0.0
1613,-0.019095148712180977,0.0011033169071300191,70.00343956107565,0.0
1614,-0.018881499921250846,0.0014932094463795792,69.9507562021172,0.0
1615,-0.018520771188600262,0.001919442186296696,69.89883467974812,0.0
1616,-0.018050867016398523,0.0023077070578552544,69.84773104895699,0.0
1617,-0.01757352627282076,0.002558080430568692,69.79750107712194,0.0
1618,-0.017246310650255177,0.0025592565115541014,69.74820025836904,0.0
1619,-0.017254537239906147,0.0022088452349406217,69.69988382876387,0.0
1620,-0.017767100628750428,0.001435778346314881,69.65260678232778,0.0
1621,-0.018886916982572693,0.00021973833178774412,69.60642388787156,0.0
1622,-0.020611080100976398,-0.001397363494370025,69.56138970664084,0.0
1623,-0.02281515406553235,-0.0033113669643566115,69.51755861076786,0.0
1624,-0.025269498714767444,-0.005368270251351051,69.47498480252622,0.0
1625,-0.027685036670475713,-0.007387055467938466,69.4337223343859,0.0
1626,-0.029775594013651627,-0.009188312615081294,69.39382512986782,0.0
1627,-0.03131830307740481,-0.010622533093257554,69.35534700519763,0.0
1628,-0.03219486214370144,-0.011591970266102552,69.3183416917609,0.0
1629,-0.0324037847153023,-0.012061520620777248,69.28286285936244,0.0
1630,-0.03204369522573183,-0.012056732237520981,69.2489641402945,0.0
1631,-0.031276153191720786,-0.011650082880000094,69.21669915421994,0.0
1632,-0.030280598752922983,-0.01093931239091588,69.18612153387822,0.0
1633,-0.029213308133295018,-0.010023222686492101,69.15728495162365,0.0
1634,-0.02817834272319687,-0.00898065199515858,69.13024314680693,0.0
1635,-0.02721387037570732,-0.007857307348703319,69.10504995401325,0.0
1636,-0.026293816156200644,-0.006663110921810374,69.08175933217144,0.0
1637,-0.025342980508527756,-0.005380177949781344,69.0604253945511,0.0
1638,-0.024262746081347018,-0.003979059267193837,69.04110243966659,0.0
1639,-0.022963263906457292,-0.0024389709909070217,69.02384498310828,0.0
1640,-0.021396279068662052,-0.0007667905007713591,69.00870779032452,0.0
1641,-0.019581234770120977,0.0009901777542012497,68.99574591037918,0.0
1642,-0.017617205407352433,0.0027413031647853274,68.98501471071236,0.0
1643,-0.01567546496265083,0.004361009918261256,68.97656991293437,0.0
1644,-0.013972034883116036,0.005707239003896763,68.97046762968506,0.0
1645,-0.012725187728412857,0.0066463774056334714,68.96676440259405,0.0
1646,-0.01210771327658397,0.007079392225551465,68.96551724137932,1.0
1647,-0.012205971807160598,0.006963435491502752,69.00026164899218,0.0
1648,-0.012996435130820456,0.006324028082906748,69.10282057443423,0.0
1649,-0.01434591223563182,0.005254908426420851,69.27095917557584,0.0
1650,-0.01603545378627216,0.0039052829193671115,69.5027752921526,0.0
1651,-0.01780197573610879,0.0024569150115379794,69.79665906658602,0.0
1652,-0.01938759308823009,0.0010956084757012409,70.15125733501547,0.0
1653,-0.020585393276171586,-1.7297588586443467e-05,70.5654418262261,0.0
1654,-0.021271941301422723,-0.0007680052092950437,71.03828035077377,0.0
1655,-0.021420566286784456,-0.0011038494451261806,71.56901027501966,0.0
1656,-0.021094361305848276,-0.0010355003243827676,72.15701366172792,0.0
1657,-0.020422549885784385,-0.0006282784379371446,72.80179352557148,0.0
1658,-0.019567234748996184,1.4797658648675301e-05,73.502950702453,0.0
1659,-0.018688801411970855,0.0007742344594304225,74.26016086929143,0.0
1660,-0.017917356850782763,0.0015351476278679774,75.07315127860588,0.0
1661,-0.017335135608158775,0.0022043453454725095,75.94167679222357,0.0
1662,-0.016971686563675568,0.0027208313282708605,76.86549481291144,0.0
1663,-0.016810664639312644,0.00305880184002669,77.8443387237597,0.0
1664,-0.016804750790784105,0.003223833846508806,78.87788945484651,0.0
1665,-0.016893957706551135,0.003244208238087383,79.9657448073444,0.0
1666,-0.017022524070406095,0.003159967121357379,81.10738617930141,0.0
1667,-0.0171507074056653,0.0030123135421608383,82.30214235768642,0.0
1668,-0.01725970283532832,0.0028354235052271593,83.54915007120617,0.0
1669,-0.017350029591800115,0.002651858816636743,84.84731104164442,0.0
1670,-0.01743537011861883,0.0024717929978793915,86.19524533235509,0.0
1671,-0.017534570480310173,0.002295417135748769,87.5912408759124,0.0
1672,-0.017664265483727213,0.0021173332355164704,89.03319917415179,0.0
1673,-0.01783369310988013,0.0019315321162407288,90.51857730865821,0.0
1674,-0.018042195569083073,0.001735667038550446,92.04432658407059,0.0
1675,-0.0182790970268767,0.001533688049666105,93.60682835602947,0.0
1676,-0.01852531583860144,0.0013363831933147063,95.20182787509522,0.0
1677,-0.018756154653074304,0.0011598716211827906,96.82436731085424,0.0
1678,-0.01894494180782037,0.0010225221234094815,98.46871950751986,0.0
1679,-0.01906726100013599,0.0009410689564538127,100.12832446062875,0.0
1680,-0.019105277591505283,0.0009268326374153552,101.79573098564327,0.0
1681,-0.019051318274785747,0.0009829176242585709,103.46254655814596,0.0
1682,-0.018909733574025516,0.0011030632882825882,105.11939881795338,0.0
1683,-0.018696413401342423,0.0012725005094679452,106.75591271181086,0.0
1684,-0.018436042821651538,0.0014707623267223387,108.36070765610299,0.0
1685,-0.01815787620346973,0.0016759753341543423,109.9214193757167,0.0
1686,-0.01789105796409112,0.0018697875523709887,111.42475115138913,0.0
1687,-0.01766023960397357,0.002041836441302549,112.85655901254424,0.0
1688,-0.01748176009018,0.002192588778589156,114.20197487191106,0.0
1689,-0.017360447779134095,0.0023335398494150833,115.44557064591643,0.0
1690,-0.0172874177080802,0.002484166408188583,116.57156499346578,0.0
1691,-0.017239904150218636,0.002665670190427787,117.56407241946863,0.0
1692,-0.0171846822679393,0.0028923524174870345,118.40739215770478,0.0
1693,-0.017086438828837987,0.003162280890963069,119.08633155667113,0.0
1694,-0.01692121995118499,0.003449543345695362,119.5865557923901,0.0
1695,-0.016692893114202235,0.0037005908890412205,119.89495283812137,0.0
1696,-0.016447988017840354,0.003836770717799241,120.0,1.0
1697,-0.016282388774903737,0.003764056955891014,119.9692164425069,0.0
1698,-0.01633346222730996,0.0033893334786843023,119.8780933128512,0.0
1699,-0.016754330347922588,0.0026406999125169516,119.72860035842119,0.0
1700,-0.017673007976777982,0.001487664843498635,119.52286345831617,0.0
1701,-0.01914625912813182,-4.369962607622159e-05,119.26314538967682,0.0
1702,-0.02112318846579465,-0.0018651383777281935,118.95182641171658,0.0
1703,-0.023433685174260824,-0.0038328842054232816,118.59138492070247,0.0
1704,-0.025810522674073827,-0.005766631413812141,118.18437840923485,0.0
1705,-0.02794278600576789,-0.007477750634419687,117.73342494012579,0.0
1706,-0.029546623443359312,-0.008801134441378757,117.24118531987514,0.0
1707,-0.03043214217421165,-0.009623811462848823,116.71034613005853,0.0
1708,-0.030545855323227403,-0.009903939822581819,116.14360374768182,0.0
1709,-0.02997629936160073,-0.009675916142298029,115.54364945846109,0.0
1710,-0.02892289855004221,-0.009040552670553776,114.91315574069517,0.0
1711,-0.02763988976241022,-0.008142711104720375,114.25476377244519,0.0
