,PPG_Raw,PPG_Clean,PPG_Rate,PPG_Peaks
0,-6.993424092977684,-0.0025327273558762853,113.78353376503237,0.0
1,-6.910130972724545,0.07188767390388898,113.78353376503237,0.0
2,-6.831439699949178,0.1449497074247122,113.78353376503237,0.0
3,-6.75885245825777,0.21628965281885965,113.78353376503237,0.0
4,-6.692546810496729,0.28720234627088265,113.78353376503237,0.0
5,-6.630850312031387,0.3609409256764622,113.78353376503237,0.0
6,-6.57001665675407,0.4423635719319069,113.78353376503237,0.0
7,-6.504485391467795,0.5368998881686434,113.78353376503237,0.0
8,-6.427775444878058,0.6489566298806798,113.78353376503237,0.0
9,-6.334073016073904,0.7800287381854114,113.78353376503237,0.0
10,-6.220412095922197,0.9269006135314944,113.78353376503237,0.0
11,-6.089119661119465,1.0803837873878332,113.78353376503237,0.0
12,-5.94995325188494,1.2250129656715354,113.78353376503237,0.0
13,-5.821181231151412,1.3399973810197987,113.78353376503237,0.0
14,-5.728852579721327,1.4015042933498878,113.78353376503237,0.0
15,-5.7037645897699445,1.3860686522963608,113.78353376503237,0.0
16,-5.776185090840744,1.2746345366085559,113.78353376503237,0.0
17,-5.969124951124651,1.0565115849796438,113.78353376503237,0.0
18,-6.291661626027453,0.7324412581526889,113.78353376503237,0.0
19,-6.734187987006842,0.3160567792728992,113.78353376503237,0.0
20,-7.267256321159298,-0.16671186651208536,113.78353376503237,0.0
21,-7.844851914153741,-0.6803384557472713,113.78353376503237,0.0
22,-8.411679807446173,-1.1841178221438486,113.78353376503237,0.0
23,-8.912812636945471,-1.637538569343217,113.78353376503237,0.0
24,-9.303293983955777,-2.005640215398185,113.78353376503237,0.0
25,-9.555310764510907,-2.263392582115851,113.78353376503237,0.0
26,-9.661322400785219,-2.3983597912185237,113.78353376503237,0.0
27,-9.632758435825336,-2.4112912262807717,113.78353376503237,0.0
28,-9.495125635776056,-2.3147176553621174,113.78353376503237,0.0
29,-9.281206560744765,-2.1300132641189684,113.78353376503237,0.0
30,-9.024275701372158,-1.8836262287238887,113.78353376503237,0.0
31,-8.752920613754542,-1.6032387079342598,113.78353376503237,0.0
32,-8.48832371700564,-1.3145010083415447,113.78353376503237,0.0
33,-8.244012945248185,-1.0387474259799176,113.78353376503237,0.0
34,-8.027397542751919,-0.7918200772694601,113.78353376503237,0.0
35,-7.842054402394452,-0.5838785086955266,113.78353376503237,0.0
36,-7.6897716134393415,-0.41991197254824975,113.78353376503237,0.0
37,-7.571705448003757,-0.30061950494582357,113.78353376503237,0.0
38,-7.488492589860655,-0.2233681751747998,113.78353376503237,0.0
39,-7.439590966576712,-0.1830458031762518,113.78353376503237,0.0
40,-7.422363313997694,-0.17274561913395725,113.78353376503237,0.0
41,-7.431429987476716,-0.18431710421807102,113.78353376503237,0.0
42,-7.458652500282046,-0.20886615398280334,113.78353376503237,0.0
43,-7.493854839731229,-0.23728511649506112,113.78353376503237,0.0
44,-7.526134095280735,-0.26085236405339285,113.78353376503237,0.0
45,-7.545430174217177,-0.2718844023281548,113.78353376503237,0.0
46,-7.543962578297061,-0.2643741614694296,113.78353376503237,0.0
47,-7.51720560747963,-0.2345233419324359,113.78353376503237,0.0
48,-7.464228776983605,-0.18108025238531494,113.78353376503237,0.0
49,-7.387418734351171,-0.10542295701634685,113.78353376503237,0.0
50,-7.291758313921145,-0.011369465342940865,113.78353376503237,0.0
51,-7.183917099106141,0.09526086365203607,113.78353376503237,0.0
52,-7.071386688805935,0.20727774222316858,113.78353376503237,0.0
53,-6.961792961326029,0.3168668266959529,113.78353376503237,0.0
54,-6.86238957422167,0.416372868791385,113.78353376503237,0.0
55,-6.779643972923862,0.4990435702253635,113.78353376503237,0.0
56,-6.7188117374154155,0.5596678257356708,113.78353376503237,0.0
57,-6.6834585484096944,0.5950530716860417,113.78353376503237,0.0
58,-6.67499107832538,0.6042990555270465,113.78353376503237,0.0
59,-6.692338221069131,0.5888411282580442,113.78353376503237,0.0
60,-6.731934166746308,0.5522567054949272,113.78353376503237,0.0
61,-6.788084839976697,0.49985355221905714,113.78353376503237,0.0
62,-6.853681569932623,0.438085114583081,113.78353376503237,0.0
63,-6.9211166092553,0.373861374055805,113.78353376503237,0.0
64,-6.983203396863514,0.3138384739452381,113.78353376503237,0.0
65,-7.033927783052423,0.2637730818891947,113.78353376503237,0.0
66,-7.0689347153031425,0.2280172775945558,113.78353376503237,0.0
67,-7.0857444615993606,0.2092086861837726,113.78353376503237,0.0
68,-7.08375108006162,0.20818252588179897,113.78353376503237,0.0
69,-7.064064956749125,0.22410175452784137,113.78353376503237,0.0
70,-7.029233858198279,0.25477275427163065,113.78353376503237,0.0
71,-6.982847107897705,0.29709037227000584,113.78353376503237,0.0
72,-6.929026964638714,0.3475403305796626,113.78353376503237,0.0
73,-6.871847801245305,0.40268121960768133,113.78353376503237,0.0
74,-6.814775257579345,0.45953404600081227,113.78353376503237,0.0
75,-6.760247222437234,0.5158249559525888,113.78353376503237,0.0
76,-6.709499448359432,0.5700546850763855,113.78353376503237,0.0
77,-6.6626717632346235,0.6214025105714039,113.78353376503237,0.0
78,-6.619144005835115,0.6695069436405052,113.78353376503237,0.0
79,-6.577982127665063,0.7141930589170716,113.78353376503237,0.0
80,-6.538352956435871,0.7552307430309446,113.78353376503237,0.0
81,-6.499797022720755,0.7922048599664556,113.78353376503237,0.0
82,-6.462314207134052,0.8245560561759427,113.78353376503237,0.0
83,-6.426282600759999,0.8518117616444683,113.78353376503237,0.0
84,-6.392264457111147,0.8739762333504676,113.78353376503237,0.0
85,-6.360743310539866,0.8919944389242186,113.78353376503237,0.0
86,-6.331803146196935,0.9081577632479474,113.78353376503237,0.0
87,-6.304745294345915,0.926292103400183,113.78353376503237,0.0
88,-6.277677769320031,0.95157309909886,113.78353376503237,0.0
89,-6.247208001842286,0.9898584895425406,113.78353376503237,0.0
90,-6.20848089916412,1.0465166986802723,113.78353376503237,0.0
91,-6.1558551666676085,1.1248557649568778,113.78353376503237,0.0
92,-6.0844281260457915,1.2243963800622688,113.78353376503237,0.0
93,-5.992370465989352,1.3393535849922251,113.78353376503237,0.0
94,-5.883657643701345,1.457753886529788,113.78353376503237,0.0
95,-5.770403875882341,1.5615829843692768,113.78353376503237,0.0
96,-5.67378914446453,1.6282161481403423,113.78353376503237,0.0
97,-5.6226788770092275,1.6331391829796282,113.78353376503237,1.0
98,-5.64953787619855,1.5536662091744626,112.42508335667391,0.0
99,-5.784050500869596,1.3730713480051002,111.10239454669988,0.0
100,-6.045737544137169,1.0843555424528422,109.81434352474368,0.0
101,-6.437479070010976,0.6928350860272484,108.55985335663597,0.0
102,-6.9419223372412056,0.2168970037889899,107.33789171802829,0.0
103,-7.522156901507358,-0.31340056900203817,106.14746875716972,0.0
104,-8.126907108834917,-0.8597672932316609,104.98763507856677,0.0
105,-8.699183922459133,-1.3806056893820378,103.85747983985152,0.0
106,-9.186307313722235,-1.836542949984442,102.75612895472989,0.0
107,-9.548821347556274,-2.1955598627191852,101.68274339538624,0.0
108,-9.766200658064577,-2.4368065331703725,100.63651758818669,0.0
109,-9.838232171811631,-2.5524956203686795,99.61667789695163,0.0
110,-9.782191317230737,-2.547685990185978,98.62248118846621,0.0
111,-9.627009221296747,-2.438204108351851,97.65321347526228,0.0
112,-9.406238412966365,-2.2472914268221604,96.7081886310462,0.0
113,-9.15165234342234,-2.001739890256875,95.78674717445885,0.0
114,-8.888839697046471,-1.7282606526565456,94.88825511714616,0.0
115,-8.63539280305284,-1.4506509677046064,94.012102872386,0.0
116,-8.401494884051512,-1.1880476590086806,93.15770422076854,0.0
117,-8.192099339737725,-0.954265671094129,92.32449532965741,0.0
118,-8.009601889017322,-0.7579919009307495,91.51193382337375,0.0
119,-7.855975038326793,-0.6034851772180874,90.71949790124623,0.0
120,-7.733708077228776,-0.4914332870201261,89.94668550085355,0.0
121,-7.645431288118249,-0.41971303376842384,89.19301350396053,0.0
122,-7.5926093819050955,-0.3839423570827734,88.4580169828078,0.0
123,-7.573996051340684,-0.3778516844134289,87.74124848456528,0.0
124,-7.5845652084025765,-0.39359268173144524,87.04227735189929,0.0
125,-7.61540356004113,-0.4221257799724145,86.3606890777319,0.0
126,-7.6546786958304365,-0.4537870986203876,85.6960846923938,0.0
127,-7.689431575008929,-0.47905398863347226,85.04808018148343,0.0
128,-7.7077013809894845,-0.48943904159625873,84.41630593285235,0.0
129,-7.700433494899706,-0.47837566008925275,83.80040621123453,0.0
130,-7.662738230766974,-0.4419337252564558,83.20003865913024,0.0
131,-7.594293655380567,-0.3792259090503726,82.61487382264171,0.0
132,-7.498929427832302,-0.29242402806932666,82.04459470103882,0.0
133,-7.383610469282899,-0.18638172840495582,81.48889631890887,0.0
134,-7.257118929249951,-0.06793361220550126,80.94748531981682,0.0
135,-7.128716161158686,0.05500566265447843,80.4200795804678,0.0
136,-7.006991010479407,0.17439546088357466,79.90640784442901,0.0
137,-6.899011373508843,0.28293741255919336,79.40620937452539,0.0
138,-6.809822901139056,0.374751566788694,78.91923362308071,0.0
139,-6.742288960440825,0.4458011868146402,78.44523991922841,0.0
140,-6.6972294463415505,0.4940561529340939,77.98399717256557,0.0
141,-6.6737807986291715,0.5194259969819011,77.53528359247183,0.0
142,-6.669866042175732,0.5235195882507118,77.09888642245858,0.0
143,-6.682647490495882,0.5092971129131639,76.67460168895711,0.0
144,-6.708855247343838,0.4806734811316467,76.2622339639938,0.0
145,-6.744946918150324,0.4421164217640406,75.86159614123966,0.0
146,-6.787138816151645,0.39826466315296016,75.47250922495746,0.0
147,-6.8314189528071605,0.3535783803432773,75.09480213140479,0.0
148,-6.873670156819366,0.31202923995268333,74.72831150228515,0.0
149,-6.9099815456098,0.276840525067823,74.37288152987102,0.0
150,-6.937124757063707,0.2502948200006096,74.0283637934538,0.0
151,-6.953063593309405,0.23363145574255428,73.69461710680561,0.0
152,-6.957307106298065,0.22705296765482957,73.37150737636664,0.0
153,-6.950942276226534,0.22984703842077106,73.05890746989986,0.0
154,-6.93628820387666,0.24061009718293094,72.75669709538244,0.0
155,-6.916254298583598,0.2575370429878217,72.46476268992954,0.0
156,-6.893598780945876,0.2787260662926357,72.18299731857311,0.0
157,-6.870322785215926,0.30244427580198885,71.91130058274327,0.0
158,-6.8473844854254295,0.3273106971461356,71.64957853832634,0.0
159,-6.8247983174177325,0.3523750618328118,71.39774362319834,0.0
160,-6.802043880542171,0.3770966026968991,71.1557145941584,0.0
161,-6.778602371874951,0.4012485592878804,70.92341647321201,0.0
162,-6.754405817411835,0.4247850031789826,70.70078050317923,0.0
163,-6.730034357845764,0.4477050261352211,70.48774411262926,0.0
164,-6.706603566217682,0.4699383916084346,70.28425089016841,0.0
165,-6.68540248237455,0.49126309663228745,70.09025056813611,0.0
166,-6.66743225085722,0.5112562342126785,69.90569901578976,0.0
167,-6.653030035330624,0.5292797358510846,69.73055824208842,0.0
168,-6.64173495377296,0.5445116126946956,69.56479640821404,0.0
169,-6.632466583021215,0.5560452830758487,69.40838784999868,0.0
170,-6.623961411855203,0.5630848624830788,69.26131311045819,0.0
171,-6.615287316318838,0.5652533372582356,69.123558982665,0.0
172,-6.606183408216744,0.5629983588707653,68.99511856322736,0.0
173,-6.596997489846067,0.5580302764831404,68.8759913166782,0.0
174,-6.588127094478277,0.553671827434568,68.76618315111523,0.0
175,-6.57907811390269,0.5549588679051474,68.66570650547372,0.0
176,-6.567466909092928,0.5683286855849151,68.57458044885689,0.0
177,-6.548426268903894,0.6007829320660059,68.49283079239335,0.0
178,-6.514867589916609,0.6585187996874706,68.42049021414071,0.0
179,-6.458874150252083,0.7451695007101243,68.35759839760566,0.0
180,-6.37417760748954,0.8599505626876582,68.30420218450669,0.0
181,-6.259278559383411,0.9961278498223046,68.26035574246535,0.0
182,-6.12042571739366,1.140262504524844,68.22612074837613,0.0
183,-5.973486638152917,1.272616729132729,68.20156658827491,0.0
184,-5.843816286083858,1.368917626971959,68.18677057459948,0.0
185,-5.76359029376139,1.4034012489330343,68.18181818181819,1.0
186,-5.766675040744755,1.352752280603976,68.18235720163639,0.0
187,-5.881832346112354,1.20029128038062,68.1839754501247,0.0
188,-6.125705394734464,0.9396150756996964,68.1866747879559,0.0
189,-6.497372837071444,0.5769186557777386,68.19045717909779,0.0
190,-6.9761012566478895,0.13143064678429622,68.19532469141622,0.0
191,-7.5232240804886485,-0.36625626840682024,68.20127949730404,0.0
192,-8.08798572239574,-0.8777607308827504,68.20832387433634,0.0
193,-8.616057762161176,-1.3618072303104067,68.21646020595222,0.0
194,-9.058665543179998,-1.7795902661029732,68.22569098216343,0.0
195,-9.380146612214428,-2.0996825498054625,68.23601880029042,0.0
196,-9.562327959771602,-2.3016851843036403,68.24744636572586,0.0
197,-9.605118242627197,-2.3781020341338763,68.25997649272612,0.0
198,-9.523775887733194,-2.334288240383749,68.27361210523138,0.0
199,-9.344075644097533,-2.1866823677183835,68.28835623771427,0.0
200,-9.096862958029618,-1.9598033145117133,68.30421203605785,0.0
201,-8.813271011243396,-1.6826292959896163,68.32118275846334,0.0
202,-8.521349038849856,-1.384969762705603,68.33927177638768,0.0
203,-8.24424834024323,-1.0943207458190884,68.35848257551199,0.0
204,-7.999646081600161,-0.8335103193339164,68.37881875674083,0.0
205,-7.799877887265597,-0.6192482003785855,68.40028403723316,0.0
206,-7.652300661740743,-0.4615352958936216,68.42288225146535,0.0
207,-7.559619848737446,-0.36378859303705996,68.44661735232665,0.0
208,-7.520152645329477,-0.3234965809793622,68.47149341224811,0.0
209,-7.5281502591359235,-0.3332270784558491,68.49751462436492,0.0
210,-7.574327276501507,-0.38184216795384573,68.52468530371333,0.0
211,-7.646673211412842,-0.45581363567520583,68.55300988846226,0.0
212,-7.7315163266392375,-0.5405624721547937,68.58249294118062,0.0
213,-7.814734906539139,-0.6217611184409487,68.61313915014084,0.0
214,-7.882994161455842,-0.6865380621161479,68.6449533306591,0.0
215,-7.924913610733987,-0.7245170423227729,68.67794042647338,0.0
216,-7.93209978755028,-0.7286159617585939,68.71210551115946,0.0
217,-7.899976972053614,-0.6955320809327169,68.74745378958622,0.0
218,-7.8283115122582885,-0.6258564503464086,68.78399059941052,0.0
219,-7.721288407184823,-0.5237940604723624,68.82172141261269,0.0
220,-7.587013089147833,-0.3965138686615857,68.86065183707338,0.0
221,-7.43640648736172,-0.2532064053321101,68.90078761819244,0.0
222,-7.28162036490598,-0.10397399943343133,68.9421346405511,0.0
223,-7.134262041811256,0.04129293174188309,68.98469892961782,0.0
224,-7.0038092130651215,0.17389999897295594,69.02848665349899,0.0
225,-6.896567540366955,0.28707057287111637,69.07350412473558,0.0
226,-6.8153758348854225,0.37633784969097084,69.11975780214627,0.0
227,-6.760045047584969,0.4396067500680868,69.16725429271847,0.0
228,-6.728305487187044,0.4769460242937739,69.21600035354797,0.0
229,-6.716906319933287,0.49021033819131343,69.26600289382853,0.0
230,-6.722505652414242,0.4826010592078174,69.3172689768922,0.0
231,-6.742105429473151,0.45825345620127933,69.36980582230177,0.0
232,-6.77297743287843,0.4218967916023653,69.42362080799636,0.0
233,-6.812224850936083,0.3785878867655391,69.47872147249143,0.0
234,-6.856258856174606,0.33348425459401204,69.53511551713426,0.0
235,-6.90049615199182,0.29161095944606513,69.59281080841642,0.0
236,-6.939494937018785,0.25758852622789175,69.65181538034437,0.0
237,-6.967576148482138,0.2353207892233988,69.71213743686954,0.0
238,-6.97978453917748,0.22767821626702472,69.77378535437944,0.0
239,-6.972898045637286,0.23623888302613305,69.8367676842509,0.0
240,-6.946148298595676,0.2611545308053669,69.90109315546738,0.0
241,-6.9013921964919875,0.3011894540227106,69.96677067730128,0.0
242,-6.84265275273786,0.35394086198398167,70.0338093420636,0.0
243,-6.775163882287911,0.41620349004989504,70.10221842792163,0.0
244,-6.704224646774458,0.4844038352605025,70.17200740178714,0.0
245,-6.634224356553986,0.5550128951373615,70.24318592227635,0.0
246,-6.568118531224618,0.6248560515411038,70.31576384274369,0.0
247,-6.50745321553407,0.6912714271330577,70.38975121439077,0.0
248,-6.452829021893956,0.7521131508063318,70.465158289453,0.0
249,-6.404549307732807,0.8056397682626035,70.5419955244655,0.0
250,-6.363161669073641,0.8503582570922833,70.62027358361013,0.0
251,-6.329682061301308,0.8849036043208262,70.70000334214606,0.0
252,-6.305444112174593,0.9080220270382403,70.78119588992593,0.0
253,-6.291674591714806,0.9186974153951044,70.86386253499944,0.0
254,-6.288994025869901,0.9164228974074613,70.94801480730725,0.0
255,-6.297042647763906,0.9015798314791703,71.03366446246687,0.0
256,-6.314343969914309,0.8758504324567322,71.1208234856536,0.0
257,-6.33838909252617,0.842561337290283,71.20950409557841,0.0
258,-6.365820388126501,0.8068373239925238,71.29971874856574,0.0
259,-6.392568142849165,0.7754424061131326,71.39148014273377,0.0
260,-6.413868557561795,0.7562070444620099,71.4848012222797,0.0
261,-6.424242749732674,0.7569927868846964,71.57969518187329,0.0
262,-6.4176799612973054,0.7842325876369729,71.67617547116103,0.0
263,-6.388355010798464,0.8412001944444956,71.77425579938443,0.0
264,-6.332136334531194,0.9262858878128105,71.8739501401153,0.0
265,-6.248870559281875,1.0316562106306937,71.97527273611126,0.0
266,-6.145012069971685,1.142713164267766,72.07823810429481,0.0
267,-6.035745311498606,1.2387096314183323,72.1828610408594,0.0
268,-5.945523177928297,1.2947074988675182,72.28915662650603,1.0
269,-5.906093580227111,1.2847987446109717,72.4402049307862,0.0
270,-5.951672849302762,1.1861977518505236,72.6771938589486,0.0
271,-6.111840083542489,0.9835322324602984,72.99768914341027,0.0
272,-6.40368804813029,0.672494920422458,73.39972205853581,0.0
273,-6.825395525135144,0.26203475311751456,73.88173069910637,0.0
274,-7.353355238918167,-0.22551232228302465,74.44250818488295,0.0
275,-7.944185643560762,-0.7565603789595232,75.08115612207209,0.0
276,-8.541569923580797,-1.2904098282311038,75.79704188740375,0.0
277,-9.086370466549825,-1.7846738883854063,76.58975847357935,0.0
278,-9.527421185320264,-2.200997306813699,77.45908575919502,0.0
279,-9.830205489134793,-2.510010666210915,78.40495215200112,0.0
280,-9.981346215809493,-2.694650143517409,79.42739560953862,0.0
281,-9.988167838866174,-2.751352060917121,80.52652307244084,0.0
282,-9.874033182939565,-2.6891004770422633,81.70246735887629,0.0
283,-9.67121774518276,-2.5267418468804723,82.9553405693488,0.0
284,-9.413479919090172,-2.28927817188845,84.28518304517733,0.0
285,-9.130199067047082,-2.003949874355433,85.69190691792647,0.0
286,-8.843184162255854,-1.6968213756186388,87.17523328842134,0.0
287,-8.56630562016673,-1.3903383124576554,88.73462209189117,0.0
288,-8.307271460288153,-1.102019700001261,90.36919375137613,0.0
289,-8.070378151161695,-0.8441695067357803,92.07764180835903,0.0
290,-7.85901481064286,-0.6243069902364338,93.85813586397447,0.0
291,-7.677043902848235,-0.4459533138226915,95.70821438539608,0.0
292,-7.528758797761717,-0.30946287833244135,97.62466725231289,0.0
293,-7.417706348546671,-0.2127104439855101,99.60340836241352,0.0
294,-7.345061258374741,-0.1515854330632359,101.63933920849055,0.0
295,-7.308337576976269,-0.12035448178367569,103.72620510853822,0.0
296,-7.301025809317606,-0.11200381328114567,105.85644673573886,0.0
297,-7.31335556204149,-0.11866107856995817,108.02105077100751,0.0
298,-7.333960044136658,-0.13214040661566334,110.20940488593871,0.0
299,-7.3519124257835005,-0.14458450158619301,112.40916383556156,0.0
300,-7.358512672346045,-0.14912285067170922,114.60613514382095,0.0
301,-7.348340829110738,-0.1404436575742306,116.78419460437654,0.0
302,-7.3193896436432455,-0.11519169285397357,118.92524344878177,0.0
303,-7.272423477319928,-0.07214382744832859,121.00922035025783,0.0
304,-7.2099537313508355,-0.01216043918332188,123.01418217420618,0.0
305,-7.1352878406537945,0.06205282525049993,124.9164672496843,0.0
306,-7.051986520082684,0.14632152146344263,126.6909535900895,0.0
307,-6.96381515902357,0.2354671751464094,128.31142162580971,0.0
308,-6.875012141094456,0.3238213629377252,129.7510263941428,0.0
309,-6.790534931651308,0.4057591609760093,130.98287768121418,0.0
310,-6.715954481267329,0.4762213798613695,131.98071847498676,0.0
311,-6.6568442400665715,0.5311845012857352,132.71968271096878,0.0
312,-6.617771632438485,0.5680242877176145,133.1771034437987,0.0
313,-6.601227369050618,0.5857149358992308,133.33333333333334,1.0
314,-6.6069156619875935,0.5848197041566732,133.32640686106953,0.0
315,-6.63173205447333,0.5672633028850174,133.30579757750255,0.0
316,-6.670512072414115,0.5359237771459827,133.2717667673282,0.0
317,-6.717343962363682,0.4941274916610264,133.22458340844582,0.0
318,-6.7670216794981455,0.44515847904274736,133.16452364630996,0.0
319,-6.816156608630183,0.3918907868719949,133.09187026877245,0.0
320,-6.863588495699773,0.33661735196039716,133.00691218294108,0.0
321,-6.90998835884253,0.2810905763033509,132.90994389551702,0.0
322,-6.956833283651134,0.22672612696056238,132.80126499800326,0.0
323,-7.005150417159667,0.1748731026356075,132.6811796581042,0.0
324,-7.054498302087868,0.1270366026198093,132.54999611855922,0.0
325,-7.102555563331295,0.08495867936549378,132.40802620457572,0.0
326,-7.145460225079743,0.05051416087651711,132.25558484094614,0.0
327,-7.178774633270306,0.0254423608442359,132.09298957985166,0.0
328,-7.198738738280968,0.010993335212619713,131.92056014027304,0.0
329,-7.203387811715629,0.007599799841663528,131.7386179598467,0.0
330,-7.193168946117166,0.014683328575527892,131.547485759921,0.0
331,-7.1708649411734235,0.030667599250124078,131.34748712448692,0.0
332,-7.140862822489669,0.053214163368374465,131.13894609357646,0.0
333,-7.108011796420964,0.0796353646799883,130.92218677164354,0.0
334,-7.076432929158361,0.10739244554669208,130.6975329513646,0.0
335,-7.048631567818262,0.13456675177516136,130.46530775322273,0.0
336,-7.025133913511558,0.16020156585593567,130.2258332811659,0.0
337,-7.004678700277283,0.1844457987515091,129.97943029456107,0.0
338,-6.98482072994431,0.20847683224864086,129.7264178966,0.0
339,-6.962704869288727,0.2342250060522617,129.46711323924873,0.0
340,-6.935766819168562,0.2639562748525012,129.20183124477404,0.0
341,-6.90219230881822,0.29978773225566296,128.9308843438226,0.0
342,-6.861080937998594,0.3432141819004667,128.65458222997705,0.0
343,-6.812373185841142,0.39471773096094814,128.3732316306633,0.0
344,-6.756673389342061,0.45352204455357076,128.0871360942377,0.0
345,-6.695113033668599,0.5175414551554638,127.79659579304176,0.0
346,-6.629341585220978,0.5835614560210032,127.50190734217179,0.0
347,-6.561626763868179,0.6476665967573493,127.20336363367856,0.0
348,-6.494937086935308,0.7058990573380451,126.90125368587846,0.0
349,-6.43281910304416,0.755083968320704,126.59586250743081,0.0
350,-6.378907664563338,0.7937002882059826,126.28747097581125,0.0
351,-6.336026426143295,0.8226212687057028,125.97635572978952,0.0
352,-6.305018934471066,0.8455151494602513,125.66278907550154,0.0
353,-6.2836408629601115,0.8687050412186078,125.34703890569045,0.0
354,-6.2659685863191825,0.9003515507914381,125.02936863167855,0.0
355,-6.2427714315529625,0.9489442141126552,124.71003712762254,0.0
356,-6.203119538444806,1.0212522980058663,124.38929868659649,0.0
357,-6.13717484314873,1.1200585743202274,124.06740298804242,0.0
358,-6.039714891378017,1.242136182846406,123.74459507612592,0.0
359,-5.913581586039561,1.376982870573808,123.42111534853291,0.0
360,-5.772048523303704,1.5067656784255443,123.09719955524544,0.0
361,-5.639153191313576,1.6077445861260964,122.7730788068375,0.0
362,-5.547383234589757,1.6531599658036291,122.44897959183673,1.0
363,-5.532705750627956,1.6172411751764886,122.09532742891669,0.0
364,-5.627666496720421,1.479697908783641,121.68406768801495,0.0
365,-5.853965214916596,1.2298698872184621,121.21779020541233,0.0
366,-6.216301408550065,0.8696926877772109,120.69918411107143,0.0
367,-6.699192191921381,0.4148087549786177,120.13101722911716,0.0
368,-7.267835551871934,-0.10651369642732611,119.51611605562135,0.0
369,-7.8730679493790605,-0.656565358594952,118.85734651337134,0.0
370,-8.459358626636101,-1.1929748601835908,118.15759565424815,0.0
371,-8.97397065432435,-1.6742559586408277,117.41975445012898,0.0
372,-9.375178509277662,-2.065156727326065,116.6467017836734,0.0
373,-9.637819686962974,-2.340909913068317,115.84128972165914,0.0
374,-9.755293200174389,-2.489731459879939,115.00633012629196,0.0
375,-9.738082215734527,-2.513278946643014,114.14458263460432,0.0
376,-9.609660091422596,-2.425174933018363,113.25874401303378,0.0
377,-9.401048275890739,-2.24803492538555,112.35143887377967,0.0
378,-9.145301799686331,-2.0096515344570607,111.42521172171502,0.0
379,-8.872906060805327,-1.7390464118081836,110.48252028552673,0.0
380,-8.608641493795579,-1.4630179541303736,109.52573007433844,0.0
381,-8.370060704679078,-1.2036234712092027,108.55711009123513,0.0
382,-8.16741283169875,-0.976793927884428,107.57882962770896,0.0
383,-8.004660512284213,-0.7920438780995631,106.59295605788543,0.0
384,-7.881144624820881,-0.653055009770827,105.60145354825609,0.0
385,-7.793436175425413,-0.5588070599148085,104.60618259729961,0.0
386,-7.736962559946588,-0.5049122265826691,103.60890031958368,0.0
387,-7.707104706715321,-0.48486693433896233,102.61126139046154,0.0
388,-7.699623507560746,-0.49104203796185864,101.61481957008728,0.0
389,-7.710463368950657,-0.5153562140409704,100.62102972894908,0.0
390,-7.7351573081142835,-0.5496848701631152,99.6312503012686,0.0
391,-7.768175722714532,-0.5861235202944648,98.64674609724739,0.0
392,-7.802581736889362,-0.6172381750305722,97.6686914101074,0.0
393,-7.830263953826704,-0.6363987936033089,96.69817335902388,0.0
394,-7.842828940775247,-0.638221692662665,95.73619541427134,0.0
395,-7.833000995515271,-0.6190681408894361,94.78368105609574,0.0
396,-7.796168892447957,-0.5774858224578671,93.84147752390376,0.0
397,-7.7316126483564185,-0.5144578662374863,92.91035961726428,0.0
398,-7.642986055887523,-0.4333489215209364,91.99103351489055,0.0
399,-7.537822832611203,-0.3395027807536233,91.08414058218435,0.0
400,-7.426121443480073,-0.23953195930767923,90.19026114204576,0.0
401,-7.31835248756939,-0.14042023867840664,89.30991818747117,0.0
402,-7.223422480235661,-0.048609617510472436,88.44358101797098,0.0
403,-7.147148457586728,0.030752215547827977,87.59166878503666,0.0
404,-7.0916364408942885,0.09427029949264781,86.75455393477947,0.0
405,-7.055666119838921,0.14040974673167134,85.93256553846255,0.0
406,-7.0358652793527305,0.16928255717818297,85.12599250396353,0.0
407,-7.028223230161932,0.1822171180685408,84.33508666325609,0.0
408,-7.0294236195543185,0.18125153722765153,83.56006573280027,0.0
409,-7.037590469919409,0.16868706467520167,82.80111614530135,0.0
410,-7.052284911347258,0.14679578513892655,82.05839575265693,0.0
411,-7.0738666959910175,0.11771410411329403,81.33203640107558,0.0
412,-7.102543727140296,0.08349162011269451,80.62214638034071,0.0
413,-7.137508769849128,0.046222491858736336,79.92881275002547,0.0
414,-7.176492576148503,0.00817364595725456,79.25210354615568,0.0
415,-7.21588367451082,-0.028159495727918482,78.59206987238493,0.0
416,-7.2513462440681185,-0.060103679421245754,77.94874788020293,0.0
417,-7.278687908927876,-0.08495910812537716,77.32216064306056,0.0
418,-7.294653056286047,-0.10021544053228848,76.71231992957321,0.0
419,-7.29737020679915,-0.1037839220808967,76.11922788117337,0.0
420,-7.2863393851057445,-0.09420191994901486,75.54287859973078,0.0
421,-7.262040521511572,-0.0707817872002679,74.98325965075782,0.0
422,-7.2253950806457246,-0.033692788924136935,74.44035348787453,0.0
423,-7.177357685699677,0.01602512331248082,73.91413880423269,0.0
424,-7.1188337902689325,0.076516220104214,73.40459181659686,0.0
425,-7.050946836995575,0.1452382171633122,72.91168748776053,0.0
426,-6.9754884612421755,0.2191746211873738,72.43540069294284,0.0
427,-6.895265711434514,0.29513260711791767,71.97570733577038,0.0
428,-6.814071976845502,0.3701096271243879,71.53258541940538,0.0
429,-6.736157390110481,0.44168369259476614,71.10601607834113,0.0
430,-6.665299046356716,0.5083551537165901,70.69598457634872,0.0
431,-6.603772041241493,0.5697548067186998,70.30248127603532,0.0
432,-6.551608004662051,0.6266446848377959,69.92550258546068,0.0
433,-6.506457473675623,0.6806768516410052,69.56505188726467,0.0
434,-6.464171100707104,0.7339349875506482,69.22114045578292,0.0
435,-6.419959931351135,0.7883480388364965,68.89378836767744,0.0
436,-6.3697845157507595,0.845115153988402,68.58302541168486,0.0
437,-6.311536464973709,0.9042992330254587,68.28889200319195,0.0
438,-6.245645402796967,0.9647232055862539,68.01144010949012,0.0
439,-6.174937976890855,1.0242402609279453,67.75073419173984,0.0
440,-6.103813353309931,1.0803591884623456,67.50685216990033,0.0
441,-6.036989467707175,1.1311088809618608,67.2798864171503,0.0
442,-5.978156546604223,1.175944647410195,67.06994479065075,0.0
443,-5.9288463956664685,1.2164535370888534,66.8771517058848,0.0
444,-5.88773378916751,1.2566202234265726,66.7016492622608,0.0
445,-5.850491291870976,1.3024742120924824,66.5435984281904,0.0
446,-5.8102606437190385,1.361048571874937,66.40318029446267,0.0
447,-5.7587798176670955,1.4387255715335732,66.2805974054381,0.0
448,-5.688173579706066,1.539201909735475,66.17607517839704,0.0
449,-5.593321623852447,1.6614447123931877,66.08986342230568,0.0
450,-5.474530707296467,1.798094814802528,66.0222379683297,0.0
451,-5.33998244998445,1.9347748686186768,65.97350242564599,0.0
452,-5.207202606186763,2.050657187533428,65.94399007750124,0.0
453,-5.102739031055661,2.1204413645060116,65.93406593406593,1.0
454,-5.059463680143187,2.1176124986709928,65.93644790417852,0.0
455,-5.111458198206234,2.018551201354174,65.94353728315532,0.0
456,-5.287196406097979,1.8068169619318142,65.95525073135953,0.0
457,-5.602465400592783,1.4767972101767448,65.97150675768084,0.0
458,-6.054877280278956,1.0359547014668526,65.99222560449218,0.0
459,-6.621681946773305,0.5051257494765844,66.01732913636447,0.0
460,-7.261843985671428,-0.08331611096318603,66.0467407323105,0.0
461,-7.922183177079971,-0.6891914986079126,66.08038518134133,0.0
462,-8.546188803293811,-1.2695156483831496,66.11818858113305,0.0
463,-9.08333951359941,-1.7838894598101573,66.16007823961412,0.0
464,-9.496681532499279,-2.1993453962013954,66.20598257929495,0.0
465,-9.767046597641485,-2.4938602344874328,66.2558310441733,0.0
466,-9.893359724138643,-2.6580552670334594,66.30955400905871,0.0
467,-9.889586474307325,-2.6949906292927865,66.3670826911703,0.0
468,-9.779633799973295,-2.6183268035011613,66.42834906387046,0.0
469,-9.591764799529303,-2.4493898474166462,66.49328577240757,0.0
470,-9.353850939385811,-2.2137894640368128,66.56182605154787,0.0
471,-9.090251406886427,-1.9381965229054776,66.63390364498599,0.0
472,-8.820503264387956,-1.6477242009530653,66.70945272643128,0.0
473,-8.559503608790399,-1.3641340996853053,66.78840782227405,0.0
474,-8.318561422157087,-1.104870214009991,66.87070373574403,0.0
475,-8.106619354312384,-0.8827615781502384,66.95627547247939,0.0
476,-7.93107288217451,-0.7061567169282883,67.04505816743242,0.0
477,-7.797885780053979,-0.5792601170896301,67.13698701304354,0.0
478,-7.711025380080215,-0.5025103199142018,67.23199718862244,0.0
479,-7.671517061556874,-0.47293558590849216,67.33002379088117,0.0
480,-7.676563716799779,-0.4845102322582046,67.43100176556952,0.0
481,-7.719157907777123,-0.5285861149372324,67.5348658401699,0.0
482,-7.788451577500048,-0.5944784208245444,67.64155045761393,0.0
483,-7.870903766915776,-0.6702483686786969,67.75098971098917,0.0
484,-7.951985869277151,-0.7436650755213272,67.8631172792098,0.0
485,-8.01806617090581,-0.8032670891762785,67.97786636363065,0.0
486,-8.058068054162483,-0.8394006326064085,68.09516962558983,0.0
487,-8.064596685795726,-0.8450980268404709,68.21495912487009,0.0
488,-8.034407072926065,-0.8166774459978869,68.33716625907512,0.0
489,-7.968267983481176,-0.753986787659769,68.46172170392182,0.0
490,-7.870397043149716,-0.660267857888486,68.58855535445561,0.0
491,-7.747673088120104,-0.5416697987775876,68.71759626720035,0.0
492,-7.608784555170495,-0.40648341964936857,68.848772603261,0.0
493,-7.463388665818916,-0.2641961679766917,68.98201157240118,0.0
494,-7.321284881139424,-0.12448034174754574,69.11723937812442,0.0
495,-7.191583444784733,0.0037733902083811888,69.25438116379232,0.0
496,-7.08188288028652,0.11327670538143497,69.39336095981855,0.0
497,-6.9975347450469965,0.19893899460107883,69.53410163198353,0.0
498,-6.941126682693389,0.25818646553393815,69.67652483091878,0.0
499,-6.912316933604593,0.29098855691366743,69.82055094281668,0.0
500,-6.908091377373021,0.299612062665813,69.96609904142574,0.0
501,-6.92340739355434,0.2881573797997869,70.11308684139735,0.0
502,-6.952080540284887,0.2619565745466586,70.26143065305531,0.0
503,-6.987706232288674,0.22692452131210694,70.41104533866428,0.0
504,-7.024416106727978,0.18894995619616234,70.56184427027928,0.0
505,-7.0573429551746285,0.15339442124540104,70.71373928926324,0.0
506,-7.082775921263416,0.12473879887348338,70.86664066756444,0.0
507,-7.098084469593751,0.10638650465151994,71.02045707085152,0.0
508,-7.101540317353647,0.10060631196017444,71.17509552360796,0.0
509,-7.09215944566454,0.10858095041589338,71.33046137629366,0.0
510,-7.069634024603908,0.1305215431654955,71.48645827468509,0.0
511,-7.03435366283315,0.1658110650047685,71.6429881315108,0.0
512,-6.987455970491269,0.21314892872993707,71.79995110050346,0.0
513,-6.930819889340717,0.27067998971863516,71.95724555299329,0.0
514,-6.866931236838197,0.3361023145450445,72.1147680571725,0.0
515,-6.798603678330226,0.4067582075588053,72.2724133601638,0.0
516,-6.728610575002869,0.4797224296828362,72.43007437302944,0.0
517,-6.659343130718731,0.5519101182094751,72.58764215886063,0.0
518,-6.592624850622485,0.6202327939738171,72.7450059240901,0.0
519,-6.529761286592368,0.6818300885452608,72.90205301317275,0.0
520,-6.471795975352017,0.7343924559976687,73.05866890678206,0.0
521,-6.419821283027529,0.7765626379587917,73.21473722367055,0.0
522,-6.375119808569828,0.8083621563033289,73.37013972634499,0.0
523,-6.338941079496622,0.8315417855054456,73.52475633070658,0.0
524,-6.3118611668564375,0.849717103564876,73.67846511980741,0.0
525,-6.292887320716327,0.8681410876086022,73.8311423618731,0.0
526,-6.278673623019289,0.8930023212290934,73.98266253274116,0.0
527,-6.263317075799138,0.9302268997921019,74.13289834286248,0.0
528,-6.239142427096403,0.9838955595563368,74.28172076901089,0.0
529,-6.198642489065955,1.0545374513184882,74.42899909084235,0.0
530,-6.1373594731552625,1.1376861667499498,74.57460093244197,0.0
531,-6.057066443004289,1.2231353191824204,74.71839230899096,0.0
532,-5.968270186361482,1.2952732076218123,74.86023767868159,0.0
533,-5.890951566525964,1.33469656171348,75.0,1.0
534,-5.8526967707581505,1.321024732571848,75.13795673078008,0.0
535,-5.883978827183717,1.2365165772334301,75.27453180129608,0.0
536,-6.011225070617728,1.069816469271038,75.40980793966673,0.0
537,-6.249219599086447,0.8190107062759893,75.54386938638127,0.0
538,-6.595009960867616,0.4932246740953695,75.67680187155062,0.0
539,-7.025486754654308,0.11224964132809806,75.80869259368738,0.0
540,-7.500007400229766,-0.2958899976476095,75.93963020011279,0.0
541,-7.967959655702992,-0.6990340112177895,76.06970476908842,0.0
542,-8.379465912757636,-1.0658372873306419,76.19900779376867,0.0
543,-8.696186495786959,-1.370537086424109,76.32763216806944,0.0
544,-8.898975411205724,-1.5965336003738344,76.45567217454825,0.0
545,-8.990152970798196,-1.7380723350055771,76.5832234743892,0.0
546,-8.990009794453478,-1.7997849689900602,76.71038309958716,0.0
547,-8.929076386867354,-1.794357670497588,76.83724944742403,0.0
548,-8.838911868958313,-1.7390105105575309,76.96392227733115,0.0
549,-8.744288782052946,-1.6516820589439063,77.09050271023094,0.0
550,-8.658787356186812,-1.5477792741615126,77.2170932304522,0.0
551,-8.584432650253225,-1.4381077393193662,77.34379769031406,0.0
552,-8.514672623572721,-1.328230917185297,77.4707213174738,0.0
553,-8.439129331672412,-1.219132376434974,77.59797072513653,0.0
554,-8.34834145418057,-1.1087716165957013,77.72565392522483,0.0
555,-8.23709568968113,-0.9939913045786034,77.85388034460964,0.0
556,-8.105684690631032,-0.8722590694899209,77.98276084450526,0.0
557,-7.9592237863037685,-0.742873240610478,78.11240774313467,0.0
558,-7.805735853677767,-0.607466027049509,78.24293484177396,0.0
559,-7.653922979829356,-0.4698342289988065,78.3744574542891,0.0
560,-7.511391634192276,-0.33526841572416444,78.50709244028126,0.0
561,-7.383720247876763,-0.20961574958630372,78.64095824196275,0.0
562,-7.274343891811601,-0.0983052550479106,78.77617492488972,0.0
563,-7.184941034090181,-0.005511300922645068,78.91286422268401,0.0
564,-7.115919443251681,0.06643905699817693,79.05114958588256,0.0
565,-7.066695850783551,0.11737234171472438,79.19115623506015,0.0
566,-7.035665536641557,0.14928974930837627,79.33301121837775,0.0
567,-7.0199626984034165,0.1661285183358967,79.47684347371855,0.0
568,-7.015240199190849,0.17330162149466816,79.62278389558129,0.0
569,-7.015710512121183,0.17706457255701882,79.77096540691143,0.0
570,-7.014596546358536,0.18377318333576867,79.92152303606066,0.0
571,-7.004985563703799,0.19911512695653671,80.07459399907727,0.0
572,-6.980923123522021,0.22741482859312273,80.2303177875423,0.0
573,-6.938482951451881,0.2711162574813536,80.38883626217998,0.0
574,-6.8765331461608845,0.3305337296309287,80.55029375248542,0.0
575,-6.796986612572327,0.4039240409524464,80.7148371626291,0.0
576,-6.704447183852749,0.4878783365957322,80.88261608391404,0.0
577,-6.605307191587179,0.5779698075763973,81.05378291408039,0.0
578,-6.506484003684437,0.6695381832663606,81.22849298377218,0.0
579,-6.414073883574637,0.758458553455524,81.40690469050273,0.0
580,-6.332229493091377,0.8417405852676173,81.58917964047767,0.0
581,-6.262522130996885,0.9178376417182343,81.77548279866049,0.0
582,-6.203937905651093,0.9866080137892682,81.96598264749207,0.0
583,-6.153502035044541,1.0489491948960559,82.16085135470473,0.0
584,-6.107363410040781,1.106203012789075,82.36026495070308,0.0
585,-6.062045088105246,1.159486344077542,82.56440351601758,0.0
586,-6.0155162690397255,1.2091250639349513,82.77345137937357,0.0
587,-5.967791916921783,1.2543513602077594,82.98759732695791,0.0
588,-5.920908808548002,1.293369088327491,83.20703482350801,0.0
589,-5.87831420560071,1.3238091540995818,83.43196224589451,0.0
590,-5.843866560763581,1.3435031719101478,83.66258312991823,0.0
591,-5.820728602196227,1.351416981324042,83.89910643109651,0.0
592,-5.810413252557071,1.3485227968449278,84.141746800272,0.0
593,-5.812150338638269,1.338363033493493,84.39072487494056,0.0
594,-5.822635874166455,1.327078780149972,84.64626758726321,0.0
595,-5.836166129207505,1.322744893794074,84.90860848980144,0.0
596,-5.845176058243561,1.3339691144291819,85.17798810009594,0.0
597,-5.8412735793650326,1.367864052392286,85.45465426529604,0.0
598,-5.816911376749453,1.4276681963751718,85.73886254814265,0.0
599,-5.767767822704323,1.5104444624645335,86.03087663571053,0.0
600,-5.695657796104908,1.6053833687837247,86.33096877242852,0.0
601,-5.611399500630015,1.69324292162459,86.63942021901893,0.0
602,-5.536676537537274,1.7473397982005718,86.95652173913044,1.0
603,-5.503774111361202,1.7362616091338787,87.30298167938908,0.0
604,-5.552320977103586,1.6281273220906325,87.6986566570723,0.0
605,-5.722883476231088,1.3958473722405018,88.14264210484505,0.0
606,-6.04828406594328,1.022516646293964,88.63412159711265,0.0
607,-6.544521427292454,0.5059054035879657,89.17235286139883,0.0
608,-7.2037437668703905,-0.13893695569839004,89.75665428350895,0.0
609,-7.991553989919812,-0.8796652602640411,90.38639172876883,0.0
610,-8.849942051906606,-1.669434528333111,91.06096551676225,0.0
611,-9.70560889052407,-2.4521726753934376,91.77979739973618,0.0
612,-10.481879497462861,-3.169480236395096,92.54231740580485,0.0
613,-11.111355479548152,-3.767969177665068,93.34795041780623,0.0
614,-11.546295685057432,-4.205775225921632,94.1961023676699,0.0
615,-11.764466624191313,-4.457177296905714,95.08614593494407,0.0
616,-11.769571107701696,-4.514676992982215,96.01740564720856,0.0
617,-11.586854192183061,-4.388419263467356,96.98914228998326,0.0
618,-11.255625421260879,-4.10333948688505,98.00053654497228,0.0
619,-10.82093217043831,-3.6947867166029984,99.05067178862411,0.0
620,-10.32642322659314,-3.2035293625223438,100.13851599864533,0.0
621,-9.809715695618019,-2.67099137539479,101.26290273490872,0.0
622,-9.30060458650735,-2.135343508715896,102.42251118381724,0.0
623,-8.821549474162312,-1.628770106219803,103.61584528230316,0.0
624,-8.38930794408458,-1.1759381494367167,104.84121196994961,0.0
625,-8.01650973824269,-0.7934825350366341,106.0966986558914,0.0
626,-7.7123473584485245,-0.49022282058019356,107.38015003179423,0.0
627,-7.482194429701383,-0.26783472125605545,108.68914441385053,0.0
628,-7.32656546699701,-0.12177706245837283,110.02096985571507,0.0
629,-7.240159903605341,-0.04237225608230166,111.37260034077332,0.0
630,-7.211693964355332,-0.016012940870467007,112.74067243588922,0.0
631,-7.224884431169341,-0.026496102409853117,114.12146286921781,0.0
632,-7.260486888222343,-0.0564689126838398,115.51086758064963,0.0
633,-7.298908368997085,-0.08892585240543871,116.90438288318899,0.0
634,-7.322751601470594,-0.10864998922460556,118.29708946449999,0.0
635,-7.318738663109947,-0.10346460024418613,119.68364004654089,0.0
636,-7.2787310970210415,-0.06516578132924467,121.05825160323874,0.0
637,-7.199873318813988,0.009959175739758352,122.41470310611071,0.0
638,-7.084103730262774,0.1210697901364911,123.7463398191868,0.0
639,-6.937335859416812,0.26315116894596924,125.04608519021508,0.0
640,-6.768530109834542,0.42776770780739815,126.30646137691681,0.0
641,-6.588738858428095,0.6040903293405083,127.51961939665776,0.0
642,-6.410106961484505,0.7800769290520331,128.67737978711187,0.0
643,-6.244797716596824,0.9436817904605528,129.77128450691333,0.0
644,-6.103879478205687,1.0839780815625706,130.79266058312996,0.0
645,-5.996293037586752,1.1920955839229164,131.73269572336537,0.0
646,-5.928061976666839,1.261901373778493,132.58252575461697,0.0
647,-5.901877168354509,1.2903819242805807,133.33333333333334,1.0
648,-5.917097191458363,1.2777179108140715,134.03450127244588,0.0
649,-5.970103835955229,1.2270740372647728,134.74069113445148,0.0
650,-6.054883608208365,1.1441516598410861,135.45107658588734,0.0
651,-6.163698097239254,1.0365691441739808,136.16479487365115,0.0
652,-6.287751980258046,0.9131428080727054,136.88094585152777,0.0
653,-6.417833262968815,0.7831407853594554,137.59859110785112,0.0
654,-6.544942213555021,0.6555750591152626,138.31675320738256,0.0
655,-6.660916041271089,0.5385852637208222,139.03441506122448,0.0
656,-6.7590050294265085,0.4389532254885812,139.75051943927386,0.0
657,-6.834305279722303,0.36177080488351476,140.46396864033778,0.0
658,-6.883950405002136,0.3102667398103046,141.1736243355657,0.0
659,-6.907025555320334,0.285782729081658,141.8783076012835,0.0
660,-6.904263771441664,0.2878771910738951,142.57679915761946,0.0
661,-6.877662064994392,0.31452881898007934,143.267839829478,0.0
662,-6.830166461516926,0.36241159507428855,143.95013124641378,0.0
663,-6.765510714065469,0.4272166462983953,144.6223367977707,0.0
664,-6.688182459289142,0.5040009796919779,145.283082859055,0.0
665,-6.603388952957495,0.5875454336784752,145.93096030487965,0.0
666,-6.516857950443738,0.6727026656988279,146.564526322941,0.0
667,-6.43436670903164,0.7547122825391608,147.1823065423334,0.0
668,-6.361027260551537,0.8294586643050789,147.78279748806517,0.0
669,-6.300508783910774,0.8936526557343697,148.36446937189334,0.0
670,-6.254469205354703,0.9449336764806214,148.92576922752744,0.0
671,-6.222440462562622,0.9819114016514583,149.4651243958643,0.0
672,-6.202261338978148,1.0041876761419273,149.98094636319706,0.0
673,-6.190934009449117,1.0124079014020526,150.47163495229893,0.0
674,-6.185586882924493,1.0083761741868595,150.93558286292523,0.0
675,-6.184145483121888,0.9952263333273244,151.37118055461838,0.0
676,-6.185394650462273,0.9775793499028902,151.77682146077018,0.0
677,-6.188348689687772,0.961555451686571,152.15090751872253,0.0
678,-6.191158491312018,0.9544736669905101,152.49185499631216,0.0
679,-6.19006129502658,0.964087671742627,152.79810059074353,0.0
680,-6.179001873382636,0.9972891620050441,153.06810777105503,0.0
681,-6.1504480934737895,1.0583529020532398,153.300373330806,0.0
682,-6.097588239379731,1.1469725814292908,153.4934341130197,0.0
683,-6.017611827534074,1.2564963543857877,153.6458738649596,0.0
684,-5.91528035687673,1.3728609068561146,153.75633017607583,0.0
685,-5.805654486357926,1.4746975738944625,153.82350144852694,0.0
686,-5.714804222049958,1.5349231854493934,153.84615384615384,1.0
687,-5.67766526448811,1.5238480496699562,153.7709818020357,0.0
688,-5.732885508861638,1.4134875844635153,153.54845614776153,0.0
689,-5.915375641425905,1.1824338907225556,153.18366122555565,0.0
690,-6.248086511961285,0.8204177622078983,152.68240685032492,0.0
691,-6.735008466549925,0.33164150204864146,152.05113242662583,0.0
692,-7.357319237108641,-0.2638801777627303,151.2968071994399,0.0
693,-8.073950294797534,-0.9313910789798452,150.42682906055094,0.0
694,-8.826750843466215,-1.6248389376975019,149.44892416147874,0.0
695,-9.549226960100597,-2.2921910684594535,148.37104935023586,0.0
696,-10.176903108986018,-2.8817494015060436,147.20129917013995,0.0
697,-10.656989721903848,-3.3484133775324465,145.94781885213473,0.0
698,-10.95533908072391,-3.6588819655137024,144.6187244141535,0.0
699,-11.059501055462032,-3.795033141190953,143.22203066674652,0.0
700,-10.97775638187186,-3.7551018337669477,141.76558762579202,0.0
701,-10.734968292107219,-3.5526986301221233,140.25702556017652,0.0
702,-10.36668735973204,-3.2140738480850874,138.70370866160525,0.0
703,-9.913057161637946,-2.774262451923221,137.1126971192528,0.0
704,-9.413755582720942,-2.2728134952960084,135.49071721545457,0.0
705,-8.904640694459852,-1.74972650681092,133.8441389297234,0.0
706,-8.416156947651036,-1.2420344281351916,132.17896044511207,0.0
707,-7.973068273599749,-0.781253137703515,130.50079889022217,0.0
708,-7.594826928211237,-0.39172262646243394,128.81488661811946,0.0
709,-7.295899056007508,-0.08973613614399895,127.12607231577749,0.0
710,-7.085617324778155,0.11669553870756466,125.43882625005614,0.0
711,-6.967514982494911,0.22758049293390337,123.75724898436509,0.0
712,-6.938465801994685,0.2502675513488979,122.08508294009954,0.0
713,-6.988168342649371,0.19838876648102322,120.42572622509743,0.0
714,-7.099492034382993,0.09043806328370485,118.78224820466481,0.0
715,-7.249961650255757,-0.05197782622109359,117.15740634653805,0.0
716,-7.414292906378721,-0.2061267831152821,115.55366392738647,0.0
717,-7.567542280953677,-0.3502234931802507,113.97320824344078,0.0
718,-7.688223949554275,-0.46538357526537855,112.41796902031687,0.0
719,-7.760746501824398,-0.5372431465318851,110.88963676620568,0.0
720,-7.776724780204926,-0.557057547966141,109.38968085773955,0.0
721,-7.7350472694170245,-0.5221611893678041,107.91936718870872,0.0
722,-7.640904871288322,-0.4357599580538946,106.47977524826126,0.0
723,-7.504198392747559,-0.30611738541471867,105.07181452732736,0.0
724,-7.337779474967553,-0.1452677585300941,103.69624017991381,0.0
725,-7.155858047473315,0.03256649564012182,102.35366788986578,0.0
726,-6.972706098212069,0.21266052209145692,101.04458791398064,0.0
727,-6.801604023592221,0.3813910652499961,99.76937828931715,0.0
728,-6.65389279157839,0.527597144830917,98.5283172065095,0.0
729,-6.538040000216403,0.6435681499640662,97.32159456221264,0.0
730,-6.458765577337996,0.7255698582907671,96.14932271280465,0.0
731,-6.416423113768468,0.7738668440474157,95.0115464584646,0.0
732,-6.406906998438682,0.7922566278369527,93.90825229202291,0.0
733,-6.4222972422788684,0.7871937175890774,92.8393769508104,0.0
734,-6.4522660520667765,0.7666417809063211,91.80481531235328,0.0
735,-6.486017132121522,0.738836481539135,90.8044276763877,0.0
736,-6.514312100171089,0.7111564516697619,89.83804647648766,0.0
737,-6.53105595672482,0.6892768736808755,88.90548246478075,0.0
738,-6.534015167910081,0.676720152086575,88.00653041290985,0.0
739,-6.5245034106596655,0.6748331603272667,87.1409743717104,0.0
740,-6.50619873206436,0.6831310586491615,86.3085925311161,0.0
741,-6.483528304815654,0.6998767467829027,85.50916172067477,0.0
742,-6.460170660218695,0.7227308691325439,84.74246158982216,0.0
743,-6.438140148872748,0.7493173451687691,84.00827850579665,0.0
744,-6.417670861652153,0.7775978987138817,83.30640920582972,0.0
745,-6.397805088061325,0.8060192758545179,82.63666423906913,0.0
746,-6.377336357589515,0.8334669489622317,81.99887123262246,0.0
747,-6.355657600060294,0.8591094907024269,81.39287801518118,0.0
748,-6.333154916426191,0.8822370250893506,80.81855563093714,0.0
749,-6.311020261588745,0.9021844468881276,80.27580127595864,0.0
750,-6.290624691064731,0.918393740918989,79.76454118888462,0.0
751,-6.272778194010119,0.9306225071763309,79.2847335277487,0.0
752,-6.2572244130619294,0.9392596830315928,78.83637126499261,0.0
753,-6.242575734030036,0.9456720762138238,78.41948513330034,0.0
754,-6.226659202404585,0.9524795815906963,78.03414665581941,0.0
755,-6.207034321554123,0.9636435852512687,77.68047129567314,0.0
756,-6.1813712590771805,0.9842542961385868,77.3586217614556,0.0
757,-6.147493389451614,1.0199245297372488,77.06881150769868,0.0
758,-6.103149995864228,1.0757481704117349,76.81130847217021,0.0
759,-6.045867787158262,1.154866875878592,76.58643909538739,0.0
760,-5.973375188519599,1.2568045764099534,76.39459267200354,0.0
761,-5.884983145626452,1.3758567516126856,76.23622608886447,0.0
762,-5.783925008471145,1.4999255983648516,76.1118690106685,0.0
763,-5.6801160120052705,1.6102298637454724,76.02212958147113,0.0
764,-5.59229922021551,1.682251461217501,75.96770071894734,0.0
765,-5.548339026577951,1.6880939336870509,75.94936708860759,1.0
766,-5.582681248037396,1.6001390035608178,75.99184139509336,0.0
767,-5.73074231349892,1.3955534908341132,76.11714747212383,0.0
768,-6.0210382850883315,1.060904454825642,76.32248354036993,0.0
769,-6.466864081449359,0.595975984350346,76.60549539319483,0.0
770,-7.059876689290481,0.01591435506890171,76.96422040547634,0.0
771,-7.767732629280823,-0.6489210636510647,77.39703849036498,0.0
772,-8.536953860039603,-1.3555967346531068,77.90262853731963,0.0
773,-9.300732153485576,-2.053421281763234,78.47992909226939,0.0
774,-9.989928488351929,-2.690162932296934,79.12810221487655,0.0
775,-10.544592700978216,-3.2185910544303806,79.84649958013635,0.0
776,-10.923233297664398,-3.602204541369098,80.63462999077383,0.0
777,-11.107807501182235,-3.819202714334358,81.49212753996812,0.0
778,-11.103687160783105,-3.8641453441140268,82.41871971636432,0.0
779,-10.935242036324027,-3.7472321202038397,83.41419477969113,0.0
780,-10.638736399144676,-3.491585363958803,84.47836775957539,0.0
781,-10.254674134674035,-3.129237885098412,85.61104444601848,0.0
782,-9.821487242592028,-2.696651450293504,86.81198275111973,0.0
783,-9.371700283715391,-2.2305191117681287,88.08085083183468,0.0
784,-8.930732025786568,-1.7643869080521786,89.41718137708168,0.0
785,-8.517663632080367,-1.3263480115163353,90.82032148421716,0.0
786,-8.146863668341405,-0.9377991015587238,92.2893775854526,0.0
787,-7.829391901276143,-0.613066798609675,93.82315494083565,0.0
788,-7.573509351304706,-0.3596375354963052,95.42009129873784,0.0
789,-7.384194574699963,-0.17874625108451714,97.078184446352,0.0
790,-7.2620762955579155,-0.06616027938842373,98.79491354165846,0.0
791,-7.202464485633352,-0.013088022538782607,100.56715434581871,0.0
792,-7.195124100415306,-0.007208511234810477,102.39108877277319,0.0
793,-7.225136270712359,-0.03383802830995086,104.26210955265483,0.0
794,-7.27477333318178,-0.07722581210122015,106.1747212780444,0.0
795,-7.325951339717663,-0.12192134254318276,108.12243967496032,0.0
796,-7.3626508675570035,-0.15410628051870123,110.09769161686063,0.0
797,-7.372757932747313,-0.1627563009777604,112.0917191753937,0.0
798,-7.349018176047528,-0.14050243296705922,114.09449186089613,0.0
799,-7.2891022625005535,-0.08409614223473871,116.09463211889914,0.0
800,-7.1950228735981545,0.005563959431029497,118.07936006797024,0.0
801,-7.072240897425779,0.12382778876158462,120.03446431908908,0.0
802,-6.928739513150207,0.26304553340969083,121.94430641346857,0.0
803,-6.77418793050769,0.4135732996400423,123.79186683651805,0.0
804,-6.619156573373753,0.5649103283966993,125.55884057273788,0.0
805,-6.474267759764646,0.7068390314959409,127.22578961077319,0.0
806,-6.349206388182529,0.8304444241631466,128.77235854435347,0.0
807,-6.251645911102672,0.9289062012181977,130.17755732317812,0.0
808,-6.186290331824859,0.9979855911046773,131.42011221991902,0.0
809,-6.154307626755946,1.0361702102371968,132.4788822097854,0.0
810,-6.153380433790873,1.044490028086611,133.33333333333334,1.0
811,-6.178431577251586,1.026068263827272,134.07990639863797,0.0
812,-6.2228588402930995,0.9855112205299686,134.82772109796312,0.0
813,-6.279929025484227,0.9282594962681129,135.5760014631941,0.0
814,-6.343916812738065,0.8600130561761485,136.32393893433388,0.0
815,-6.410662014152519,0.786305744655464,137.07069194094566,0.0
816,-6.47743099720686,0.712251249957726,137.81538558520694,0.0
817,-6.5422265395902786,0.6424287921600492,138.55711143692812,0.0
818,-6.602897570947289,0.58084020919385,139.2949274512076,0.0
819,-6.656474635393999,0.5308626157415663,140.02785801964754,0.0
820,-6.699065175962851,0.4951443352638637,140.7548941662378,0.0
821,-6.726416217913702,0.47543706794337576,141.47499389910746,0.0
822,-6.734977123454759,0.4724066913500668,142.18708272934208,0.0
823,-6.72307872318441,0.4854990287812922,142.89005436795043,0.0
824,-6.691771151597302,0.5129408226055978,143.58277161182914,0.0
825,-6.644960515040413,0.551926221066087,144.26406742920292,0.0
826,-6.588720959436313,0.5989841363861319,144.9327462544996,0.0
827,-6.529950945592774,0.6504605748749446,145.58758550194491,0.0
828,-6.474784778615771,0.703004696536955,146.22733730631617,0.0
829,-6.42726953059251,0.753935786559758,146.8507304982729,0.0
830,-6.388730075465309,0.8013974619503081,147.45647282047548,0.0
831,-6.358000595613136,0.8442684810798315,148.04325338930497,0.0
832,-6.332394573492427,0.8818777611403601,148.60974540540627,0.0
833,-6.309036897787445,0.9136399333697063,149.15460911449273,0.0
834,-6.286082768123354,0.9387641263411107,149.67649501787284,0.0
835,-6.2634239849278215,0.9561787684472911,150.17404733000208,0.0
836,-6.242688846485493,0.9647582235877832,150.64590767802653,0.0
837,-6.226587229625776,0.9638454047505506,151.0907190357928,0.0
838,-6.217843251442057,0.9539603077430872,151.5071298821645,0.0
839,-6.21803534090448,0.9374940936947708,151.89379857073442,0.0
840,-6.226628301218125,0.9191367682034145,152.24939789518115,0.0
841,-6.2403902638580195,0.9057920249423852,152.57261983162238,0.0
842,-6.253315093955926,0.9058038167236555,152.86218043640162,0.0
843,-6.257160487798172,0.9274517392036346,153.1168248748497,0.0
844,-6.242736726491239,0.9768487380608055,153.33533255373445,0.0
845,-6.202053091124693,1.055563703417515,153.51652232739656,0.0
846,-6.1312562105709745,1.15845082935824,153.65925774501875,0.0
847,-6.0339534316111765,1.2722501990050286,153.76245230413883,0.0
848,-5.924094344113552,1.375489090138934,153.8250746734469,0.0
849,-5.827275039511017,1.4400399191645425,153.84615384615384,1.0
850,-5.779351266968903,1.4343897158561387,153.811616427165,0.0
851,-5.821739166220785,1.328297037526676,153.7101713541592,0.0
852,-5.99370979049819,1.0981381917099413,153.54518778007778,0.0
853,-6.323093458677641,0.7319743324153103,153.32017037257012,0.0
854,-6.8176913764556,0.23329206818258702,153.0387320247717,0.0
855,-7.459933850022849,-0.3774696929172813,152.70456756328755,0.0
856,-8.20671188123944,-1.0641078076097057,152.32142872067553,0.0
857,-8.9949580875624,-1.7785240903265005,151.8931005944875,0.0
858,-9.751898849991647,-2.4666828556158293,151.42337976983646,0.0
859,-10.407526760959701,-3.0756196937897085,150.91605423869166,0.0
860,-10.906236131951044,-3.560247487888864,150.37488520764936,0.0
861,-11.214909594776174,-3.8887698753753877,149.80359084755543,0.0
862,-11.325869262066085,-4.045836591177643,149.20583200364808,0.0
863,-11.25458569195844,-4.0330710349875485,148.58519985422754,0.0
864,-11.033381820267307,-3.867139466224121,147.94520547945203,0.0
865,-10.703199534478086,-3.5759824393987896,147.28927127976394,0.0
866,-10.305646537699996,-3.194094900241173,146.6207241655893,0.0
867,-9.877065203677331,-2.757781148840648,145.94279042615295,0.0
868,-9.445490543162528,-2.30114605270125,145.25859217524442,0.0
869,-9.030405307168467,-1.8532849427739477,144.5711452652454,0.0
870,-8.644453206683908,-1.436795833295467,143.88335855732953,0.0
871,-8.295922119118812,-1.0674482944872024,143.19803443510042,0.0
872,-7.990888499380893,-0.7546643866487387,142.51787045066925,0.0
873,-7.734316138044587,-0.5024189989729881,141.84546199592324,0.0
874,-7.5299458857929125,-0.3102310177652916,141.18330589716277,0.0
875,-7.379308809158396,-0.1740473542863551,140.53380483806419,0.0
876,-7.280497148302245,-0.08696444903573797,139.89927252378288,0.0
877,-7.227364603363441,-0.039840503927694004,139.2819395076947,0.0
878,-7.209618841822805,-0.021900964340786477,138.6839596115784,0.0
879,-7.213913206883717,-0.021428368202273673,138.10741687979538,0.0
880,-7.225682132785712,-0.02657388283470896,137.55433301809677,0.0
881,-7.2312258198377055,-0.026259701484010023,137.02667527798184,0.0
882,-7.219507258716269,-0.011085662725769496,136.52636475799437,0.0
883,-7.183272828593703,0.025873142502207958,136.05528510394325,0.0
884,-7.119370633654022,0.08848478351134537,135.61529160078132,0.0
885,-7.028406563180057,0.17727061243139086,135.2082206598161,0.0
886,-6.91404396591633,0.28943991707894023,134.83589971612327,0.0
887,-6.78226512890493,0.41924040907791105,134.50015756259884,0.0
888,-6.640786062697073,0.5585833696258339,134.20283515915463,0.0
889,-6.498624004253633,0.6978800615355736,133.945796968305,0.0
890,-6.365658405687261,0.8270109537870209,133.7309428820284,0.0
891,-6.251981141555816,0.9363377767836105,133.5602208195651,0.0
892,-6.166925253120276,1.0176597415115385,133.43564009204678,0.0
893,-6.117850328550628,1.0650128313852147,133.35928564790663,0.0
894,-6.108953021258907,1.0752207726238256,133.33333333333334,1.0
895,-6.140464044946876,1.0481327557163311,133.34821219658815,0.0
896,-6.208532750215372,0.9865259035121298,133.39190804730148,0.0
897,-6.305902322795342,0.895702770070978,133.46303501945525,0.0
898,-6.423219923239562,0.7828632370624267,133.56023622898925,0.0
899,-6.550609985439828,0.6563621535452631,133.68217823568682,0.0
900,-6.679052686373418,0.5249691120819666,133.82754584471323,0.0
901,-6.801192231775767,0.39722344719692343,133.99503722084367,0.0
902,-6.911425782872065,0.2809341527189614,134.18335929293295,0.0
903,-7.005408794120515,0.18282634457208186,134.39122343030658,0.0
904,-7.079340852689617,0.10830005697424364,134.61734137655353,0.0
905,-7.129469329473164,0.06125543749557899,134.8604214297156,0.0
906,-7.152130748813674,0.04395286127527959,135.11916486113847,0.0
907,-7.144388782743893,0.0569083716757979,135.39226256830102,0.0
908,-7.105033914401506,0.09885802663806506,135.678391959799,0.0
909,-7.035509831795896,0.16684219088922564,135.97621407333995,0.0
910,-6.9403145410377665,0.25645181917563764,136.28437093012133,0.0
911,-6.826603715674364,0.36224356814547176,136.60148313131725,0.0
912,-6.70303026167673,0.4782807517314147,136.92614770459082,0.0
913,-6.578160375916922,0.5987114197340082,137.25693621057624,0.0
914,-6.458981075684308,0.7182717882556441,137.59239312112322,0.0
915,-6.349981120621577,0.83261407623298,137.93103448275863,0.0
916,-6.253062127820372,0.9384018163208345,138.27134688027232,0.0
917,-6.168219048134676,1.0331804070218045,138.61178671655753,0.0
918,-6.094653415709178,1.1150961877659291,138.95077982580514,0.0
919,-6.03185624310259,1.1825833519712314,139.28672143783723,0.0
920,-5.98025807849449,1.2341504937837473,139.6179765117366,0.0
921,-5.941252387669851,1.2683736190357866,139.94288045695635,0.0
922,-5.916660213687187,1.2841464650839907,140.25974025974025,0.0
923,-5.907907053960992,1.2811655882114752,140.5668360319201,0.0
924,-5.91524384856419,1.2605531177738873,140.86242299794662,0.0
925,-5.937248414471235,1.22545922458539,141.14473393432755,0.0
926,-5.9706588094920825,1.1814508059039772,141.41198207346218,0.0
927,-6.010433621536487,1.1364910373659733,141.66236448115646,0.0
928,-6.049907562560319,1.1003522267448587,141.8940659138615,0.0
929,-6.081035758638858,1.0833850028521614,142.10526315789474,0.0
930,-6.094919499633186,1.0946881984021668,142.29412984857913,0.0
931,-6.082941120076804,1.1398743578624484,142.45884176239173,0.0
932,-6.038777109971825,1.2187812490745258,142.5975825698668,0.0
933,-5.9612558830791444,1.323603023921211,142.7085500312045,0.0
934,-5.857546016826366,1.4379622280796864,142.78996261033805,0.0
935,-5.745679950787473,1.537377931273805,142.84006647669653,0.0
936,-5.6551731552806475,1.5913890805603965,142.85714285714286,1.0
937,-5.624690172668335,1.567282871061954,142.79708627007878,0.0
938,-5.696396773106477,1.435010835124864,142.61923190629918,0.0
939,-5.907675416489204,1.1725359228636212,142.3274654758602,0.0
940,-6.281934652519481,0.7706369749294695,141.92617473477546,0.0
941,-6.820900798807295,0.23617890198206237,141.42018644262862,0.0
942,-7.5007215111226975,-0.40693147771811944,140.81470105479013,0.0
943,-8.273357401154108,-1.1194723747036197,140.11522652965053,0.0
944,-9.073317344614374,-1.8511613041055206,139.32751253947612,0.0
945,-9.828272742522628,-2.5467692193750584,138.45748625025217,0.0
946,-10.470993012603289,-3.153052620007455,137.51119068934645,0.0
947,-10.949752345248093,-3.625316093522803,136.49472655823038,0.0
948,-11.234938736887408,-3.932530980734188,135.41419817867904,0.0
949,-11.320807201553384,-4.060269820223411,134.27566409194247,0.0
950,-11.222712819122012,-4.011178128869112,133.0850926674273,0.0
951,-10.971265388226671,-3.8031767853615372,131.84832292538465,0.0
952,-10.605346446694972,-3.4659610833634638,130.5710306406685,0.0
953,-10.165757741397652,-3.0365657928707748,129.25869967431186,0.0
954,-9.690615246328123,-2.5547810755402223,127.91659837785764,0.0
955,-9.212791821996012,-2.059063146191048,126.54976083248651,0.0
956,-8.759053910198661,-1.5833503169388479,125.16297262059976,0.0
957,-8.350205604693366,-1.1549432762821443,123.76076078060167,0.0
958,-8.001554683962233,-0.7933999125287351,122.34738756466251,0.0
959,-7.723242771966799,-0.5102655860171545,120.92684760241266,0.0
960,-7.520289069506779,-0.3094158565118753,119.50286806883366,0.0
961,-7.392456585518697,-0.18781247894727304,118.07891146003499,0.0
962,-7.334186311445783,-0.13653376733752243,116.6581805941547,0.0
963,-7.3348467589726845,-0.14200437066143146,115.24362547442333,0.0
964,-7.379455033618809,-0.1873920838999681,113.83795167578951,0.0
965,-7.449904111062653,-0.25414841285985473,112.44362994391436,0.0
966,-7.5266271481287434,-0.32364664240101276,111.06290672451192,0.0
967,-7.59055670048883,-0.3788282657861505,109.69781537086361,0.0
968,-7.625181354248141,-0.4057238877280899,108.3501878069922,0.0
969,-7.618450504301729,-0.39468671191930943,107.02166645276267,0.0
970,-7.564236558107261,-0.341179624444461,105.71371624456428,0.0
971,-7.463062136905991,-0.24599666357740518,104.42763661086087,0.0
972,-7.3218728235602155,-0.11487224602380902,103.16457328553375,0.0
973,-7.152799023085709,0.042476710811593765,101.92552986345034,0.0
974,-6.9710797299877525,0.2137397313189503,100.71137902202956,0.0
975,-6.792550306534177,0.3856280557193653,99.5228733497572,0.0
976,-6.63123703006289,0.5454816209729764,98.3606557377049,0.0
977,-6.497580913847838,0.6826488559423147,97.22526930323536,0.0
978,-6.397617846170134,0.7894765464125025,96.11716682636134,0.0
979,-6.333134290146744,0.8618279214191569,95.03671968882404,0.0
980,-6.30251805149434,0.8991316901996443,93.98422631401696,0.0
981,-6.301856201226789,0.9040333790817336,92.95992011256864,0.0
982,-6.325863477068494,0.8817607937416649,91.96397694386462,0.0
983,-6.368426891279049,0.8393259568999111,90.99652210818562,0.0
984,-6.422816729461289,0.7846738116594375,90.05763688760806,0.0
985,-6.481806103052401,0.7258652999554914,89.14736465648257,0.0
986,-6.537970363012815,0.6703599318440333,88.26571658430066,0.0
987,-6.584301752892312,0.6244459955004773,87.41267695518425,0.0
988,-6.6150551787037495,0.5928539300881654,86.5882081291896,0.0
989,-6.626556949462993,0.5785747400766943,85.79225517118961,0.0
990,-6.617656117929301,0.5828854948289998,85.02475017337078,0.0
991,-6.589606829464366,0.6055569342739838,84.2856162974141,0.0
992,-6.545390949292306,0.6451887885134846,83.57477156229108,0.0
993,-6.488720161343024,0.6995956486629487,82.89213240334405,0.0
994,-6.423086631559082,0.766159405064607,82.23761702798392,0.0
995,-6.351198143141055,0.8420785501305734,81.61114859296747,0.0
996,-6.274952243093036,0.9244782469921745,81.01265822784809,0.0
997,-6.195861081682281,1.0103894403843496,80.44208792885819,0.0
998,-6.11564936492495,1.096648073934997,79.8993933472103,0.0
999,-6.036697749735731,1.1797948440464614,79.3845464956219,0.0
1000,-5.962108127576839,1.25606427570303,78.89753839680202,0.0
1001,-5.895366070648559,1.3215374989077895,78.43838169771094,0.0
1002,-5.839766919967254,1.372499171368197,78.00711327364165,0.0
1003,-5.797860204404823,1.4059914291779063,77.603796846598,0.0
1004,-5.771109948889242,1.420502976077711,77.22852564308837,0.0
1005,-5.759800259229307,1.4166758435992657,76.88142511734178,0.0
1006,-5.763035917817445,1.3978636266787159,76.56265576712192,0.0
1007,-5.778614255676197,1.3703439853611354,76.27241607079668,0.0
1008,-5.802648263153576,1.342989516558192,76.01094557616297,0.0
1009,-5.829077436560868,1.326250396590396,75.77852817377595,0.0
1010,-5.8494908276737405,1.3304098149788786,75.57549559024856,0.0
1011,-5.853838452236038,1.3632359177309465,75.40223114023784,0.0
1012,-5.832487592251719,1.4273483224952004,75.25917377970386,0.0
1013,-5.779656905544449,1.5177987805396345,75.14682250760836,0.0
1014,-5.697634710740721,1.6204763110400306,75.06574116863285,0.0
1015,-5.600575025824336,1.711931503779966,75.01656371587517,0.0
1016,-5.516332844937703,1.761039421982631,75.0,1.0
1017,-5.48496738805788,1.7325924101908643,75.0515415474799,0.0
1018,-5.553276756693605,1.592487893910704,75.20340515293054,0.0
1019,-5.765884238014021,1.31374785778541,75.45199985355548,0.0
1020,-6.1546317245548074,0.8822909447457452,75.7943889753616,0.0
1021,-6.7289103295377615,0.30127634901745826,76.2282025736325,0.0
1022,-7.469698814216363,-0.40699430038970275,76.75156174915905,0.0
1023,-8.329337379246383,-1.2022089912894722,77.3630120813106,0.0
1024,-9.237600276175895,-2.030211951937683,78.06146387238034,0.0
1025,-10.112889820021394,-2.829582205781874,78.846137232857,0.0
1026,-10.875930622761182,-3.5394985908679795,79.71651028149331,0.0
1027,-11.46268179989097,-4.107507681521675,80.67226890756302,0.0
1028,-11.83351531298679,-4.495858219447684,81.71325666107313,0.0
1029,-11.976887489254064,-4.685398453890861,82.83942341230272,0.0
1030,-11.90732890613261,-4.676559166747046,84.05077146525774,0.0
1031,-11.659051294254777,-4.487529539896894,85.34729782984778,0.0
1032,-11.277366437936156,-4.150236186331766,86.72893136403125,0.0
1033,-10.810230461152628,-3.7050525692350513,88.19546349968455,0.0
1034,-10.301666006454843,-3.195250113730018,89.74647127573498,0.0
1035,-9.787889681789581,-2.662070325125083,91.38123143246604,0.0
1036,-9.296052301193079,-2.141015554384531,93.09862438796922,0.0
1037,-8.844861339687723,-1.6596152863964533,94.89702704107779,0.0
1038,-8.446114843909617,-1.236611967508382,96.7741935483871,0.0
1039,-8.10630073783981,-0.8822872497858122,98.72712353407498,0.0
1040,-7.827769987376452,-0.5995424309628558,100.75191764230922,0.0
1041,-7.60939520414559,-0.38534824444698196,102.84362096858575,0.0
1042,-7.446913491762551,-0.2322579277262199,104.9960557454641,0.0
1043,-7.333238245203549,-0.12979309197101463,107.20164574527527,0.0
1044,-7.258933372835234,-0.0656268488010957,109.45123622608408,0.0
1045,-7.212881202191072,-0.026576486008512812,111.7339149018778,0.0
1046,-7.18305853944253,0.0005341236410276728,114.03684135370554,0.0
1047,-7.157322660206709,0.028075047002060316,116.34509446847255,0.0
1048,-7.124179024189436,0.06683217925923568,118.64154979795576,0.0
1049,-7.0735816703223655,0.12525459677762163,120.90680100755667,0.0
1050,-6.997831563690448,0.20878159469174862,123.1191415885545,0.0
1051,-6.892557149504211,0.3193426033896295,125.25462441061433,0.0
1052,-6.757615687661804,0.45513777378548526,127.28721708638827,0.0
1053,-6.597622484917764,0.6107893248212376,129.18907004818703,0.0
1054,-6.421787143078465,0.7779039326643082,130.93091123717085,0.0
1055,-6.242862839590554,0.9460140993551474,132.48257599479095,0.0
1056,-6.075274690828124,1.1037892168086654,133.813672922252,0.0
1057,-5.9327906309165135,1.2403462294002885,134.8943762338608,0.0
1058,-5.826302647679932,1.3464638339556734,135.6963229796778,0.0
1059,-5.7622951708506855,1.4155222389405786,136.19358043219205,0.0
1060,-5.742369550015473,1.4440488498519517,136.36363636363637,1.0
1061,-5.763844350187364,1.4318327524327854,136.36363636363637,0.0
1062,-5.82110136876536,1.38165427151314,136.36363636363637,0.0
1063,-5.907138762515886,1.2987376518970315,136.36363636363637,0.0
1064,-6.0148040410154575,1.1900608155998456,136.36363636363637,0.0
1065,-6.137393284887938,1.063644665774056,136.36363636363637,0.0
1066,-6.268617385978207,0.9279062061120746,136.36363636363637,0.0
1067,-6.402213790421736,0.7911127127467528,136.36363636363637,0.0
1068,-6.53160824250693,0.6609361139916303,136.36363636363637,0.0
1069,-6.649960087233805,0.544088666181315,136.36363636363637,0.0
1070,-6.750699451099379,0.44602400869227493,136.36363636363637,0.0
1071,-6.828396737201413,0.3707038486247009,136.36363636363637,0.0
1072,-6.879623071935157,0.3204476659171213,136.36363636363637,0.0
1073,-6.903447816778767,0.29589031425262213,136.36363636363637,0.0
1074,-6.90137348408863,0.29606564176704747,136.36363636363637,0.0
1075,-6.876746623596586,0.3186159886510754,136.36363636363637,0.0
1076,-6.833889171591318,0.36010546826137246,136.36363636363637,0.0
1077,-6.777277302506752,0.41639798742928985,136.36363636363637,0.0
1078,-6.711027408941262,0.4830544124044981,136.36363636363637,0.0
1079,-6.63877450410642,0.5557071988788195,136.36363636363637,0.0
1080,-6.563835087943161,0.6303807001827322,136.36363636363637,0.0
1081,-6.489426032091536,0.7037352643907483,136.36363636363637,0.0
1082,-6.418716458312837,0.7732192187327421,136.36363636363637,0.0
1083,-6.354610080318084,0.8371153366461334,136.36363636363637,0.0
1084,-6.299322826855156,0.8944719125723254,136.36363636363637,0.0
1085,-6.2539474829904655,0.9449191376977008,136.36363636363637,0.0
1086,-6.218225115879275,0.9883927750466969,136.36363636363637,0.0
1087,-6.190669121202273,1.0248173973622543,136.36363636363637,0.0
1088,-6.1690547924034655,1.0538323959255094,136.36363636363637,0.0
1089,-6.151152280703266,1.0746625687406846,136.36363636363637,0.0
1090,-6.135486493775147,1.086227707715996,136.36363636363637,0.0
1091,-6.121874068453098,1.0875432012275925,136.36363636363637,0.0
1092,-6.111518700791492,1.0783865791138911,136.36363636363637,0.0
1093,-6.1065368026171996,1.0601055203150285,136.36363636363637,0.0
1094,-6.108925552953336,1.0363450398015104,136.36363636363637,0.0
1095,-6.119159750046152,1.0134066982474106,136.36363636363637,0.0
1096,-6.134788391785219,0.9999519906636489,136.36363636363637,0.0
1097,-6.14955493727608,1.0058471913262794,136.36363636363637,0.0
1098,-6.153620949567128,1.0401203794085834,136.36363636363637,0.0
1099,-6.135353059593054,1.108240039107966,136.36363636363637,0.0
1100,-6.084785513417766,1.2091791967107837,136.36363636363637,0.0
1101,-5.998318698233507,1.3329313977781367,136.36363636363637,0.0
1102,-5.88358799306478,1.4592235436358358,136.36363636363637,0.0
1103,-5.762956617709963,1.5580719808008754,136.36363636363637,0.0
1104,-5.67399328334067,1.5925371014539362,136.36363636363637,1.0
1105,-5.665758833248599,1.52358513775414,136.36363636363637,0.0
1106,-5.79074573224059,1.3164531879356072,136.36363636363637,0.0
1107,-6.09366826145677,0.9474597466085947,136.36363636363637,0.0
1108,-6.599571076272963,0.409937323551249,136.36363636363637,0.0
1109,-7.304418223759964,-0.2820184751802439,136.36363636363637,0.0
1110,-8.171076662748442,-1.092959153008492,136.36363636363637,0.0
1111,-9.13236351246181,-1.9690408560680561,136.36363636363637,0.0
1112,-10.100920307498429,-2.844200579593859,136.36363636363637,0.0
1113,-10.98373736929121,-3.648547943015513,136.36363636363637,0.0
1114,-11.697848642162763,-4.317503663052993,136.36363636363637,0.0
1115,-12.183488990100225,-4.800073032305298,136.36363636363637,0.0
1116,-12.411881136664176,-5.064852674795875,136.36363636363637,0.0
1117,-12.386433662001567,-5.102870230236972,136.36363636363637,0.0
1118,-12.13790733985273,-4.927017053916655,136.36363636363637,0.0
1119,-11.715495882244726,-4.56848994026065,136.36363636363637,0.0
1120,-11.176430820998508,-4.071160506718133,136.36363636363637,0.0
1121,-10.576592618977722,-3.4850441470674682,136.36363636363637,0.0
1122,-9.963856538058256,-2.860020450587233,136.36363636363637,0.0
1123,-9.374832330463569,-2.240709145011845,136.36363636363637,0.0
1124,-8.834627683518365,-1.6630233453106809,136.36363636363637,0.0
1125,-8.358576806482715,-1.1525149538605661,136.36363636363637,0.0
1126,-7.954679961884075,-0.7242905164751964,136.36363636363637,0.0
1127,-7.625756311340052,-0.38406826659254056,136.36363636363637,0.0
1128,-7.37082170894004,-0.12988289878706927,136.36363636363637,0.0
1129,-7.18571130296021,0.04599991285231564,136.36363636363637,0.0
1130,-7.0632832746066345,0.15526875226974057,136.36363636363637,0.0
1131,-6.9936038646173895,0.21201122497707547,136.36363636363637,0.0
1132,-6.964385846854498,0.23144930288937604,136.36363636363637,0.0
1133,-6.961754497728694,0.2289133861180237,136.36363636363637,0.0
1134,-6.971258271027839,0.2189723869415071,136.36363636363637,0.0
1135,-6.9789796422032655,0.214650243415355,136.36363636363637,0.0
1136,-6.97262243152947,0.22669990132853035,136.36363636363637,0.0
1137,-6.942501798274951,0.26295523389685926,136.36363636363637,0.0
1138,-6.882388227755819,0.3278228796947895,136.36363636363637,0.0
1139,-6.790136409892798,0.42199745337245165,136.36363636363637,0.0
1140,-6.6679855760721525,0.5424788092764674,136.36363636363637,0.0
1141,-6.522397021568975,0.6829391841545973,136.36363636363637,0.0
1142,-6.363338310074988,0.834437401006036,136.36363636363637,0.0
1143,-6.203037822176868,0.9864180865257992,136.36363636363637,0.0
1144,-6.054379703283562,1.1278798396284517,136.36363636363637,0.0
1145,-5.929224278434847,1.248560681303939,136.36363636363637,0.0
1146,-5.836969234150578,1.339981159987332,136.36363636363637,0.0
1147,-5.783599421484088,1.3962080070559055,136.36363636363637,0.0
1148,-5.771340405908793,1.4142498794269356,136.36363636363637,1.0
1149,-5.79888795929453,1.3940611533266727,136.35790269415727,0.0
1150,-5.862078677586957,1.3381963428598467,136.3408371411156,0.0
1151,-5.954814854884636,1.2512129721668082,136.31264697422117,0.0
1152,-6.070054156889087,1.1389541333453066,136.27354464173624,0.0
1153,-6.200704125659152,1.0078480002677965,136.22374743283223,0.0
1154,-6.340304281594279,0.8643403976323429,136.16347714088613,0.0
1155,-6.483420958187878,0.7145335462808428,136.0929597285126,0.0
1156,-6.625719383241805,0.564048746234769,136.01242499509698,0.0
1157,-6.763723226702432,0.4180747529272565,135.92210624755674,0.0
1158,-6.894334586879631,0.28151896462621806,135.82223997502467,0.0
1159,-7.014261744374738,0.1591553480739049,135.71306552810773,0.0
1160,-7.119558857240027,0.0556672333161328,135.59482480333747,0.0
1161,-7.205482766794718,-0.024485221824377235,135.4677619333885,0.0
1162,-7.2667972471872595,-0.07739048384484448,135.3321229836005,0.0
1163,-7.298520322951798,-0.10016031402226538,135.18815565530025,0.0
1164,-7.296960959126495,-0.09145549241803982,135.03610899637826,0.0
1165,-7.260778999085047,-0.05193170573671682,134.87623311953516,0.0
1166,-7.191763798570263,0.015525965637831346,134.70877892857285,0.0
1167,-7.095076638754222,0.10587757951053467,134.53399785306522,0.0
1168,-6.978829411817037,0.2123472800342413,134.35214159170508,0.0
1169,-6.853043292726624,0.3271456135486924,134.1634618645855,0.0
1170,-6.7281948654878825,0.442381874862898,133.96821017463645,0.0
1171,-6.61366233586148,0.5510031140745084,133.7666375784016,0.0
1172,-6.516402296799352,0.6475818709956271,133.55899446630556,0.0
1173,-6.440122552929665,0.728800590242288,133.3455303525277,0.0
1174,-6.385097518715897,0.7935424765022915,133.12649367456658,0.0
1175,-6.348633528745893,0.8425832526716347,132.90213160254822,0.0
1176,-6.326059121324599,0.8779672868590577,132.67268985830214,0.0
1177,-6.312011124404164,0.9022247551634254,132.43841254420084,0.0
1178,-6.301729842339291,0.9176266013935387,132.1995419817331,0.0
1179,-6.2920783992735085,0.9256702291755518,131.95631855975535,0.0
1180,-6.282061849487189,0.9269392128399048,131.7089805923438,0.0
1181,-6.272727071598852,0.9213925928209599,131.45776418614773,0.0
1182,-6.266454782489987,0.9090298963286534,131.20290311712463,0.0
1183,-6.265790178635751,0.8907692173621569,130.94462871652001,0.0
1184,-6.272076752284576,0.8692918888190923,130.68316976593772,0.0
1185,-6.284232231922,0.8495703762173388,130.41875240133155,0.0
1186,-6.298012493373739,0.8388208734236833,130.15160002573583,0.0
1187,-6.306041879153793,0.8457127221701559,129.8819332305397,0.0
1188,-6.298762895935423,0.8788141107346862,129.60996972510029,0.0
1189,-6.2663019611845545,0.9444350289830907,129.33592427447982,0.0
1190,-6.201079579058818,1.0442104090227975,129.0600086450842,0.0
1191,-6.100817277160058,1.1729084693212521,128.78243155797387,0.0
1192,-5.971413920836204,1.3170117923466154,128.50339864961288,0.0
1193,-5.829007086550931,1.454571322400113,128.22311243981676,0.0
1194,-5.700461159454458,1.5566646287580959,127.94177230665804,0.0
1195,-5.621615827487065,1.5905137840968755,127.65957446808511,1.0
1196,-5.632959270468498,1.5239781628507099,127.34566189095776,0.0
1197,-5.772972078846864,1.3308009635744207,126.97076667892287,0.0
1198,-6.07012531912938,0.995735037553463,126.5375642201616,0.0
1199,-6.535192196655466,0.5185765429747632,126.04884251791722,0.0
1200,-7.155862214761697,-0.0837612253471205,125.50748016863281,0.0
1201,-7.8953972071003795,-0.7776972829424948,124.91642489054362,0.0
1202,-8.696198036358254,-1.5160666945792722,124.27867282590624,0.0
1203,-9.487876828468579,-2.243444176602664,123.5972488088973,0.0
1204,-10.19817086784243,-2.9028703575625263,122.87518775912558,0.0
1205,-10.764237043853573,-3.442868597597006,122.11551732858051,0.0
1206,-11.141806770487587,-3.8235983925607897,121.32124189849034,0.0
1207,-11.31035359879014,-4.021188968613464,120.49532799266457,0.0
1208,-11.273562717707712,-4.029680037522675,119.64069114599465,0.0
1209,-11.055601428872455,-3.8604682767757703,118.76018424130604,0.0
1210,-10.69461571400098,-3.539604827406662,117.85658730498258,0.0
1211,-10.23530493838173,-3.1036136041604507,116.93259873189764,0.0
1212,-9.722308721010736,-2.5946454605531213,115.99082789325571,0.0
1213,-9.195577855995548,-2.05574365532462,115.03378906695025,0.0
1214,-8.688103433007468,-1.5268129104671542,114.06389661888339,0.0
1215,-8.22561026510658,-1.0416283438288207,113.0834613552125,0.0
1216,-7.827328665452964,-0.6259679756278456,112.09468795948499,0.0
1217,-7.506880717941457,-0.2967628177658004,111.09967342486222,0.0
1218,-7.272626145200896,-0.062060284055900916,110.10040638986328,0.0
1219,-7.127331147984901,0.0784150596200699,109.0987672860165,0.0
1220,-7.067508647709616,0.1322743366101392,108.09652920723258,0.0
1221,-7.083031635447697,0.11315955630127605,107.09535941335582,0.0
1222,-7.1575658526278065,0.03918463112415538,106.09682138396666,0.0
1223,-7.270064206756009,-0.06882503450075023,105.10237734288609,0.0
1224,-7.397167623551226,-0.18921912136891783,104.11339117876346,0.0
1225,-7.516038022063063,-0.30142002727882206,103.13113169244075,0.0
1226,-7.607025920670102,-0.38768075755522513,102.15677610732051,0.0
1227,-7.655668710998056,-0.43453874877691767,101.19141378459092,0.0
1228,-7.65375623734391,-0.4338184373050915,100.23605009076611,0.0
1229,-7.599471873043141,-0.3830809665321163,99.29161037049394,0.0
1230,-7.4968138413344825,-0.2854833428563152,98.3589439828934,0.0
1231,-7.354569163437563,-0.1490784667610105,97.43882836475294,0.0
1232,-7.1850620718299565,0.014349886529828937,96.53197308871059,0.0
1233,-7.002790272399364,0.19077463646057746,95.63902388901647,0.0
1234,-6.822973131374731,0.36556258496813565,94.76056663163025,0.0
1235,-6.660021909389887,0.5250771071848247,93.89713120922728,0.0
1236,-6.5260109995991735,0.6580706048613721,93.04919534516888,0.0
1237,-6.429335325611714,0.7567188310887105,92.21718829364981,0.0
1238,-6.373808864316243,0.8171952441235854,91.40149442607189,0.0
1239,-6.358431963353206,0.8397438725113422,90.6024566962267,0.0
1240,-6.3779182892174395,0.8282762384567459,89.82037997911645,0.0
1241,-6.4238714628423494,0.7895811036891821,89.05553428022161,0.0
1242,-6.4863197362162035,0.7322838158813422,88.3081578137522,0.0
1243,-6.555234309544418,0.6657159751927878,87.5784599499248,0.0
1244,-6.621709269053782,0.5988524700786806,86.86662403260087,0.0
1245,-6.678641812515805,0.5394445554008465,86.17281006973099,0.0
1246,-6.7209438707991955,0.4934327516376501,85.49715729999151,0.0
1247,-6.745453502360744,0.4646724595437955,84.83978663979072,0.0
1248,-6.750742940436196,0.4549577881712598,84.20080301548526,0.0
1249,-6.73694436864729,0.46429125886152733,83.58029758619357,0.0
1250,-6.705591207393485,0.4913210179751598,82.97834986304323,0.0
1251,-6.659379770154409,0.5338527631826575,82.39502973105544,0.0
1252,-6.601751669212837,0.589340241637701,81.83039938016407,0.0
1253,-6.536288593146161,0.6552665525113351,81.28451515210688,0.0
1254,-6.466048598156797,0.7293502112898989,80.7574293101176,0.0
1255,-6.393074737242715,0.8095457935339762,80.24919173850597,0.0
1256,-6.318302003938057,0.8938564072971292,79.75985157934359,0.0
1257,-6.241959179405452,0.9800266951249812,79.28945881359057,0.0
1258,-6.164357248406936,1.0652284918076984,78.83806579410593,0.0
1259,-6.086769341540672,1.1458730380949553,78.40572873809329,0.0
1260,-6.012030041244141,1.2176730182543491,77.99250918665147,0.0
1261,-5.944557005861089,1.2760310271029978,77.59847543923165,0.0
1262,-5.889697566410762,1.3167542205664522,77.22370397095922,0.0
1263,-5.852542741693462,1.3370026015898817,76.86828084096348,0.0
1264,-5.836531205791603,1.3362910244915822,76.53230310008219,0.0
1265,-5.842220135275263,1.3173038673330024,76.21588020657506,0.0
1266,-5.866527660595297,1.2862639988763016,75.91913545880165,0.0
1267,-5.902612578673768,1.2526345987235699,75.64220745420018,0.0
1268,-5.9404321563259845,1.2280250433188227,75.38525158435583,0.0
1269,-5.96795911801102,1.2243122440115994,75.14844157647916,0.0
1270,-5.97303304580933,1.2511585578678341,74.93197109223844,0.0
1271,-5.9458050087654115,1.3132794543850288,74.73605539561697,0.0
1272,-5.881633974226417,1.4079538034673962,74.56093310231157,0.0
1273,-5.784079980235304,1.5233390711069603,74.40686802416751,0.0
1274,-5.6673587183316485,1.6381193681848418,74.27415112327733,0.0
1275,-5.557394408051541,1.7228572352459486,74.1631025916765,0.0
1276,-5.49058652841199,1.7431461283478464,74.07407407407408,1.0
1277,-5.509715566368116,1.6643069837829376,73.9965772985187,0.0
1278,-5.65707589748908,1.4570061762506665,73.9198744379424,0.0
1279,-5.96580910613734,1.10287943794699,73.84396780944277,0.0
1280,-6.4512397165394635,0.599110772300105,73.76885973389885,0.0
1281,-7.104445853866026,-0.039005632931921164,73.69455253687991,0.0
1282,-7.890070238127845,-0.7781895703068009,73.62104854955363,0.0
1283,-8.749455599905989,-1.5701754561862722,73.54835010959378,0.0
1284,-9.608815785532055,-2.3572244311680066,73.47645956208746,0.0
1285,-10.390775479685692,-3.0792773614499196,73.40537926044222,0.0
1286,-11.026694819203545,-3.6815433296331466,73.33511156729337,0.0
1287,-11.46703342450404,-4.121235411620775,73.26565885541136,0.0
1288,-11.68761487873134,-4.37235381539662,73.19702350860975,0.0
1289,-11.690787645532549,-4.427827342324225,73.1292079226538,0.0
1290,-11.501770113217354,-4.298855845513618,73.06221450616992,0.0
1291,-11.161549842007393,-4.011822440837722,72.99604568155627,0.0
1292,-10.71831876306349,-3.6035475865317137,72.93070388589456,0.0
1293,-10.21946162156852,-3.115859469553988,72.86619157186352,0.0
1294,-9.70563728585007,-2.590433640930531,72.80251120865397,0.0
1295,-9.207702737591063,-2.0646427849885924,72.73966528288595,0.0
1296,-8.746391302485197,-1.5688297670847415,72.67765629952807,0.0
1297,-8.334002008452574,-1.1250662983096964,72.61648678281925,0.0
1298,-7.9770211062315735,-0.7471702182911988,72.55615927719306,0.0
1299,-7.678607272941076,-0.44158243939604513,72.49667634820524,0.0
1300,-7.4401726296549695,-0.20866696432853227,72.43804058346402,0.0
1301,-7.261767940404599,-0.04407349048102871,72.38025459356417,0.0
1302,-7.141479552726885,0.06005480770738114,72.32332101302451,0.0
1303,-7.074409763105087,0.11409157821560045,72.26724250122943,0.0
1304,-7.0519294779402015,0.13010155487089914,72.21202174337455,0.0
1305,-7.061741983287927,0.12107138223154468,72.15766145141689,0.0
1306,-7.088957667047583,0.10010259079260375,72.10416436502959,0.0
1307,-7.117991214401456,0.0795322590310149,72.05153325256194,0.0
1308,-7.134797488400435,0.07002269037406084,71.99977091200427,0.0
1309,-7.128855104385092,0.07972208900744804,71.94888017195872,0.0
1310,-7.094408911907578,0.11362291046498507,71.89886389261571,0.0
1311,-7.030740597115792,0.17322773608163322,71.84972496673656,0.0
1312,-6.941544084483939,0.25658314088471035,71.80146632064252,0.0
1313,-6.833721537096089,0.35867810698096425,71.75409091521065,0.0
1314,-6.7160050269757585,0.4721445829067241,71.70760174687659,0.0
1315,-6.597736556359577,0.5881581490806777,71.66200184864478,0.0
1316,-6.487963778842397,0.6974220764331237,71.6172942911063,0.0
1317,-6.394826618972506,0.7911255904870351,71.57348218346493,0.0
1318,-6.325105273061329,0.861788844190527,71.5305686745712,0.0
1319,-6.283805998986609,0.9039338577202074,71.48855695396536,0.0
1320,-6.273750040620898,0.9145456668430717,71.44745025292931,0.0
1321,-6.295236500713277,0.8933079436017507,71.40725184554805,0.0
1322,-6.345905705149359,0.8426123189111024,71.36796504978045,0.0
1323,-6.420903580746128,0.7673519672000707,71.32959322854062,0.0
1324,-6.513355021428123,0.6745191913812709,71.29213979078938,0.0
1325,-6.61504675777539,0.5726347312036049,71.25560819263686,0.0
1326,-6.717158707103387,0.47104402640549353,71.22000193845598,0.0
1327,-6.810905109723974,0.37912369257747924,71.18532458200798,0.0
1328,-6.888044072292149,0.3054512649369845,71.15157972757963,0.0
1329,-6.941328994449476,0.2570034265169694,71.11877103113306,0.0
1330,-6.9650299458372364,0.2384609609438354,71.08690220146843,0.0
1331,-6.955597429879132,0.25170799170584846,71.05597700139985,0.0
1332,-6.912391923155431,0.29561159115115726,71.02599924894501,0.0
1333,-6.838242764831983,0.36614833380811856,70.99697281852904,0.0
1334,-6.739531626961567,0.4569030654720751,70.96890164220298,0.0
1335,-6.625577786972179,0.5599049888304857,70.94178971087726,0.0
1336,-6.507313236192086,0.6666978862486386,70.91564107557083,0.0
1337,-6.395485910903255,0.7694815805908947,70.89045984867636,0.0
1338,-6.298811613713132,0.8621285179070588,70.86625020524178,0.0
1339,-6.222536935822413,0.9408860606629663,70.84301638426922,0.0
1340,-6.167766599011384,1.004625761165487,70.82076269003115,0.0
1341,-6.131697104010958,1.0545880950304671,70.79949349340485,0.0
1342,-6.108663304338083,1.093677210423968,70.77921323322542,0.0
1343,-6.091719520203857,1.1254615188103427,70.75992641765806,0.0
1344,-6.074382396300201,1.1531084955751836,70.74163762558995,0.0
1345,-6.052158386243318,1.1785073674639521,70.72435150804264,0.0
1346,-6.023540425382318,1.201802577784988,70.7080727896053,0.0
1347,-5.990263715465248,1.221476884872339,70.69280626988942,0.0
1348,-5.956749239050171,1.2349999491276393,70.67855682500578,0.0
1349,-5.9288258920743795,1.2399196703130144,70.66532940906427,0.0
1350,-5.911983538206815,1.2351478147025596,70.65312905569684,0.0
1351,-5.909532504679218,1.2221071291931822,70.64196087960492,0.0
1352,-5.921098194264126,1.2053873257728747,70.63183007813144,0.0
1353,-5.941851482961707,1.1926148757445314,70.62274193285839,0.0
1354,-5.96277419601684,1.1933753256345696,70.61470181123052,0.0
1355,-5.972098880379171,1.2172199874057248,70.60771516820608,0.0
1356,-5.9578584402486765,1.271009663257042,70.60178754793515,0.0
1357,-5.911252422436901,1.3560537104802073,70.59692458546661,0.0
1358,-5.830308132705429,1.465645898472378,70.59313200848406,0.0
1359,-5.723118386216415,1.5836363527208968,70.59041563907212,0.0
1360,-5.609815129730398,1.684583428925,70.58878139551346,0.0
1361,-5.522448345839802,1.7357970164675613,70.58823529411765,1.0
1362,-5.502155743774074,1.701242599829556,70.63284890195327,0.0
1363,-5.593483521331445,1.5468813588399555,70.76445387783751,0.0
1364,-5.836423259526602,1.246656679014567,70.98013919026742,0.0
1365,-6.257509320443931,0.7880897734464315,71.27752448879653,0.0
1366,-6.861912740352588,0.17639033391150705,71.65469463926148,0.0
1367,-7.628599879260051,-0.56384037387798,72.1101432069393,0.0
1368,-8.510147179280256,-1.3898508977103452,72.64272295886333,0.0
1369,-9.437782164226284,-2.2449309578890935,73.2516017683835,0.0
1370,-10.33093396903395,-3.0649911998888912,73.9362225387666,0.0
1371,-11.109417059874895,-3.786493352893026,74.69626593524923,0.0
1372,-11.705695865620624,-4.354417398401717,75.53161483924046,0.0
1373,-12.074677513104971,-4.728943111182918,76.44231952402957,0.0
1374,-12.199129797522044,-4.889782598987584,77.42856260592403,0.0
1375,-12.08991123299935,-4.837566998480475,78.49062285431567,0.0
1376,-11.78141447643965,-4.592255740907648,79.62883695393379,0.0
1377,-11.3236397313454,-4.189073335338199,80.84355830725788,0.0
1378,-10.772887136121673,-3.672872352227513,82.13511194950331,0.0
1379,-10.183088223918686,-3.091998726481196,83.50374462795523,0.0
1380,-9.599350302130953,-2.49267887893622,84.9495690777473,0.0
1381,-9.054546466100508,-1.9146954054355585,86.47250151477579,0.0
1382,-8.568969015281867,-1.388748742302034,88.07219137235467,0.0
1383,-8.152368232933144,-0.9355141485631009,89.74794234269673,0.0
1384,-7.807258879572547,-0.5660869708915747,91.49862386124461,0.0
1385,-7.532269062592183,-0.2833259486349522,93.32257230820561,0.0
1386,-7.3245345139806695,-0.0835746049091528,95.21748141757836,0.0
1387,-7.18062493855045,0.04165678647824811,97.18028170299182,0.0
1388,-7.0960720564430755,0.10428422705336426,99.20700915813565,0.0
1389,-7.064066635682616,0.11855839903005416,101.29266409555484,0.0
1390,-7.074155000646325,0.10018049277750174,103.43106177900506,0.0
1391,-7.111728843063247,0.0654536492239024,105.61467750591459,0.0
1392,-7.1587975699986925,0.030325672552516614,107.83449002413109,0.0
1393,-7.196070492608003,0.009274694568436548,110.07982862275344,0.0
1394,-7.205908611050344,0.014111635179228976,112.3382308991051,0.0
1395,-7.175380815621224,0.05287449392902621,114.59532001833861,0.0
1396,-7.098579266991033,0.1290331948454938,116.83471215024382,0.0
1397,-6.977538932837038,0.24119480566016682,119.03796653661482,0.0
1398,-6.821505560774964,0.383407195999658,121.18459209730467,0.0
1399,-6.64477444679112,0.5460343846708067,123.25212534654355,0.0
1400,-6.463721919022366,0.7170578882569341,125.21629433322882,0.0
1401,-6.293842234602184,0.8835801553550366,127.0512819822832,0.0
1402,-6.1475274664250295,1.033288302412031,128.73009925811843,0.0
1403,-6.033022829965953,1.1556779790771596,130.22507373582337,0.0
1404,-5.954569261012488,1.2429187810845481,131.5084523519923,0.0
1405,-5.913359585084272,1.2903342032905387,132.5531084630773,0.0
1406,-5.90871760276395,1.2965414127944825,133.33333333333334,1.0
1407,-5.938930778796227,1.263330755224176,133.9720575388873,0.0
1408,-6.001409121462197,1.1953599759816973,134.6079421209602,0.0
1409,-6.092204492551728,1.0997072971085555,135.24042967093544,0.0
1410,-6.205257876400091,0.9852932288831151,135.86894628561345,0.0
1411,-6.331909240364473,0.8621648342627746,136.49290169678576,0.0
1412,-6.461135489224357,0.7406496461597839,137.11168945654023,0.0
1413,-6.580704001943373,0.6304263996871777,137.72468718150526,0.0
1414,-6.6790539456100895,0.5396096530499006,138.33125685919944,0.0
1415,-6.747393668640194,0.47398212933613526,138.9307452195828,0.0
1416,-6.781358471173095,0.4365120735863037,139.52248417481087,0.0
1417,-6.7816713162443,0.42725439136020926,140.1057913300645,0.0
1418,-6.753562569065618,0.44366067267907944,140.6799705681713,0.0
1419,-6.705122529772343,0.48123489015947135,141.24431271054198,0.0
1420,-6.6451242353373505,0.5343954671602178,141.7980962567176,0.0
1421,-6.5810202291075015,0.597364067249066,142.34058820456102,0.0
1422,-6.517719063651206,0.6649085744168632,142.87104495282253,0.0
1423,-6.457426928673083,0.7328183008992103,143.38871328747211,0.0
1424,-6.400429768251651,0.7980658019105573,143.89283145280962,0.0
1425,-6.346357507425962,0.8586875226736365,144.38263030794826,0.0
1426,-6.295343519925654,0.9134730686212841,144.85733456880848,0.0
1427,-6.248609685439571,0.9615782719829825,145.31616413526606,0.0
1428,-6.2083083113255295,1.002171227051648,145.7583355025667,0.0
1429,-6.176799828087292,1.0341939697547495,146.18306325555466,0.0
1430,-6.1557860173086425,1.0562898966977394,146.58956164366555,0.0
1431,-6.14574965303193,1.066918941644398,146.97704623400648,0.0
1432,-6.145966463074898,1.0646610240981484,147.34473563919806,0.0
1433,-6.155046117868281,1.048687084269767,147.69185331597842,0.0
1434,-6.171671378487008,1.01934652864669,148.01762942988532,0.0
1435,-6.19507193723503,0.9787747938707991,148.32130278063408,0.0
1436,-6.224857752259756,0.9313704297783341,148.6021227821106,0.0
1437,-6.260122242806207,0.8839458362718344,148.85935149020148,0.0
1438,-6.298106989251047,0.845346335485222,149.09226567099938,0.0
1439,-6.33305067686088,0.8253841303386145,149.30015890125475,0.0
1440,-6.3559813850529485,0.8330589428026307,149.48234369230653,0.0
1441,-6.356059142235223,0.8742243426049836,149.63815362812068,0.0
1442,-6.323632674709778,0.9490698256089392,149.76694550750696,0.0
1443,-6.254545508685237,1.0499647527382352,149.86810148007785,0.0
1444,-6.154603916850836,1.160286882910137,149.94103116506935,0.0
1445,-6.042727658011746,1.254785813539229,149.985173741769,0.0
1446,-5.951330901737718,1.3017949665591004,150.0,1.0
1447,-5.9230050516995485,1.2672358551504646,149.97711187013627,0.0
1448,-6.003523073798948,1.119931294575016,149.90989638083795,0.0
1449,-6.23232026846104,0.8373651510454339,149.80058008802143,0.0
1450,-6.632578430619758,0.4108019464013073,149.6514504160108,0.0
1451,-7.203488157192162,-0.15131300363929923,149.46484343014887,0.0
1452,-7.916955026284313,-0.8224921404104688,149.24313212483648,0.0
1453,-8.719963485032208,-1.5602349275849843,148.98871530814273,0.0
1454,-9.542311889132021,-2.310729316901608,148.70400715030536,0.0
1455,-10.307968893290383,-3.015468103698528,148.39142744990556,0.0
1456,-10.947364835991875,-3.6186450424325294,148.05339265850944,0.0
1457,-11.407815785811447,-4.074066182740941,147.69230769230768,0.0
1458,-11.659970197114449,-4.350453166613342,147.31055854792297,0.0
1459,-11.699379430450849,-4.434380665368309,146.91050572920616,0.0
1460,-11.54359661040416,-4.330580777903121,146.49447848259163,0.0
1461,-11.22620561324798,-4.059841922270511,146.0647698304736,0.0
1462,-10.78962882282835,-3.655119084815768,145.62363238512035,0.0
1463,-10.278421066836447,-3.1566855446950073,145.1732749198443,0.0
1464,-9.734183244976014,-2.60717444566495,144.7158596694694,0.0
1465,-9.192496100552813,-2.0472117495087088,144.25350032852623,0.0
1466,-8.68165669401067,-1.512093225042337,143.78826071299963,0.0
1467,-8.222661756510487,-1.0296816062287864,143.32215404977958,0.0
1468,-7.829833424697005,-0.6194610696042409,142.85714285714286,0.0
1469,-7.511622021949353,-0.2925267759213671,142.39513937953984,0.0
1470,-7.2713199119969385,-0.05222131152013443,141.93800654059433,0.0
1471,-7.107593141057186,0.10485368760804381,141.48755937946382,0.0
1472,-7.014854024282253,0.18765155453332028,141.04556693747793,0.0
1473,-6.983566477812109,0.2094302566273789,140.61375456420257,0.0
1474,-7.0006160775269235,0.1864687249257092,140.19380661470402,0.0
1475,-7.04989867861456,0.1367358520622335,139.7873695127528,0.0
1476,-7.113276676536333,0.07849590634220893,139.39605515796822,0.0
1477,-7.171998419855268,0.028869538151109264,139.02144465841954,0.0
1478,-7.208556689019101,0.0024262185743126885,138.66509237394084,0.0
1479,-7.208788537768637,0.00993895896492003,138.32853025936598,0.0
1480,-7.163844134144254,0.0574627076427664,138.0132725010369,0.0
1481,-7.071556032320073,0.14588791051996897,137.72082044428157,0.0
1482,-6.93679067435252,0.27106634652258854,137.4526678141136,0.0
1483,-6.770576625836704,0.4245174097003368,137.2103062361878,0.0
1484,-6.5881238633918695,0.5946210389908344,136.99523107009298,0.0
1485,-6.406166159548233,0.7681154812285358,136.80894757241634,0.0
1486,-6.240256119553478,0.9316681494228978,136.652977412731,0.0
1487,-6.102642834547651,1.0732895464759875,136.52886557180867,0.0
1488,-6.001161680856175,1.183412030061767,136.4381876580332,0.0
1489,-5.939235243587258,1.2555409488157894,136.3825576852878,0.0
1490,-5.916741517862394,1.2864799616188767,136.36363636363637,1.0
1491,-5.931271245656104,1.2762088630330628,136.38649660028244,0.0
1492,-5.979249381537097,1.227532310714374,136.45357167223852,0.0
1493,-6.056543403544933,1.1456160756640978,136.56266092344808,0.0
1494,-6.158455982786777,1.0374925067709975,136.71162960262484,0.0
1495,-6.2792867701092785,0.9115675359958616,136.89839572192514,0.0
1496,-6.411834317888207,0.7771191564477764,137.12091779600976,0.0
1497,-6.547229132260207,0.6437581654735984,137.3771833670575,0.0
1498,-6.675347975464665,0.5208317819517423,137.66519823788545,0.0
1499,-6.785823632600443,0.4167833613935323,137.9829763502928,0.0
1500,-6.869426960796223,0.3385219018383455,138.328530259366,0.0
1501,-6.919444444334988,0.2908856811708587,138.69986216701196,0.0
1502,-6.93265554153294,0.2762914336504632,139.09495548961425,0.0
1503,-6.909633026771547,0.2946389630179569,139.5117669455933,0.0
1504,-6.854301729173598,0.34349619956605126,139.9482191589112,0.0
1505,-6.772918910091063,0.4185345773277894,140.40219378427787,0.0
1506,-6.672800684779303,0.5141354296285332,140.8715251690458,0.0
1507,-6.561158585065848,0.6240585478645931,141.35399457554047,0.0
1508,-6.444322226181477,0.7420610389854679,141.84732499586278,0.0
1509,-6.327450074564016,0.8623768321463742,142.34917659898161,0.0
1510,-6.214641876317083,0.9800065644418469,142.85714285714283,0.0
1511,-6.1092364116417865,1.090812883551532,143.36874740517501,0.0
1512,-6.014055035665172,1.191457013206074,143.88144169204577,0.0
1513,-5.931439455637924,1.2792418647433688,144.39260348888627,0.0
1514,-5.863087176969397,1.351942293044484,144.89953632148374,0.0
1515,-5.809831908759262,1.4077041833094202,145.399469897766,0.0
1516,-5.771571263920451,1.4450811416030718,145.88956160186737,0.0
1517,-5.747473258822762,1.4632497007938086,146.3668991257627,0.0
1518,-5.73642360647751,1.4623996357607567,146.82850430696945,0.0
1519,-5.737490837245093,1.444236020234393,147.27133823624163,0.0
1520,-5.750088760116911,1.4124610903717718,147.69230769230768,0.0
1521,-5.773581878760076,1.373042699016701,148.08827295136842,0.0
1522,-5.806320907360355,1.334045883929417,148.45605700712588,0.0
1523,-5.844442704158016,1.3048305243405351,148.79245622246953,0.0
1524,-5.881081413095258,1.294518926119459,149.0942524165693,0.0
1525,-5.906748628865169,1.3098112171193972,149.35822637106185,0.0
1526,-5.9114270497621755,1.3524460176984952,149.5811727163941,0.0
1527,-5.888375024271013,1.4168153795646428,149.75991613444697,0.0
1528,-5.838895816206039,1.488377523201915,149.89132878662969,0.0
1529,-5.776641932726672,1.543503757702437,149.97234884818113,0.0
1530,-5.729695654173704,1.551210084790921,150.0,1.0
1531,-5.73891472277369,1.4768693257254202,149.97263873669138,0.0
1532,-5.851907079831129,1.2875404370066916,149.89225851377063,0.0
1533,-6.113318929002805,0.9580967281896258,149.76149095884332,0.0
1534,-6.55348866992558,0.47701044211391996,149.5830551877346,0.0
1535,-7.178432753482253,-0.14943512970373696,149.35974048147514,0.0
1536,-7.964169506704066,-0.89553091987683,149.09438963333824,0.0
1537,-8.857416253227377,-1.7176805099554482,148.7898831043543,0.0
1538,-9.78296297539618,-2.5590144797390506,148.4491241026532,0.0
1539,-10.656104737459712,-3.3563593294006497,148.07502467917078,0.0
1540,-11.397076662938764,-4.048345535726325,147.6704929101958,0.0
1541,-11.943969004576914,-4.583218096727575,147.23842121633612,0.0
1542,-12.261217371525092,-4.925013723050439,146.7816758480719,0.0
1543,-12.342181038819891,-5.057154629828882,146.30308755038993,0.0
1544,-12.206013663446242,-4.983070470026338,145.80544340322035,0.0
1545,-11.890448900709933,-4.724050759392069,145.29147982062779,0.0
1546,-11.442885291406977,-4.315009686223799,144.76387667997585,0.0
1547,-10.91212842104873,-3.7991170255185707,144.2252525425718,0.0
1548,-10.342452399018375,-3.2222818390840056,143.67816091954023,0.0
1549,-9.770586912734982,-2.6283036695167725,143.12508753077483,0.0
1550,-9.225215637068057,-2.055208846618796,142.5684485006519,0.0
1551,-8.72792798607696,-1.532963199168555,142.010589431607,0.0
1552,-8.294459497500425,-1.0824791219295655,141.45378529553298,0.0
1553,-7.935416900835409,-0.7156628778351148,140.90024108308282,0.0
1554,-7.656271176148241,-0.43618565899811546,140.35209315220405,0.0
1555,-7.456931143858155,-0.24068560899223523,139.81141121943423,0.0
1556,-7.331475288969529,-0.1201780431458066,139.28020094050754,0.0
1557,-7.268556937764678,-0.061529061951495434,138.7604070305273,0.0
1558,-7.252684668586826,-0.04890854679505141,138.25391687823034,0.0
1559,-7.266184857678889,-0.06517419725482765,137.7625646136034,0.0
1560,-7.291362364145361,-0.09315408580389417,137.28813559322035,0.0
1561,-7.312313858482309,-0.11680160701465003,136.83237127308536,0.0
1562,-7.316029845857402,-0.1222015893797398,136.39697444443337,0.0
1563,-7.292746985402916,-0.09841125163780873,135.98361481381997,0.0
1564,-7.235820879430037,-0.0381209176166476,135.59393491491124,0.0
1565,-7.141535805716996,0.06188734517979255,135.22955634564846,0.0
1566,-7.0091890121552805,0.20051954962269047,134.89208633093526,0.0
1567,-6.84152838515412,0.3724397384944228,134.58312461769654,0.0
1568,-6.645312441158535,0.5684855544690567,134.30427071614207,0.0
1569,-6.431552604072386,0.7764654572930512,134.05713150839097,0.0
1570,-6.214995946840483,0.9823257950100388,133.84332925336597,0.0
1571,-6.012626221749018,1.1716059147947706,133.66451002514384,0.0
1572,-5.841318846129175,1.3310245659163618,133.52235263088488,0.0
1573,-5.715136760760678,1.4499844619973932,133.4185780642044,0.0
1574,-5.642952676882224,1.5217654983587943,133.35495956058108,0.0
1575,-5.627041897102608,1.5442120488942443,133.33333333333334,1.0
1576,-5.6630170806260205,1.5198021848507446,133.34821219658815,0.0
1577,-5.741074507613487,1.4550980489129073,133.39190804730148,0.0
1578,-5.848144355664537,1.3596893948809385,133.46303501945525,0.0
1579,-5.970323122289287,1.2448285633337552,133.56023622898925,0.0
1580,-6.09497763950129,1.1219952917605123,133.68217823568682,0.0
1581,-6.21211488952487,1.0016178079021285,133.82754584471323,0.0
1582,-6.31490767927191,0.8921208579006332,133.99503722084367,0.0
1583,-6.399531917097789,0.7993900205730072,134.18335929293295,0.0
1584,-6.464616143327327,0.7266566440756083,134.39122343030658,0.0
1585,-6.5105985019822805,0.6747376349081515,134.61734137655353,0.0
1586,-6.539167735780526,0.6425202823093406,134.8604214297156,0.0
1587,-6.552816669740786,0.6275669708713034,135.11916486113847,0.0
1588,-6.554445730193477,0.6267239816561039,135.39226256830102,0.0
1589,-6.54696200850794,0.636645014347041,135.678391959799,0.0
1590,-6.532899976749997,0.6541752933940134,135.97621407333995,0.0
1591,-6.514169771294402,0.6765787711149345,136.28437093012133,0.0
1592,-6.492048349968926,0.7016229114058739,136.60148313131725,0.0
1593,-6.467446878234333,0.7275579294327819,136.92614770459082,0.0
1594,-6.441352856199545,0.7530367997393593,137.25693621057624,0.0
1595,-6.415231769613725,0.7770179858184072,137.59239312112322,0.0
1596,-6.391150997704843,0.798677533234627,137.93103448275863,0.0
1597,-6.371489745510629,0.8173376764648497,138.27134688027232,0.0
1598,-6.358293739752355,0.8324045727872923,138.61178671655753,0.0
1599,-6.35253556088201,0.843306304337121,138.95077982580514,0.0
1600,-6.353641539184618,0.8494368505041269,139.28672143783723,0.0
1601,-6.359571007125713,0.8501372428269562,139.6179765117366,0.0
1602,-6.367496197969185,0.8447686000016369,139.94288045695635,0.0
1603,-6.374834621267875,0.8329363755936721,140.25974025974025,0.0
1604,-6.380174619401295,0.8148972336112723,140.5668360319201,0.0
1605,-6.383619316150274,0.7921163066353407,140.86242299794662,0.0
1606,-6.386276126844312,0.7678551236346152,141.14473393432755,0.0
1607,-6.388965324076026,0.7475856405217369,141.41198207346218,0.0
1608,-6.390580321808942,0.7389779158196507,141.66236448115646,0.0
1609,-6.386768541215189,0.751229431962247,141.8940659138615,0.0
1610,-6.369622822165698,0.7936093895417958,142.10526315789474,0.0
1611,-6.328859101903052,0.8732742085340448,142.29412984857913,0.0
1612,-6.254560169195221,0.9926371664638378,142.45884176239173,0.0
1613,-6.14109154413347,1.146790426655419,142.5975825698668,0.0
1614,-5.991361005785174,1.321617461982833,142.7085500312045,0.0
1615,-5.820300076792919,1.4932416929576688,142.78996261033805,0.0
1616,-5.656373959738266,1.629301793145944,142.84006647669653,0.0
1617,-5.540136691224222,1.6922325524109392,142.85714285714286,1.0
1618,-5.5193692711967115,1.6443123677819396,142.79718326597668,0.0
1619,-5.641130128168083,1.4538009630000832,142.61964132695778,0.0
1620,-5.941963079568551,1.1011396248705996,142.32843310955664,0.0
1621,-6.438296163982246,0.5840203689842834,141.92797403623993,0.0
1622,-7.119431263754649,-0.07978516638927224,141.42311553426293,0.0
1623,-7.945245453186399,-0.8526035047730849,140.81907950450457,0.0
1624,-8.84976305011651,-1.6802664111670458,140.12139198785977,0.0
1625,-9.75032144801823,-2.4983390178100064,139.33581731514244,0.0
1626,-10.560558973638576,-3.2401868537763137,138.4682939008418,0.0
1627,-11.204379850308063,-3.845519628227491,137.52487269263096,0.0
1628,-11.627762402082316,-4.26795579767457,136.5116591255094,0.0
1629,-11.805874615577155,-4.480365910188446,135.43475925972217,0.0
1630,-11.744251303950886,-4.477219073477061,134.30023061221036,0.0
1631,-11.474351878570966,-4.2737590612302245,133.11403802836537,0.0
1632,-11.045167682831423,-3.9024297767411147,131.88201478914388,0.0
1633,-10.513292918103895,-3.4074208834145914,130.60982901179096,0.0
1634,-9.933853912622995,-2.8384262739232904,129.30295528294323,0.0
1635,-9.354017212007685,-2.244678630096147,127.96665136206222,0.0
1636,-8.809774822826197,-1.6700847580040934,126.60593971132278,0.0
1637,-8.325700318495667,-1.1499262704788564,125.22559354479687,0.0
1638,-7.916673010069588,-0.7092124196193735,123.83012704393022,0.0
1639,-7.590321555542292,-0.36246674598907047,122.42378935636253,0.0
1640,-7.3491279365090705,-0.11455162093751714,121.01056197923913,0.0
1641,-7.19161496331675,0.037904257710659084,119.59415912430043,0.0
1642,-7.112601216386301,0.1048384141959402,118.17803066816877,0.0
1643,-7.102936782408292,0.1010782997525207,116.76536730539401,0.0
1644,-7.14930224590245,0.04475077149599771,115.35910754209895,0.0
1645,-7.234555313265046,-0.044226098137425396,113.9619461927971,0.0
1646,-7.338842197489044,-0.1456109206189397,112.57634407063571,0.0
1647,-7.441393654200405,-0.2402901234881013,111.20453859067403,0.0
1648,-7.522709255487224,-0.31168037641132684,109.8485550357698,0.0
1649,-7.566743016466273,-0.3469865564280223,108.51021826435385,0.0
1650,-7.562722334690282,-0.33817466086050857,107.19116466815164,0.0
1651,-7.506314305494319,-0.282511883405769,105.89285421525821,0.0
1652,-7.3999578572657585,-0.18256267132626885,104.6165824395329,0.0
1653,-7.252289908905437,-0.04560335649958214,103.36349226082521,0.0
1654,-7.076713527315287,0.11748787372504965,102.13458554194563,0.0
1655,-6.889293419377053,0.29371670168377995,100.9307343075188,0.0
1656,-6.706307877515459,0.4696173716486499,99.75269156692103,0.0
1657,-6.541897229087893,0.6328133386427166,98.60110169849129,0.0
1658,-6.406271800623605,0.7732733062557761,97.47651036522034,0.0
1659,-6.304836696959826,0.8841084904693302,96.3793739433072,0.0
1660,-6.2383613991872275,0.9618513966670077,95.31006845447294,0.0
1661,-6.204032412638231,1.006255865957844,94.26889800089903,0.0
1662,-6.196979826611131,1.0197388507454352,93.2561027082702,0.0
1663,-6.211762497277276,1.006628600555178,92.27186618780584,0.0
1664,-6.243377607286164,0.9723850593250034,91.31632253250817,0.0
1665,-6.287595055712893,0.922922202994875,90.3895628662848,0.0
1666,-6.340705145213382,0.8641044698572596,89.49164146724308,0.0
1667,-6.398988730449389,0.8014299219414835,88.62258148842885,0.0
1668,-6.45828633322295,0.7398679648121149,87.78238030069942,0.0
1669,-6.513940768497476,0.6837979442802614,86.97101448337982,0.0
1670,-6.561173390074278,0.6369956947161379,86.18844448893697,0.0
1671,-6.595729762225814,0.6026297286988771,85.43461900820158,0.0
1672,-6.614500204099356,0.5832463142677393,84.70947906273597,0.0
1673,-6.615842853709784,0.580734927892933,84.01296185085168,0.0
1674,-6.599495818774196,0.5962701251357566,83.34500437357617,0.0
1675,-6.566175674993273,0.630226260809017,82.70554686659955,0.0
1676,-6.51711092088059,0.6820642193993715,82.09453606394386,0.0
1677,-6.453773406751876,0.7501996265269502,81.511928318823,0.0
1678,-6.377945473894938,0.8318804516617946,80.9576926069388,0.0
1679,-6.292065885415287,0.9231233276694627,80.43181343731472,0.0
1680,-6.199635605244415,1.0187732357106378,79.93429369573398,0.0
1681,-6.105414587568192,1.1127510837086318,79.46515744595439,0.0
1682,-6.01522242745711,1.1985322904348745,79.02445271413765,0.0
1683,-5.935322897399953,1.2698567927510398,78.61225428239466,0.0
1684,-5.871538982947273,1.3216130695584538,78.2286665180316,0.0
1685,-5.828329678023227,1.3507766020797467,77.87382626602215,0.0
1686,-5.808030108291734,1.3572298245401409,77.54790583346117,0.0
1687,-5.810349155930568,1.3442595523625067,77.2511160963184,0.0
1688,-5.832118918666459,1.3185313753267445,76.98370976074922,0.0
1689,-5.867277771242291,1.2893880532628021,76.74598481359128,0.0
1690,-5.907161877289814,1.267414855770089,76.53828819953935,0.0
1691,-5.941315255216042,1.2623546572907025,76.36101976592423,0.0
1692,-5.959089881022585,1.2806226237276725,76.21463652010782,0.0
1693,-5.952188267105242,1.322833441621134,76.09965724935444,0.0
1694,-5.917967187207296,1.3818705090672374,76.01666755876828,0.0
1695,-5.862847345727272,1.4420504550510114,75.966325389651,0.0
1696,-5.804738854721823,1.4798325172205993,75.94936708860759,1.0
1697,-5.773227138636348,1.4662814594395173,75.9895111353597,0.0
1698,-5.806555570014355,1.3711431282100695,76.10795515712626,0.0
1699,-5.945226505778159,1.1680009162523715,76.30205097848848,0.0
1700,-6.223143289445067,0.8396444600870845,76.56955085469443,0.0
1701,-6.6582664393116735,0.3825977935323357,76.9085573613084,0.0
1702,-7.245331151097225,-0.19020442333631504,77.31747926557989,0.0
1703,-7.9529632882233665,-0.8493173618922052,77.79499213541554,0.0
1704,-8.726502341560241,-1.551502555001067,78.34000263152754,0.0
1705,-9.496278502629586,-2.244921789112024,78.9516155748622,0.0
1706,-10.189512992954326,-2.8759381721931874,79.62910299401972,0.0
1707,-10.742961239707935,-3.396303338340282,80.37187444319801,0.0
1708,-11.113251466355184,-3.7694293620763695,81.17944794585188,0.0
1709,-11.282615005455376,-3.974653414993778,82.05142096728889,0.0
1710,-11.259069307343816,-4.0088462413143455,82.98744085461436,0.0
1711,-11.071624098009865,-3.885277562355054,83.9871742081028,0.0
1712,-10.76225936807128,-3.630193309946762,85.05027466727086,0.0
1713,-10.376960137916502,-3.2779561887902338,86.17634861065099,0.0
1714,-9.957929324172175,-2.86577391711762,87.3649182836234,0.0
1715,-9.538412785656334,-2.4289728275161635,88.61538188701934,0.0
1716,-9.140660699938364,-1.9975129356452923,89.92697018434207,0.0
1717,-8.776705266938896,-1.5940707221487878,91.29869922166948,0.0
1718,-8.451043008584294,-1.2336391419571324,92.72931880656563,0.0
1719,-8.164044694766599,-0.9242994890233556,94.21725646631667,0.0
1720,-7.9149733181704285,-0.6686621900300458,95.76055670795853,0.0
1721,-7.7038161746792015,-0.46546642103322944,97.35681554002362,0.0
1722,-7.531629684496894,-0.3109451222749332,99.00311039641714,0.0
1723,-7.399612287115864,-0.19974910734359463,100.69592583431748,0.0
1724,-7.307509832298869,-0.12541911266089323,102.43107566824415,0.0
1725,-7.252110489001579,-0.08054424744058897,104.20362255825428,0.0
1726,-7.226475764649084,-0.056817635342660266,106.00779649642621,0.0
1727,-7.220241735560816,-0.04519027758310312,107.83691413379974,0.0
1728,-7.220931504720714,-0.0362512453029471,109.68330145607128,0.0
1729,-7.215884533600265,-0.020859394475853166,111.53822293967532,0.0
1730,-7.194240197289551,0.009045833462195674,113.39182097995291,0.0
1731,-7.148455690269502,0.05959258992051897,115.23307004748281,0.0
1732,-7.075055801624005,0.13424339216995174,117.04975065082058,0.0
1733,-6.974602423095721,0.23332043285918103,118.8284487018534,0.0
1734,-6.851111337200214,0.35388165994314047,120.55458621622027,0.0
1735,-6.711241091105881,0.4899807294139842,122.21248934482118,0.0
1736,-6.563513039620673,0.6332871762492218,123.78549942394928,0.0
1737,-6.417649470627376,0.7739964858135975,125.25613195176159,0.0
1738,-6.283941315345143,0.9019251931240331,126.6062870609986,0.0
1739,-6.172476255865699,1.0076629776702881,127.81751310418026,0.0
1740,-6.092116713287347,1.0836419814864826,128.87132238742996,0.0
1741,-6.049285931416107,1.1249858683039828,129.7495549382797,0.0
1742,-6.046812080727756,1.1300218081711795,130.43478260869566,1.0
1743,-6.083192917716672,1.1003805851260866,131.01734745950728,0.0
1744,-6.152607265300035,1.0406713113125166,131.5983409503862,0.0
1745,-6.245808603232249,0.9577885757082834,132.1772542911147,0.0
1746,-6.351754075164646,0.8599758912661456,132.75356333032886,0.0
1747,-6.459559843632374,0.7558126927147211,133.32672858413022,0.0
1748,-6.560243103454763,0.6532995417452531,133.8961953113377,0.0
1749,-6.647774493966286,0.5591836485441939,134.46139363836022,0.0
1750,-6.71920299913881,0.478602136280671,135.02173873667297,0.0
1751,-6.773935654579538,0.41504147374878353,135.57663105586116,0.0
1752,-6.8125324540500145,0.3705404324474206,136.12545661515423,0.0
1753,-6.835511039624502,0.34602013054307745,136.66758735630825,0.0
1754,-6.842603878796071,0.34161826286237995,137.20238156060438,0.0
1755,-6.83270023601197,0.3569332347330685,137.72918433261276,0.0
1756,-6.804420548178342,0.3911344951365754,138.2473281532235,0.0
1757,-6.757023100537851,0.442949143213631,138.75613350426804,0.0
1758,-6.691229865452891,0.5105744315585637,139.25490956684322,0.0
1759,-6.609622783609462,0.5915809969040065,139.74295499520562,0.0
1760,-6.516468677504602,0.6828625020024981,140.2195587678238,0.0
1761,-6.4170809314050805,0.7806626650433316,140.68400111686194,0.0
1762,-6.317003010023398,0.8806834118146997,141.13555453701665,0.0
1763,-6.221327896546119,0.9782596183696876,141.57348487424218,0.0
1764,-6.1343496088811085,1.0685821035751595,141.99705249447643,0.0
1765,-6.059549294548656,1.1469591038464433,142.4055135320223,0.0
1766,-5.999750777585628,1.2091195001307777,142.7981212167486,0.0
1767,-5.957219808063283,1.2515687072580983,143.1741272787507,0.0
1768,-5.9335487316441204,1.272002774481042,143.53278342855825,0.0
1769,-5.92931632606053,1.2697653697030622,143.8733429103991,0.0
1770,-5.943653030346229,1.2462991800118357,144.19506212542439,0.0
1771,-5.973898063019293,1.205505703317289,144.4972023211792,0.0
1772,-6.015487082051382,1.1538958441963139,144.7790313429656,0.0
1773,-6.062102699824699,1.1003992079828793,145.03982544210083,0.0
1774,-6.106033823221247,1.055712649787889,145.2788711354225,0.0
1775,-6.138684495490998,1.031116149322242,145.49546710974784,0.0
1776,-6.151255582690787,1.0367693979121004,145.6889261643563,0.0
1777,-6.135739187432906,1.0796207196994758,145.85857718394553,0.0
1778,-6.0864225865589905,1.1611952913693693,146.00376713391535,0.0
1779,-6.0020048976514495,1.2756541064092397,146.12386306927,0.0
1780,-5.888149404981564,1.4085914208722579,146.2182541479074,0.0
1781,-5.759888780766533,1.5370278449162424,146.28635363858783,0.0
1782,-5.642933136655127,1.630931215072585,146.32760091345565,0.0
1783,-5.572816465719998,1.6563548989150587,146.34146341463415,1.0
1784,-5.591123085309865,1.5799543208509441,146.3165321125925,0.0
1785,-5.738782036757787,1.3742926601177121,146.24325396348428,0.0
1786,-6.047425748286326,1.0230637416101425,146.12396777754537,0.0
1787,-6.5307370253451325,0.5252317920464369,145.96108744029257,0.0
1788,-7.178166101938375,-0.10282614771148013,145.75708749378552,0.0
1789,-7.953113691203282,-0.8277800804698305,145.51448925813565,0.0
1790,-8.7966315650555,-1.6025342412582257,145.23584760203286,0.0
1791,-9.636179915572283,-2.371721428922183,144.9237384535671,0.0
1792,-10.397507946803017,-3.0786049319093407,144.58074712529856,0.0
1793,-11.016814032801353,-3.6721954725736015,144.2094575107364,0.0
1794,-11.450314234728578,-4.113358136288789,143.81244219341457,0.0
1795,-11.679189855207193,-4.378918356369369,143.3922534948449,0.0
1796,-11.709267645054416,-4.463213182109898,142.9514154739689,0.0
1797,-11.566214236320409,-4.377060924349301,142.49241687844753,0.0
1798,-11.288040382751733,-4.144609331034204,142.01770503730782,0.0
1799,-10.917059084165695,-3.7988603311736884,141.52968067513626,0.0
1800,-10.493142953624172,-3.376796560009133,141.03069362017803,0.0
1801,-10.049405067681958,-2.914949113716532,140.52303937232196,0.0
1802,-9.610579852685609,-2.4459980743282768,140.0089564919703,0.0
1803,-9.193653642954118,-1.9966710673914012,139.49062476712393,0.0
1804,-8.80983707844993,-1.5868909083474882,138.97016411355645,0.0
1805,-8.466838797592837,-1.2298939404650184,138.44963416160613,0.0
1806,-8.170570400367636,-0.9329346827878521,137.93103448275863,0.0
1807,-7.925797726356455,-0.698209808224203,137.41630540972466,0.0
1808,-7.735716370828776,-0.5237425862264505,136.9073294050133,0.0
1809,-7.6008262487010505,-0.40411653742549924,136.4059329349642,0.0
1810,-7.5177061882198295,-0.3310814576478095,135.91388880872879,0.0
1811,-7.478303617693878,-0.2941370298399213,135.4329189446911,0.0
1812,-7.470174706858497,-0.2812125399478401,134.9646975302137,0.0
1813,-7.47779916013558,-0.2795135513798619,134.5108545443155,0.0
1814,-7.484743313149187,-0.2765240598127444,134.072979616874,0.0
1815,-7.47616103380229,-0.26106986215569583,133.65262620215412,0.0
1816,-7.440997183460429,-0.22429596317720235,133.2513160488599,0.0
1817,-7.373339864716435,-0.1604048644769387,132.87054395346382,0.0
1818,-7.272632318270015,-0.06704306945792082,132.51178278828013,0.0
1819,-7.142812385711971,0.05470597315904535,132.17648880061273,0.0
1820,-6.990769232222956,0.20068763010721213,131.86610718433835,0.0
1821,-6.824676517097237,0.36430715991006346,131.58207793050494,0.0
1822,-6.652717889203265,0.5373070259956112,131.32584196897017,0.0
1823,-6.482486587317826,0.7105798742888583,131.09884761882526,0.0
1824,-6.3210151492563815,0.8749383834212761,130.9025573714052,0.0
1825,-6.175111932913481,1.0218007830597298,130.73845503615803,0.0
1826,-6.051567764891746,1.1437780418808194,130.60805328662582,0.0
1827,-5.956896016909656,1.235157261447155,130.5129016513899,0.0
1828,-5.896534694129065,1.2922680053394493,130.45459500318978,0.0
1829,-5.8737455597330905,1.313704942622388,130.43478260869566,1.0
1830,-5.888648603355085,1.3003746805380374,130.4434378608158,0.0
1831,-5.9378330138527655,1.255346129906412,130.46887763437346,0.0
1832,-6.0147838076307085,1.1835123529690765,130.5103217510053,0.0
1833,-6.111045892950031,1.0911083687082663,130.56700019619385,0.0
1834,-6.217754577100796,0.9851592654589921,130.63815125586473,0.0
1835,-6.327019576194977,0.8729429325766641,130.72301975741107,0.0
1836,-6.432717922967339,0.7615360963588853,130.82085540965983,0.0
1837,-6.530501215170033,0.6574760981522307,130.93091123717087,0.0
1838,-6.617151209693808,0.5665279918958745,131.05244210506882,0.0
